Data from Ofra_1a_PS_2CX10_Reflection_3.txt Node
Date: Tue Jul 20 10:46:44 EDT 2021
User: Adam
Spectrometer: FLMT01687
Trigger mode: 0
Integration Time (sec): 1.004000E0
Scans to average: 2
Electric dark correction enabled: true
Nonlinearity correction enabled: false
Boxcar width: 2
XAxis mode: Wavelengths
Number of Pixels in Spectrum: 3648
>>>>>Begin Spectral Data<<<<<
179.494	69.54
179.716	143.51
179.937	116.05
180.158	-106.37
180.38	122.95
180.601	-32.39
180.823	-93.72
181.044	-250.52
181.265	-372.55
181.486	257.86
181.708	-11.02
181.929	9809.09
182.15	-169.11
182.372	513.79
182.593	424.23
182.814	-431.75
183.035	-108.28
183.257	-32.16
183.478	-31.11
183.699	-5.27
183.92	-9.56
184.141	9.21
184.363	-6.84
184.584	-33.17
184.805	-42.83
185.026	6.25
185.247	-27.84
185.468	-55.1
185.689	-19.63
185.91	-27.66
186.132	-8.43
186.353	9.32
186.574	20.11
186.795	10.07
187.016	30.5
187.237	26.57
187.458	37.83
187.679	24.07
187.9	40.56
188.121	51.37
188.342	46.17
188.563	53.79
188.784	61.97
189.005	38.62
189.226	28.9
189.447	25.93
189.667	0.97
189.888	-7.12
190.109	-5.69
190.33	1.2
190.551	-10.58
190.772	14.27
190.993	7.45
191.214	-6.37
191.434	-24.95
191.655	-61.06
191.876	-40.55
192.097	4.76
192.318	23.99
192.538	-2.55
192.759	2.11
192.98	28.29
193.201	20.05
193.421	17.49
193.642	34.72
193.863	43.13
194.083	18.05
194.304	6.78
194.525	-1.75
194.745	-20.86
194.966	-8.88
195.187	-2.3
195.407	-8.98
195.628	9.49
195.848	18.61
196.069	9.8
196.29	1.01
196.51	-12.11
196.731	-20.71
196.951	-39.64
197.172	-5.15
197.392	2.6
197.613	31.59
197.833	34.11
198.054	43.42
198.274	30.08
198.495	38.14
198.715	23.19
198.936	23.67
199.156	27.36
199.377	12.14
199.597	14.92
199.817	19.06
200.038	-5.97
200.258	7.68
200.479	30.9
200.699	34.23
200.919	13.37
201.14	14.85
201.36	24.08
201.58	-0.24
201.801	-27.55
202.021	-24.01
202.241	-12.43
202.461	-7.49
202.682	10.9
202.902	3.16
203.122	-0.41
203.342	-2.98
203.563	-35
203.783	-45.71
204.003	-24.92
204.223	2.56
204.443	18.44
204.663	42.73
204.884	55.83
205.104	52.95
205.324	79.25
205.544	13.82
205.764	42.79
205.984	13.64
206.204	1.11
206.424	-34.7
206.644	-15.42
206.864	-73.19
207.084	-22.34
207.304	-33.21
207.525	-23.15
207.745	-7.33
207.964	11.85
208.184	16.55
208.404	26.28
208.624	33.59
208.844	25.95
209.064	21.11
209.284	-5.1
209.504	-20.87
209.724	-22.18
209.944	-39.58
210.164	-41.78
210.384	-40.39
210.604	-64.01
210.823	-70.1
211.043	-28.91
211.263	-86.35
211.483	-48.7
211.703	-40.38
211.922	-76.62
212.142	-60.98
212.362	-21.3
212.582	-23.23
212.801	-22.66
213.021	-12.64
213.241	-25.56
213.461	-22.41
213.68	1.35
213.9	4.75
214.12	5.69
214.339	6.6
214.559	15.89
214.779	-7.9
214.998	-13.23
215.218	-7.44
215.438	8.35
215.657	-11.83
215.877	-7.39
216.096	12.79
216.316	17.84
216.535	-0.77
216.755	22.63
216.974	12.79
217.194	-12.57
217.413	-10.39
217.633	-11.07
217.852	-17.86
218.072	-9.8
218.291	-18.65
218.511	-40.36
218.73	-51.26
218.95	-80.24
219.169	-76.08
219.389	-51.22
219.608	-26.94
219.827	-6.47
220.047	3.03
220.266	-1.31
220.485	-0.59
220.705	-15.29
220.924	-1.97
221.143	9.14
221.363	15.33
221.582	16.91
221.801	27.85
222.021	23.22
222.24	17.79
222.459	32.93
222.678	27.42
222.897	24.57
223.117	34.26
223.336	24.53
223.555	21.14
223.774	33.96
223.993	28.79
224.213	3.15
224.432	3.32
224.651	-23.48
224.87	-18.25
225.089	-4.38
225.308	13.55
225.527	7.43
225.746	19.37
225.965	5.74
226.184	-12.85
226.404	-26.36
226.623	-1.8
226.842	-3.74
227.061	13.39
227.28	28.38
227.499	24.8
227.718	17.99
227.936	28
228.155	21.26
228.374	9.81
228.593	22.89
228.812	29.12
229.031	3.82
229.25	-11.82
229.469	-8.26
229.688	-5.21
229.907	4.38
230.125	24.89
230.344	34.89
230.563	36.64
230.782	35.21
231.001	29.99
231.22	22.54
231.438	20.62
231.657	14.65
231.876	2.97
232.095	1.31
232.313	-8.64
232.532	-4.72
232.751	-16.33
232.969	-13.04
233.188	-15.87
233.407	1.86
233.625	2.82
233.844	6.23
234.063	8.58
234.281	18.05
234.5	-1.68
234.719	-2.62
234.937	-4.95
235.156	-8.66
235.374	-25.39
235.593	1.29
235.811	15.74
236.03	9.77
236.249	15.69
236.467	8.13
236.686	-12.22
236.904	-6.77
237.123	-1.11
237.341	-8.88
237.559	3.05
237.778	39.28
237.996	4.69
238.215	-5.97
238.433	-21.18
238.652	5.77
238.87	-18.26
239.088	10.83
239.307	8.1
239.525	16.57
239.743	2.83
239.962	-1.85
240.18	1.84
240.398	4.71
240.617	-16.37
240.835	-15.2
241.053	-5.95
241.271	-11.91
241.49	-1.2
241.708	7.23
241.926	3.56
242.144	-0.22
242.363	3.58
242.581	-67.69
242.799	-77.62
243.017	-38.45
243.235	-13.05
243.453	-45.49
243.672	-12.01
243.89	-10.44
244.108	0.94
244.326	10.2
244.544	36.2
244.762	25.96
244.98	32.67
245.198	28.82
245.416	14.9
245.634	-2.19
245.852	-3.68
246.07	1.36
246.288	-2.95
246.506	4
246.724	23.53
246.942	37.19
247.16	38.64
247.378	50.53
247.596	75.57
247.814	25.64
248.032	2.05
248.25	0.53
248.468	11.43
248.685	5.06
248.903	19.15
249.121	23.97
249.339	22.68
249.557	28.01
249.775	38.68
249.992	24.56
250.21	15.47
250.428	32.6
250.646	35.33
250.863	9.35
251.081	26.42
251.299	32.51
251.517	18.94
251.734	12.23
251.952	25.59
252.17	7.21
252.387	-8.33
252.605	-9.91
252.823	-45.28
253.04	-18.56
253.258	14.41
253.475	19.33
253.693	14.33
253.911	22.17
254.128	-0.52
254.346	-8.17
254.563	12.53
254.781	15.35
254.998	12.92
255.216	2.1
255.433	-24.25
255.651	-22.28
255.868	-22.71
256.086	-15.83
256.303	-6.96
256.521	13.12
256.738	7.83
256.956	5.42
257.173	4.84
257.39	15.32
257.608	0.17
257.825	7.32
258.043	10.95
258.26	3.3
258.477	1.13
258.695	10.81
258.912	-8.19
259.129	-24.61
259.346	-20.43
259.564	-17.07
259.781	-37.32
259.998	2.87
260.216	19.87
260.433	16.21
260.65	14.85
260.867	27.22
261.084	11.49
261.302	-2.07
261.519	16.38
261.736	14.39
261.953	24.97
262.17	35.23
262.387	37.16
262.604	36.85
262.822	42.72
263.039	42.61
263.256	32.78
263.473	31.35
263.69	31.29
263.907	25.05
264.124	32.2
264.341	39.65
264.558	34.39
264.775	42.12
264.992	28.13
265.209	-7.06
265.426	-31.93
265.643	-24.04
265.86	-72.48
266.077	-40.76
266.294	-17.92
266.51	17.22
266.727	28.22
266.944	39.83
267.161	34.59
267.378	36.52
267.595	12.75
267.812	-5.6
268.028	-29.56
268.245	-18.83
268.462	-10.59
268.679	0.02
268.896	25.58
269.112	20.01
269.329	6.49
269.546	26.61
269.763	38.08
269.979	32.4
270.196	48
270.413	42.84
270.629	12.9
270.846	4.09
271.063	3.56
271.279	-2.41
271.496	-9.18
271.712	4.79
271.929	5.88
272.146	-13.3
272.362	-19.28
272.579	-24.74
272.795	-35.18
273.012	-24.59
273.228	-12.56
273.445	0.73
273.661	19.41
273.878	11.44
274.094	-2.03
274.311	7.1
274.527	-8.71
274.744	11.31
274.96	21.94
275.177	19.98
275.393	16.84
275.609	21.74
275.826	4.31
276.042	-7.24
276.259	2.15
276.475	-11.52
276.691	-14.54
276.908	-6.43
277.124	5.93
277.34	16.61
277.557	22.98
277.773	40.7
277.989	33.2
278.205	32.59
278.422	2.18
278.638	4.53
278.854	-9.8
279.07	0.17
279.286	-7.74
279.503	0.16
279.719	-2.48
279.935	2.94
280.151	-2.78
280.367	-1.83
280.583	3.18
280.799	-8.47
281.016	-42.14
281.232	-24.77
281.448	-21.45
281.664	-17.73
281.88	2.86
282.096	16.76
282.312	8.32
282.528	6.51
282.744	4.52
282.96	-6.74
283.176	-19.77
283.392	-60.36
283.608	-55.24
283.824	-74.03
284.04	-117.11
284.256	-73.52
284.471	-27.18
284.687	-22.39
284.903	-12.98
285.119	17.63
285.335	26.49
285.551	20.9
285.767	31.11
285.982	23.09
286.198	-27.29
286.414	-42.26
286.63	-57.54
286.846	-73.51
287.061	-60.48
287.277	-52.98
287.493	-43.43
287.709	-42.68
287.924	-15.96
288.14	0.19
288.356	14.09
288.571	20.36
288.787	8.28
289.003	12.97
289.218	2.25
289.434	-4.44
289.65	-0.15
289.865	4.37
290.081	2.07
290.296	13.84
290.512	22.12
290.727	2.94
290.943	7.85
291.159	4.29
291.374	-18.72
291.59	-13.5
291.805	-11
292.021	-10.1
292.236	-25.35
292.451	-11.3
292.667	-17.94
292.882	2.69
293.098	9.64
293.313	16.84
293.529	18.86
293.744	20.38
293.959	21.06
294.175	39.56
294.39	35.53
294.605	39.98
294.821	33.39
295.036	17.89
295.251	3.48
295.467	-6.58
295.682	-11.44
295.897	-19.46
296.112	-15.68
296.328	-12.63
296.543	-9.33
296.758	-12.14
296.973	-8.46
297.188	-20.7
297.404	-56.09
297.619	-68.77
297.834	-92.03
298.049	-70.28
298.264	-38.06
298.479	-15.79
298.694	14.96
298.909	17.48
299.125	12.31
299.34	12.12
299.555	7.23
299.77	20.82
299.985	24.41
300.2	24.6
300.415	24.49
300.63	23.8
300.845	17.75
301.06	25.34
301.275	28.18
301.49	36.85
301.704	33.1
301.919	20.61
302.134	14.27
302.349	6
302.564	8.37
302.779	3.29
302.994	18.37
303.209	23.38
303.423	31.93
303.638	18.72
303.853	9.57
304.068	-22.48
304.283	-23.42
304.497	-37.88
304.712	-26.28
304.927	-15.26
305.142	4.68
305.356	2.65
305.571	3.02
305.786	0.92
306	15.44
306.215	-0.96
306.43	-7.63
306.644	-12.69
306.859	-24.32
307.074	-8.86
307.288	-6.22
307.503	16.13
307.717	12.05
307.932	28.58
308.147	18.42
308.361	25.82
308.576	12.9
308.79	26.1
309.005	21.9
309.219	35.16
309.434	43.93
309.648	33.62
309.863	16.3
310.077	14.43
310.292	14.78
310.506	-3.76
310.72	-7.87
310.935	24.06
311.149	16.97
311.364	8.77
311.578	16.59
311.792	35.3
312.007	40.35
312.221	31.3
312.435	25.25
312.649	31.8
312.864	21.26
313.078	13.39
313.292	32.55
313.507	40.99
313.721	31.89
313.935	35.26
314.149	26.68
314.363	-4.12
314.578	-9.75
314.792	-43.95
315.006	-42.53
315.22	-22.12
315.434	-11.33
315.648	-27.14
315.862	-5.24
316.077	-12.46
316.291	-16
316.505	-22.3
316.719	4.45
316.933	-5.38
317.147	6.61
317.361	1.62
317.575	0.17
317.789	0.01
318.003	4.54
318.217	14.37
318.431	18.33
318.645	29.83
318.859	30.73
319.073	27.79
319.287	16.91
319.5	10.06
319.714	1.89
319.928	-1.45
320.142	0.41
320.356	13.8
320.57	4.55
320.784	6.51
320.997	-14.33
321.211	-7.84
321.425	-43.15
321.639	-4.1
321.853	-4.34
322.066	1.44
322.28	-6.96
322.494	-0.12
322.707	-14.67
322.921	-11.39
323.135	1.97
323.349	-4.82
323.562	8.71
323.776	6.78
323.989	10.08
324.203	-9.34
324.417	-12.07
324.63	-32.01
324.844	-30.49
325.057	-45.22
325.271	-28.64
325.485	-16.61
325.698	-2.2
325.912	20.95
326.125	8.21
326.339	25.77
326.552	25.84
326.766	25.36
326.979	7.38
327.193	32.43
327.406	9.84
327.619	20.11
327.833	14.72
328.046	18.03
328.26	1.84
328.473	1.51
328.686	-3.7
328.9	10.1
329.113	-1.5
329.326	-13.79
329.54	5.48
329.753	15.46
329.966	13.4
330.179	22.44
330.393	40.21
330.606	24.91
330.819	13.44
331.032	6.59
331.246	10.79
331.459	16.12
331.672	17.86
331.885	16.16
332.098	32.35
332.311	12.43
332.525	11.22
332.738	12.64
332.951	10.28
333.164	7.26
333.377	20.64
333.59	10.47
333.803	22.89
334.016	22.99
334.229	15.9
334.442	5.54
334.655	14.47
334.868	3.26
335.081	7.79
335.294	4.71
335.507	12.41
335.72	12
335.933	13.08
336.146	7.68
336.359	19.93
336.572	22.01
336.785	15.45
336.997	9.78
337.21	22.94
337.423	-1.27
337.636	-7.31
337.849	-17.03
338.062	-12.03
338.274	-4.4
338.487	-14.03
338.7	-27.37
338.913	-6.52
339.125	-4
339.338	-24.26
339.551	-13.43
339.763	-4.72
339.976	-2.35
340.189	-4.22
340.402	5.21
340.614	16.97
340.827	27.13
341.039	21.35
341.252	31.73
341.465	22.11
341.677	32.19
341.89	11.34
342.102	17.98
342.315	8.85
342.527	9.19
342.74	-17.42
342.952	-5.41
343.165	-15.31
343.377	-3.52
343.59	3.07
343.802	11.58
344.015	9.41
344.227	15.13
344.44	0.16
344.652	-8.56
344.864	-3.59
345.077	5.35
345.289	18.07
345.502	27.61
345.714	39.56
345.926	29.35
346.139	5.16
346.351	-8.46
346.563	-5.95
346.775	-18.79
346.988	2.99
347.2	14.46
347.412	15.24
347.624	18
347.837	25.62
348.049	27.24
348.261	12.92
348.473	8.11
348.685	-1.13
348.897	-11.4
349.11	-14.79
349.322	4.28
349.534	-0.8
349.746	4.66
349.958	-7.78
350.17	-18.41
350.382	-3.59
350.594	11.39
350.806	24.63
351.018	39.41
351.23	44.29
351.442	33.09
351.654	23.4
351.866	8.78
352.078	2.89
352.29	-1.78
352.502	14.79
352.714	24.49
352.926	28.67
353.138	31.68
353.35	18.84
353.561	-1.8
353.773	-8.8
353.985	-6.66
354.197	-5.16
354.409	6.88
354.621	-1.72
354.832	7.14
355.044	-5.87
355.256	-4.75
355.468	-33.72
355.679	7.39
355.891	5.94
356.103	14.11
356.314	8.2
356.526	12.98
356.738	-9.39
356.949	-6.85
357.161	2.23
357.373	5.33
357.584	14.48
357.796	18.99
358.008	11.8
358.219	3.39
358.431	3.77
358.642	-0.66
358.854	2.64
359.065	2.72
359.277	-5.78
359.488	-4.24
359.7	-2.11
359.911	-16.14
360.123	-1.4
360.334	-2.93
360.546	-17.82
360.757	-9.99
360.969	3.95
361.18	-6.87
361.391	4.84
361.603	13.27
361.814	12.21
362.025	15.04
362.237	22.89
362.448	25.71
362.659	24.78
362.871	6.17
363.082	-7.06
363.293	-22.91
363.504	-57.29
363.716	-52.9
363.927	-4.29
364.138	-10.68
364.349	-17.01
364.56	-7.35
364.772	6.07
364.983	-12.2
365.194	-1.01
365.405	-2.51
365.616	16.8
365.827	-4.69
366.038	-3.41
366.25	-7.25
366.461	0.89
366.672	-5.64
366.883	-4.54
367.094	-16.9
367.305	-29.22
367.516	-22.68
367.727	-42.36
367.938	-39.07
368.149	-41.16
368.36	-36.83
368.571	-51.83
368.781	-44.32
368.992	-37.59
369.203	-25.36
369.414	-20.2
369.625	-15.58
369.836	20.57
370.047	26.49
370.258	31.03
370.468	20.17
370.679	20.62
370.89	-8.41
371.101	17.35
371.312	16.85
371.522	26.41
371.733	11.29
371.944	7.68
372.155	-7.58
372.365	-6.49
372.576	-15.45
372.787	6.71
372.997	1.78
373.208	-8.73
373.419	-21.69
373.629	-10.85
373.84	-42.69
374.05	-39.32
374.261	-53.85
374.472	-34.69
374.682	-25.89
374.893	-5.35
375.103	-2.26
375.314	3.5
375.524	-2.2
375.735	-11.67
375.945	-5.31
376.156	-6.08
376.366	-4.98
376.577	-7.51
376.787	-4.21
376.997	-2.99
377.208	2.73
377.418	1.73
377.629	6.25
377.839	11.45
378.049	11.03
378.26	9
378.47	10.63
378.68	8.91
378.89	4.54
379.101	4.42
379.311	-1.16
379.521	-5.84
379.732	-5.89
379.942	-3.19
380.152	-5.78
380.362	2.67
380.572	17.11
380.783	25.69
380.993	18.45
381.203	21.59
381.413	26.4
381.623	20.75
381.833	17.91
382.043	19.56
382.253	15.93
382.463	12.98
382.674	14.85
382.884	17.78
383.094	15.44
383.304	14.59
383.514	9.66
383.724	5.8
383.934	-7.16
384.144	-3.8
384.353	-2.42
384.563	1.41
384.773	6.03
384.983	12.14
385.193	11.48
385.403	7.45
385.613	9.79
385.823	5.91
386.033	4.06
386.242	0.28
386.452	-5.13
386.662	-6.83
386.872	-3.31
387.082	-5.69
387.291	-3.07
387.501	1.98
387.711	3.12
387.921	1.86
388.13	6.92
388.34	7.47
388.55	7.35
388.759	0.48
388.969	-1.94
389.179	-1.17
389.388	-3.34
389.598	-7.39
389.807	-6.73
390.017	-5.88
390.227	-10.97
390.436	-5.21
390.646	-1.91
390.855	0.44
391.065	3.91
391.274	4.68
391.484	-0.64
391.693	-0.27
391.903	-1.54
392.112	-3.32
392.322	-2.35
392.531	0
392.74	-1.4
392.95	-0.87
393.159	0.95
393.369	0.3
393.578	1.52
393.787	2.11
393.997	3.4
394.206	1.11
394.415	1.67
394.625	1.21
394.834	-0.24
395.043	0.03
395.252	3.38
395.462	4.09
395.671	3.12
395.88	4.54
396.089	3.73
396.298	2.55
396.508	2.15
396.717	2.23
396.926	1.83
397.135	1.97
397.344	1.14
397.553	0.27
397.762	1.68
397.971	1.41
398.181	0.97
398.39	0.72
398.599	1.52
398.808	0.87
399.017	2.16
399.226	2.65
399.435	2.93
399.644	3.3
399.853	3.61
400.062	3.19
400.27	3.18
400.479	3.01
400.688	2.83
400.897	2.49
401.106	2.57
401.315	2.62
401.524	3
401.733	2.85
401.941	3.22
402.15	3.06
402.359	2.97
402.568	3.04
402.777	3.28
402.985	2.85
403.194	2.78
403.403	2.85
403.612	2.55
403.82	2.23
404.029	2.38
404.238	2.38
404.446	2.47
404.655	2.53
404.864	2.96
405.072	2.9
405.281	2.95
405.489	2.92
405.698	2.96
405.906	2.85
406.115	2.82
406.324	2.8
406.532	2.89
406.741	2.92
406.949	2.81
407.158	3.05
407.366	3.04
407.574	3.04
407.783	2.94
407.991	2.86
408.2	2.86
408.408	2.85
408.617	2.68
408.825	2.62
409.033	2.63
409.242	2.65
409.45	2.66
409.658	2.69
409.867	2.87
410.075	2.9
410.283	2.79
410.491	2.65
410.7	2.54
410.908	2.58
411.116	2.72
411.324	2.68
411.533	2.77
411.741	2.76
411.949	2.67
412.157	2.42
412.365	2.47
412.573	2.49
412.781	2.47
412.99	2.43
413.198	2.54
413.406	2.68
413.614	2.71
413.822	2.92
414.03	2.99
414.238	2.96
414.446	2.92
414.654	2.77
414.862	2.67
415.07	2.58
415.278	2.57
415.486	2.35
415.694	2.42
415.902	2.4
416.109	2.42
416.317	2.44
416.525	2.4
416.733	2.38
416.941	2.47
417.149	2.3
417.357	2.35
417.564	2.4
417.772	2.51
417.98	2.44
418.188	2.47
418.395	2.26
418.603	2.2
418.811	2.05
419.019	1.94
419.226	2.1
419.434	2.22
419.642	2.14
419.849	2.12
420.057	2.17
420.265	2.12
420.472	2.22
420.68	2.31
420.887	2.3
421.095	2.33
421.302	2.3
421.51	2.07
421.717	2.07
421.925	2.27
422.132	2.21
422.34	2.05
422.547	2.09
422.755	2.13
422.962	1.96
423.17	1.83
423.377	1.93
423.585	2.11
423.792	2.22
423.999	2.27
424.207	2.2
424.414	2.11
424.621	2.05
424.829	1.95
425.036	1.94
425.243	2.13
425.451	2.23
425.658	2.03
425.865	1.93
426.072	1.86
426.28	1.85
426.487	1.9
426.694	1.97
426.901	1.95
427.108	1.88
427.315	1.96
427.523	1.84
427.73	1.95
427.937	1.96
428.144	2.04
428.351	1.9
428.558	2.07
428.765	1.95
428.972	2.1
429.179	2.04
429.386	2.18
429.593	2.04
429.8	2.15
430.007	1.97
430.214	2.11
430.421	2.25
430.628	2.32
430.835	2.32
431.042	2.39
431.249	2.32
431.456	2.12
431.662	2.23
431.869	2.3
432.076	2.24
432.283	2.39
432.49	2.41
432.697	2.29
432.903	2.17
433.11	2.42
433.317	2.39
433.524	2.44
433.73	2.44
433.937	2.56
434.144	2.37
434.35	2.23
434.557	2.25
434.764	2.32
434.97	2.16
435.177	2.31
435.384	2.41
435.59	2.39
435.797	2.46
436.003	2.57
436.21	2.46
436.416	2.52
436.623	2.57
436.829	2.5
437.036	2.49
437.242	2.6
437.449	2.52
437.655	2.55
437.862	2.54
438.068	2.63
438.275	2.7
438.481	2.72
438.687	2.65
438.894	2.84
439.1	2.72
439.307	2.74
439.513	2.8
439.719	2.84
439.926	2.74
440.132	2.86
440.338	2.85
440.544	2.89
440.751	2.87
440.957	2.94
441.163	2.78
441.369	2.73
441.575	2.6
441.782	2.7
441.988	2.65
442.194	2.79
442.4	2.76
442.606	3.04
442.812	3.02
443.018	3.05
443.224	3.1
443.431	3.13
443.637	2.93
443.843	2.96
444.049	3
444.255	3.03
444.461	2.95
444.667	3.03
444.873	2.92
445.079	2.85
445.284	2.82
445.49	2.87
445.696	2.76
445.902	2.85
446.108	2.9
446.314	2.81
446.52	2.97
446.726	3.18
446.931	3.05
447.137	3.09
447.343	3.19
447.549	3.05
447.755	2.98
447.96	3.12
448.166	3.09
448.372	3.08
448.578	3.04
448.783	3
448.989	3.02
449.195	3.03
449.4	3.08
449.606	3.18
449.812	3.11
450.017	3.11
450.223	3.04
450.428	2.97
450.634	2.93
450.84	3.04
451.045	3.01
451.251	3.13
451.456	3.17
451.662	3.23
451.867	3.25
452.073	3.27
452.278	3.22
452.483	3.25
452.689	3.28
452.894	3.4
453.1	3.38
453.305	3.45
453.51	3.45
453.716	3.34
453.921	3.27
454.127	3.27
454.332	3.21
454.537	3.25
454.742	3.3
454.948	3.33
455.153	3.4
455.358	3.46
455.563	3.45
455.769	3.52
455.974	3.43
456.179	3.33
456.384	3.27
456.589	3.22
456.795	3.17
457	3.21
457.205	3.17
457.41	3.09
457.615	3.02
457.82	3.13
458.025	3.12
458.23	3.22
458.435	3.34
458.64	3.44
458.845	3.39
459.05	3.47
459.255	3.48
459.46	3.51
459.665	3.47
459.87	3.43
460.075	3.43
460.28	3.47
460.485	3.48
460.69	3.48
460.895	3.5
461.099	3.38
461.304	3.26
461.509	3.26
461.714	3.36
461.919	3.3
462.123	3.34
462.328	3.29
462.533	3.13
462.738	3.02
462.942	3.08
463.147	3.09
463.352	3.29
463.556	3.42
463.761	3.41
463.966	3.42
464.17	3.55
464.375	3.51
464.58	3.48
464.784	3.6
464.989	3.64
465.193	3.58
465.398	3.59
465.602	3.73
465.807	3.69
466.011	3.69
466.216	3.71
466.42	3.8
466.625	3.78
466.829	3.74
467.034	3.85
467.238	3.9
467.443	3.83
467.647	3.82
467.851	3.85
468.056	3.89
468.26	3.87
468.464	3.9
468.669	3.97
468.873	4.06
469.077	3.98
469.282	3.98
469.486	3.97
469.69	3.92
469.894	3.91
470.099	3.9
470.303	3.9
470.507	3.95
470.711	3.93
470.915	3.95
471.119	4.05
471.324	4.11
471.528	4.05
471.732	4.15
471.936	4.21
472.14	4.14
472.344	4.19
472.548	4.27
472.752	4.24
472.956	4.24
473.16	4.28
473.364	4.21
473.568	4.18
473.772	4.16
473.976	4.26
474.18	4.25
474.384	4.26
474.588	4.36
474.792	4.35
474.995	4.26
475.199	4.23
475.403	4.3
475.607	4.26
475.811	4.29
476.015	4.25
476.218	4.3
476.422	4.34
476.626	4.45
476.83	4.56
477.033	4.66
477.237	4.8
477.441	4.68
477.644	4.66
477.848	4.66
478.052	4.64
478.255	4.6
478.459	4.67
478.663	4.69
478.866	4.68
479.07	4.72
479.273	4.78
479.477	4.83
479.681	4.86
479.884	4.88
480.088	4.87
480.291	4.74
480.495	4.69
480.698	4.67
480.901	4.61
481.105	4.61
481.308	4.66
481.512	4.76
481.715	4.79
481.919	4.89
482.122	4.94
482.325	5.04
482.529	5.02
482.732	4.98
482.935	4.94
483.138	4.86
483.342	4.86
483.545	4.95
483.748	5.05
483.952	5.08
484.155	5.23
484.358	5.24
484.561	5.17
484.764	5.08
484.967	5.1
485.171	5.06
485.374	4.97
485.577	4.94
485.78	4.95
485.983	4.95
486.186	4.93
486.389	5.04
486.592	5.01
486.795	5.05
486.998	4.97
487.201	5.04
487.404	5.12
487.607	5.19
487.81	5.16
488.013	5.22
488.216	5.17
488.419	5.07
488.622	5.04
488.825	5.09
489.028	5.09
489.231	5.07
489.433	5.08
489.636	5.08
489.839	5.1
490.042	5.14
490.245	5.12
490.447	5.11
490.65	5.15
490.853	5.16
491.056	5.15
491.258	5.18
491.461	5.19
491.664	5.13
491.866	5.04
492.069	5.12
492.272	5.08
492.474	5.14
492.677	5.22
492.879	5.25
493.082	5.23
493.285	5.31
493.487	5.27
493.69	5.23
493.892	5.26
494.095	5.28
494.297	5.3
494.5	5.31
494.702	5.4
494.905	5.46
495.107	5.39
495.309	5.44
495.512	5.43
495.714	5.44
495.917	5.49
496.119	5.54
496.321	5.5
496.524	5.48
496.726	5.45
496.928	5.45
497.13	5.52
497.333	5.51
497.535	5.67
497.737	5.7
497.939	5.73
498.142	5.72
498.344	5.75
498.546	5.69
498.748	5.78
498.95	5.84
499.152	5.85
499.355	5.85
499.557	5.95
499.759	6.03
499.961	6
500.163	6.03
500.365	6.11
500.567	6.06
500.769	5.98
500.971	5.98
501.173	6.02
501.375	6.07
501.577	6.1
501.779	6.09
501.981	6.12
502.183	6.1
502.385	6.1
502.587	6.09
502.788	6.17
502.99	6.22
503.192	6.3
503.394	6.31
503.596	6.26
503.798	6.19
503.999	6.16
504.201	6.14
504.403	6.11
504.605	6.21
504.806	6.34
505.008	6.39
505.21	6.4
505.411	6.54
505.613	6.56
505.815	6.51
506.016	6.56
506.218	6.55
506.42	6.53
506.621	6.56
506.823	6.53
507.024	6.52
507.226	6.6
507.427	6.63
507.629	6.61
507.83	6.74
508.032	6.72
508.233	6.73
508.435	6.74
508.636	6.83
508.838	6.81
509.039	6.86
509.24	6.83
509.442	6.82
509.643	6.77
509.845	6.78
510.046	6.82
510.247	6.87
510.448	6.95
510.65	7.02
510.851	7.1
511.052	7.07
511.254	7.13
511.455	7.07
511.656	7
511.857	6.94
512.058	6.98
512.26	6.97
512.461	7.04
512.662	7.1
512.863	7.07
513.064	7.08
513.265	7.03
513.466	7.07
513.667	7.13
513.868	7.13
514.069	7.09
514.27	7.19
514.471	7.16
514.672	7.14
514.873	7.18
515.074	7.22
515.275	7.15
515.476	7.14
515.677	7.17
515.878	7.21
516.079	7.23
516.28	7.32
516.481	7.33
516.682	7.26
516.882	7.24
517.083	7.22
517.284	7.21
517.485	7.21
517.686	7.31
517.886	7.34
518.087	7.36
518.288	7.36
518.488	7.39
518.689	7.3
518.89	7.29
519.091	7.32
519.291	7.28
519.492	7.29
519.692	7.33
519.893	7.35
520.094	7.35
520.294	7.43
520.495	7.37
520.695	7.4
520.896	7.43
521.096	7.41
521.297	7.37
521.497	7.4
521.698	7.44
521.898	7.46
522.099	7.51
522.299	7.48
522.499	7.51
522.7	7.52
522.9	7.52
523.101	7.51
523.301	7.53
523.501	7.52
523.702	7.51
523.902	7.53
524.102	7.62
524.302	7.68
524.503	7.71
524.703	7.71
524.903	7.69
525.103	7.55
525.304	7.53
525.504	7.61
525.704	7.64
525.904	7.56
526.104	7.63
526.304	7.66
526.504	7.64
526.705	7.58
526.905	7.68
527.105	7.69
527.305	7.65
527.505	7.58
527.705	7.65
527.905	7.65
528.105	7.62
528.305	7.67
528.505	7.72
528.705	7.8
528.905	7.8
529.105	7.87
529.304	7.88
529.504	7.92
529.704	7.89
529.904	7.96
530.104	7.93
530.304	7.93
530.503	7.96
530.703	7.92
530.903	7.89
531.103	7.94
531.303	7.96
531.502	7.97
531.702	8.01
531.902	8.09
532.101	8.05
532.301	8.08
532.501	8.14
532.7	8.17
532.9	8.14
533.1	8.23
533.299	8.2
533.499	8.13
533.698	8.13
533.898	8.22
534.097	8.22
534.297	8.29
534.496	8.33
534.696	8.35
534.895	8.3
535.095	8.34
535.294	8.36
535.494	8.4
535.693	8.46
535.892	8.45
536.092	8.44
536.291	8.44
536.491	8.45
536.69	8.44
536.889	8.41
537.088	8.39
537.288	8.41
537.487	8.45
537.686	8.46
537.886	8.56
538.085	8.6
538.284	8.65
538.483	8.61
538.682	8.64
538.882	8.69
539.081	8.69
539.28	8.69
539.479	8.71
539.678	8.73
539.877	8.75
540.076	8.8
540.275	8.83
540.474	8.86
540.673	8.91
540.872	8.89
541.071	8.89
541.27	8.92
541.469	8.99
541.668	8.97
541.867	9.04
542.066	9.12
542.265	9.13
542.464	9.12
542.663	9.27
542.862	9.35
543.06	9.4
543.259	9.54
543.458	9.61
543.657	9.59
543.856	9.61
544.054	9.63
544.253	9.59
544.452	9.62
544.651	9.66
544.849	9.64
545.048	9.67
545.247	9.74
545.445	9.76
545.644	9.86
545.843	9.9
546.041	9.9
546.24	9.93
546.438	10.02
546.637	10.01
546.836	10.04
547.034	10.1
547.233	10.19
547.431	10.16
547.63	10.17
547.828	10.25
548.027	10.3
548.225	10.27
548.423	10.34
548.622	10.41
548.82	10.42
549.019	10.41
549.217	10.53
549.415	10.55
549.614	10.62
549.812	10.73
550.01	10.81
550.209	10.83
550.407	10.96
550.605	10.92
550.803	10.99
551.002	11.11
551.2	11.13
551.398	11.22
551.596	11.29
551.794	11.32
551.993	11.37
552.191	11.46
552.389	11.49
552.587	11.59
552.785	11.64
552.983	11.72
553.181	11.78
553.379	11.81
553.577	11.92
553.775	12
553.973	12.09
554.171	12.16
554.369	12.29
554.567	12.34
554.765	12.38
554.963	12.37
555.161	12.4
555.359	12.43
555.557	12.5
555.755	12.61
555.952	12.76
556.15	12.88
556.348	12.92
556.546	13.02
556.744	13.04
556.941	12.99
557.139	13.06
557.337	13.21
557.535	13.21
557.732	13.26
557.93	13.42
558.128	13.53
558.325	13.62
558.523	13.79
558.721	13.94
558.918	14.09
559.116	14.27
559.313	14.39
559.511	14.47
559.708	14.61
559.906	14.68
560.104	14.65
560.301	14.7
560.498	14.77
560.696	14.72
560.893	14.73
561.091	14.85
561.288	15.04
561.486	15.07
561.683	15.29
561.88	15.4
562.078	15.46
562.275	15.53
562.473	15.67
562.67	15.71
562.867	15.86
563.064	16.02
563.262	16.06
563.459	16.19
563.656	16.3
563.853	16.33
564.051	16.44
564.248	16.48
564.445	16.52
564.642	16.67
564.839	16.76
565.036	16.81
565.234	16.96
565.431	17.09
565.628	17.13
565.825	17.31
566.022	17.34
566.219	17.39
566.416	17.44
566.613	17.54
566.81	17.61
567.007	17.72
567.204	17.77
567.401	17.84
567.598	17.98
567.795	18.02
567.991	18.07
568.188	18.19
568.385	18.21
568.582	18.27
568.779	18.29
568.976	18.41
569.172	18.49
569.369	18.67
569.566	18.75
569.763	18.86
569.96	18.95
570.156	18.99
570.353	19
570.55	18.98
570.746	19.06
570.943	19.13
571.14	19.16
571.336	19.27
571.533	19.37
571.729	19.39
571.926	19.43
572.123	19.6
572.319	19.63
572.516	19.72
572.712	19.77
572.909	19.71
573.105	19.73
573.302	19.76
573.498	19.74
573.695	19.77
573.891	19.93
574.087	19.89
574.284	19.94
574.48	19.99
574.677	20.06
574.873	20.05
575.069	20.17
575.266	20.22
575.462	20.18
575.658	20.28
575.854	20.29
576.051	20.31
576.247	20.22
576.443	20.33
576.639	20.27
576.835	20.29
577.032	20.2
577.228	20.31
577.424	20.27
577.62	20.28
577.816	20.36
578.012	20.45
578.208	20.48
578.404	20.48
578.6	20.56
578.796	20.57
578.993	20.59
579.189	20.64
579.384	20.73
579.58	20.67
579.776	20.63
579.972	20.64
580.168	20.63
580.364	20.65
580.56	20.61
580.756	20.61
580.952	20.57
581.148	20.55
581.343	20.56
581.539	20.65
581.735	20.73
581.931	20.69
582.127	20.61
582.322	20.52
582.518	20.49
582.714	20.43
582.909	20.54
583.105	20.56
583.301	20.6
583.496	20.61
583.692	20.52
583.888	20.37
584.083	20.41
584.279	20.32
584.474	20.25
584.67	20.27
584.866	20.27
585.061	20.21
585.257	20.2
585.452	20.32
585.648	20.25
585.843	20.28
586.039	20.34
586.234	20.37
586.429	20.32
586.625	20.47
586.82	20.46
587.015	20.45
587.211	20.49
587.406	20.49
587.601	20.41
587.797	20.47
587.992	20.41
588.187	20.4
588.383	20.36
588.578	20.36
588.773	20.34
588.968	20.39
589.163	20.41
589.359	20.36
589.554	20.45
589.749	20.48
589.944	20.58
590.139	20.57
590.334	20.74
590.529	20.76
590.724	20.82
590.919	20.76
591.114	20.84
591.309	20.77
591.504	20.66
591.699	20.68
591.894	20.6
592.089	20.55
592.284	20.61
592.479	20.79
592.674	20.86
592.869	20.91
593.064	21.03
593.259	21.13
593.454	21.13
593.648	21.15
593.843	21.28
594.038	21.34
594.233	21.31
594.428	21.4
594.622	21.57
594.817	21.66
595.012	21.62
595.206	21.73
595.401	21.82
595.596	21.76
595.79	21.78
595.985	21.92
596.18	22.02
596.374	22.12
596.569	22.19
596.763	22.35
596.958	22.46
597.153	22.48
597.347	22.5
597.542	22.6
597.736	22.69
597.931	22.67
598.125	22.73
598.319	22.74
598.514	22.72
598.708	22.76
598.903	22.86
599.097	22.94
599.291	23.03
599.486	23.08
599.68	23.16
599.874	23.18
600.069	23.26
600.263	23.32
600.457	23.53
600.651	23.51
600.846	23.63
601.04	23.59
601.234	23.56
601.428	23.49
601.622	23.57
601.817	23.54
602.011	23.64
602.205	23.76
602.399	23.73
602.593	23.74
602.787	23.75
602.981	23.72
603.175	23.77
603.369	23.77
603.563	23.85
603.757	23.89
603.951	23.91
604.145	23.88
604.339	23.88
604.533	23.78
604.727	23.77
604.921	23.78
605.115	23.74
605.309	23.68
605.502	23.74
605.696	23.82
605.89	23.83
606.084	23.79
606.278	23.87
606.471	23.81
606.665	23.63
606.859	23.58
607.053	23.45
607.246	23.36
607.44	23.27
607.634	23.3
607.827	23.15
608.021	23.19
608.214	23.17
608.408	23.12
608.602	22.95
608.795	23.06
608.989	23.02
609.182	22.96
609.376	22.86
609.569	22.93
609.763	22.79
609.956	22.75
610.15	22.72
610.343	22.77
610.537	22.62
610.73	22.49
610.923	22.4
611.117	22.36
611.31	22.23
611.504	22.21
611.697	22.19
611.89	22.08
612.083	21.9
612.277	21.79
612.47	21.66
612.663	21.62
612.856	21.57
613.05	21.6
613.243	21.55
613.436	21.61
613.629	21.47
613.822	21.42
614.015	21.26
614.209	21.2
614.402	21
614.595	21
614.788	20.97
614.981	20.95
615.174	20.91
615.367	20.82
615.56	20.7
615.753	20.67
615.946	20.59
616.139	20.5
616.332	20.51
616.525	20.51
616.718	20.39
616.911	20.33
617.103	20.34
617.296	20.33
617.489	20.2
617.682	20.21
617.875	20.21
618.067	20.09
618.26	19.96
618.453	19.95
618.646	19.91
618.838	19.84
619.031	19.81
619.224	19.8
619.417	19.8
619.609	19.76
619.802	19.73
619.994	19.75
620.187	19.67
620.38	19.58
620.572	19.48
620.765	19.51
620.957	19.38
621.15	19.32
621.342	19.35
621.535	19.35
621.727	19.21
621.92	19.23
622.112	19.28
622.305	19.18
622.497	19.19
622.69	19.21
622.882	19.29
623.074	19.36
623.267	19.42
623.459	19.28
623.651	19.25
623.844	19.16
624.036	19.12
624.228	19.07
624.42	19.04
624.613	19.02
624.805	19.07
624.997	19.03
625.189	19.02
625.381	19.04
625.574	18.98
625.766	18.85
625.958	18.82
626.15	18.81
626.342	18.78
626.534	18.83
626.726	18.86
626.918	18.81
627.11	18.7
627.302	18.75
627.494	18.71
627.686	18.62
627.878	18.56
628.07	18.65
628.262	18.54
628.454	18.43
628.646	18.38
628.838	18.42
629.029	18.24
629.221	18.25
629.413	18.17
629.605	18.21
629.797	18.11
629.989	18.15
630.18	18.16
630.372	18.23
630.564	18.23
630.755	18.19
630.947	18.15
631.139	18.09
631.33	18.04
631.522	17.94
631.714	17.9
631.905	17.9
632.097	17.81
632.289	17.79
632.48	17.75
632.672	17.78
632.863	17.66
633.055	17.72
633.246	17.71
633.438	17.73
633.629	17.76
633.821	17.82
634.012	17.79
634.203	17.74
634.395	17.7
634.586	17.68
634.777	17.66
634.969	17.6
635.16	17.6
635.351	17.54
635.543	17.45
635.734	17.43
635.925	17.5
636.117	17.52
636.308	17.54
636.499	17.54
636.69	17.57
636.881	17.51
637.073	17.46
637.264	17.47
637.455	17.49
637.646	17.43
637.837	17.42
638.028	17.41
638.219	17.4
638.41	17.42
638.601	17.45
638.792	17.43
638.983	17.41
639.174	17.39
639.365	17.32
639.556	17.18
639.747	17.16
639.938	17.25
640.129	17.16
640.32	17.15
640.511	17.18
640.701	17.19
640.892	17.11
641.083	17.1
641.274	17.09
641.465	17.12
641.655	17.05
641.846	17.07
642.037	17.04
642.228	17
642.418	16.93
642.609	16.94
642.8	16.83
642.99	16.86
643.181	16.83
643.372	16.83
643.562	16.83
643.753	16.87
643.943	16.73
644.134	16.67
644.324	16.7
644.515	16.65
644.705	16.61
644.896	16.77
645.086	16.83
645.277	16.77
645.467	16.73
645.658	16.65
645.848	16.59
646.038	16.47
646.229	16.47
646.419	16.4
646.61	16.42
646.8	16.35
646.99	16.42
647.18	16.35
647.371	16.39
647.561	16.32
647.751	16.31
647.941	16.27
648.132	16.24
648.322	16.16
648.512	16.26
648.702	16.3
648.892	16.28
649.082	16.27
649.272	16.33
649.462	16.25
649.653	16.13
649.843	16.05
650.033	16
650.223	15.9
650.413	15.87
650.603	15.92
650.793	15.93
650.983	15.89
651.172	15.86
651.362	15.71
651.552	15.6
651.742	15.55
651.932	15.53
652.122	15.55
652.312	15.61
652.502	15.51
652.691	15.44
652.881	15.33
653.071	15.22
653.261	15.1
653.45	15.06
653.64	14.95
653.83	14.85
654.019	14.72
654.209	14.64
654.399	14.48
654.588	14.36
654.778	14.31
654.968	14.11
655.157	14
655.347	13.97
655.536	13.85
655.726	13.6
655.915	13.63
656.105	13.46
656.294	13.29
656.484	13.1
656.673	13.09
656.863	12.95
657.052	12.8
657.241	12.67
657.431	12.61
657.62	12.48
657.809	12.2
657.999	12.08
658.188	11.96
658.377	11.85
658.567	11.66
658.756	11.6
658.945	11.42
659.134	11.21
659.324	11.03
659.513	10.88
659.702	10.69
659.891	10.57
660.08	10.44
660.269	10.27
660.458	10.19
660.648	10.09
660.837	9.99
661.026	9.84
661.215	9.78
661.404	9.56
661.593	9.51
661.782	9.34
661.971	9.17
662.16	9
662.349	8.8
662.538	8.63
662.726	8.58
662.915	8.6
663.104	8.45
663.293	8.51
663.482	8.4
663.671	8.24
663.86	8.07
664.048	8.07
664.237	7.95
664.426	7.9
664.615	7.83
664.803	7.78
664.992	7.69
665.181	7.59
665.369	7.44
665.558	7.38
665.747	7.39
665.935	7.35
666.124	7.42
666.312	7.44
666.501	7.49
666.69	7.38
666.878	7.36
667.067	7.18
667.255	7.17
667.444	7.1
667.632	7.11
667.82	7.01
668.009	7.06
668.197	7.01
668.386	6.96
668.574	6.89
668.762	6.86
668.951	6.86
669.139	6.77
669.327	6.72
669.516	6.72
669.704	6.74
669.892	6.67
670.08	6.67
670.269	6.64
670.457	6.63
670.645	6.65
670.833	6.63
671.021	6.7
671.21	6.79
671.398	6.82
671.586	6.84
671.774	7.01
671.962	7.04
672.15	7.05
672.338	7.08
672.526	7.05
672.714	7.05
672.902	7.09
673.09	7.16
673.278	7.2
673.466	7.29
673.654	7.24
673.842	7.32
674.03	7.31
674.218	7.3
674.405	7.39
674.593	7.51
674.781	7.45
674.969	7.53
675.157	7.69
675.344	7.7
675.532	7.63
675.72	7.73
675.908	7.67
676.095	7.67
676.283	7.72
676.471	7.83
676.658	7.91
676.846	8.08
677.033	8.14
677.221	8.22
677.409	8.34
677.596	8.36
677.784	8.45
677.971	8.5
678.159	8.5
678.346	8.5
678.534	8.73
678.721	8.77
678.909	8.88
679.096	8.98
679.283	9.14
679.471	9.15
679.658	9.3
679.846	9.22
680.033	9.57
680.22	9.67
680.408	9.64
680.595	9.7
680.782	9.96
680.969	9.91
681.157	9.97
681.344	10.2
681.531	10.38
681.718	10.48
681.905	10.66
682.093	10.95
682.28	11.19
682.467	11.39
682.654	11.57
682.841	11.64
683.028	11.67
683.215	11.88
683.402	11.92
683.589	12.14
683.776	12.31
683.963	12.51
684.15	12.57
684.337	12.85
684.524	13.07
684.711	13.33
684.898	13.52
685.085	13.71
685.271	13.95
685.458	14.07
685.645	14.26
685.832	14.55
686.019	14.78
686.205	15.05
686.392	15.51
686.579	15.83
686.766	16.15
686.952	16.55
687.139	16.91
687.326	17.24
687.512	17.46
687.699	17.92
687.886	18.25
688.072	18.42
688.259	18.78
688.445	19.4
688.632	19.77
688.818	20.39
689.005	21
689.191	21.51
689.378	21.88
689.564	22.36
689.751	22.85
689.937	23.52
690.124	24
690.31	24.47
690.496	25.05
690.683	25.63
690.869	26.01
691.055	26.54
691.242	27.18
691.428	27.76
691.614	28.3
691.8	29.02
691.987	29.9
692.173	30.47
692.359	31.23
692.545	31.83
692.731	32.47
692.918	32.82
693.104	33.62
693.29	34.23
693.476	34.86
693.662	35.31
693.848	36.04
694.034	36.65
694.22	37.23
694.406	37.86
694.592	38.7
694.778	39.13
694.964	39.86
695.15	40.37
695.336	41.08
695.522	41.75
695.708	42.74
695.894	43.47
696.08	44.37
696.265	45.08
696.451	45.57
696.637	46.33
696.823	46.89
697.009	47.51
697.194	48.03
697.38	48.64
697.566	49.02
697.751	49.53
697.937	50.1
698.123	50.63
698.308	51.33
698.494	52.02
698.68	52.57
698.865	52.94
699.051	53.61
699.236	54.13
699.422	54.61
699.607	55.36
699.793	56.32
699.978	56.58
700.164	57.07
700.349	57.4
700.535	57.49
700.72	57.51
700.906	58.18
701.091	58.54
701.276	59.06
701.462	59.83
701.647	60.46
701.832	60.91
702.018	61.61
702.203	62.08
702.388	62.31
702.573	62.61
702.759	63.14
702.944	63.17
703.129	63.36
703.314	63.62
703.499	63.76
703.684	63.9
703.87	64.22
704.055	64.5
704.24	65.03
704.425	65.73
704.61	66.21
704.795	67.11
704.98	67.48
705.165	67.65
705.35	67.78
705.535	68.24
705.72	67.86
705.905	68.37
706.09	69
706.275	69.12
706.459	69.05
706.644	69.51
706.829	69.76
707.014	69.56
707.199	70.2
707.384	70.34
707.568	70.51
707.753	70.84
707.938	71.25
708.123	71.22
708.307	71.58
708.492	72.08
708.677	71.98
708.861	72.33
709.046	72.2
709.231	72.12
709.415	71.94
709.6	72.37
709.784	72.62
709.969	73.09
710.153	73.1
710.338	73.56
710.522	73.58
710.707	73.34
710.891	73.36
711.076	73.84
711.26	74.08
711.445	74.23
711.629	74.28
711.813	74.58
711.998	74.38
712.182	74.03
712.366	74.56
712.551	74.78
712.735	74.88
712.919	75.74
713.103	76.4
713.288	76.31
713.472	76.88
713.656	77.13
713.84	76.96
714.024	77.12
714.208	76.75
714.393	76.77
714.577	77.02
714.761	77.04
714.945	76.69
715.129	77.28
715.313	77.23
715.497	76.9
715.681	76.62
715.865	76.99
716.049	76.77
716.233	76.38
716.417	76.42
716.601	76.97
716.785	77.01
716.968	76.85
717.152	77.46
717.336	77.99
717.52	78.19
717.704	78.31
717.888	78.87
718.071	79.15
718.255	79.2
718.439	78.92
718.622	78.97
718.806	78.83
718.99	78.45
719.174	78.58
719.357	79.42
719.541	79.65
719.724	79.85
719.908	79.85
720.092	79.68
720.275	79.28
720.459	79.06
720.642	79.6
720.826	79.59
721.009	79.48
721.193	78.94
721.376	79.44
721.559	79
721.743	79.38
721.926	79.93
722.11	80.87
722.293	80.93
722.476	81
722.66	81.7
722.843	81.42
723.026	81.53
723.21	81.41
723.393	82.04
723.576	81.31
723.759	81.45
723.942	81.4
724.126	81.38
724.309	80.55
724.492	80.66
724.675	80.84
724.858	81
725.041	80.92
725.224	81.56
725.407	81.97
725.59	82.09
725.774	81.76
725.957	82.21
726.14	82.45
726.322	82.28
726.505	82.37
726.688	82.77
726.871	82.7
727.054	82.47
727.237	82.5
727.42	82.12
727.603	82.01
727.786	82.29
727.968	82.11
728.151	82.43
728.334	83.02
728.517	83.2
728.699	83.29
728.882	83.26
729.065	83.16
729.248	82.99
729.43	82.84
729.613	83.02
729.796	83.45
729.978	83.42
730.161	83.1
730.343	83.6
730.526	83.04
730.708	82.92
730.891	83.24
731.073	83.88
731.256	83.14
731.438	84.14
731.621	84.3
731.803	84.28
731.986	84.61
732.168	85.48
732.35	85.24
732.533	84.98
732.715	85.16
732.898	84.38
733.08	84.18
733.262	83.71
733.444	84.8
733.627	84.55
733.809	85.22
733.991	85.55
734.173	85.28
734.355	84.24
734.538	84.99
734.72	84.97
734.902	85.09
735.084	85.53
735.266	86.38
735.448	86.22
735.63	87.04
735.812	87.07
735.994	87.01
736.176	86.73
736.358	87.18
736.54	87.07
736.722	86.52
736.904	86.51
737.086	86.44
737.268	86.21
737.45	86.52
737.632	86.63
737.814	87.38
737.995	87.95
738.177	88.2
738.359	87.92
738.541	88.28
738.723	88.1
738.904	88.06
739.086	87.83
739.268	87.67
739.449	87.5
739.631	87.68
739.813	87.17
739.994	86.29
740.176	85.76
740.358	86.19
740.539	85.8
740.721	86.43
740.902	87.02
741.084	87.48
741.265	87.67
741.447	88.38
741.628	88.25
741.81	88.94
741.991	89
742.172	88.62
742.354	88.08
742.535	88.15
742.717	87
742.898	87.1
743.079	87.98
743.261	88.21
743.442	86.95
743.623	87.6
743.804	86.97
743.986	86.65
744.167	85.85
744.348	86.39
744.529	86.93
744.71	87.41
744.891	86.12
745.073	87.52
745.254	87.71
745.435	87.47
745.616	86.69
745.797	87.03
745.978	86.85
746.159	87.04
746.34	86.97
746.521	87.9
746.702	88.39
746.883	88.04
747.064	88.49
747.245	88.9
747.426	88.32
747.606	88.22
747.787	87.78
747.968	87.14
748.149	85.99
748.33	86.5
748.51	85.49
748.691	85.62
748.872	87.05
749.053	87.16
749.233	86.29
749.414	87.77
749.595	87.89
749.775	86.21
749.956	86.87
750.137	86.89
750.317	85.74
750.498	85.76
750.678	86.48
750.859	87.06
751.04	87.81
751.22	87.13
751.4	87.23
751.581	86.05
751.761	85.64
751.942	86.02
752.122	86.55
752.303	86.59
752.483	88.03
752.663	86.7
752.844	86.28
753.024	87.93
753.204	87.7
753.385	87.32
753.565	88.51
753.745	86.82
753.925	85.03
754.106	84.8
754.286	83.73
754.466	83.8
754.646	84.41
754.826	86.39
755.006	86.05
755.187	88.02
755.367	86.84
755.547	88.26
755.727	87.23
755.907	87.25
756.087	85.64
756.267	84.65
756.447	84.65
756.627	83.84
756.807	85.25
756.987	84.68
757.167	85.85
757.346	85.28
757.526	86.14
757.706	85.42
757.886	86.86
758.066	87.65
758.246	87.53
758.425	86.91
758.605	85.86
758.785	86.01
758.965	86.64
759.144	84.75
759.324	85.54
759.504	86.25
759.683	85.97
759.863	85.58
760.043	86.28
760.222	85.95
760.402	84.97
760.581	85.09
760.761	85
760.94	86.24
761.12	86.68
761.299	88.32
761.479	87.63
761.658	86.06
761.838	86.4
762.017	85.65
762.197	83.23
762.376	83.12
762.555	84.83
762.735	85.55
762.914	84.99
763.093	86.54
763.273	87.47
763.452	86.17
763.631	84.6
763.81	85.44
763.99	84.39
764.169	84.24
764.348	84.17
764.527	84.64
764.706	84.59
764.885	86.41
765.064	85.94
765.243	85.3
765.423	86.4
765.602	86.65
765.781	84.37
765.96	82.66
766.139	84.47
766.318	84.68
766.497	83.26
766.676	82.88
766.854	84.73
767.033	84.05
767.212	82.97
767.391	85.05
767.57	87.05
767.749	86.87
767.928	86.1
768.106	85.23
768.285	81.93
768.464	81.75
768.643	81.24
768.821	80.66
769	80.52
769.179	82
769.357	81.64
769.536	81.34
769.715	81.39
769.893	81.62
770.072	80.79
770.25	80.3
770.429	80.42
770.607	81.6
770.786	81.27
770.964	83.3
771.143	83.33
771.321	82.55
771.5	83.24
771.678	83.27
771.857	79.91
772.035	80.89
772.213	81.16
772.392	80.09
772.57	79.66
772.748	81.17
772.927	80.77
773.105	81.75
773.283	81.19
773.461	83.83
773.64	82.34
773.818	82.56
773.996	83.12
774.174	84.29
774.352	80.97
774.531	81.89
774.709	80.81
774.887	79.28
775.065	78.23
775.243	79.99
775.421	80.77
775.599	80.17
775.777	78.07
775.955	77.88
776.133	78.18
776.311	76.83
776.489	76.81
776.667	80.05
776.844	81.55
777.022	79.06
777.2	80.29
777.378	80.9
777.556	79.8
777.734	80.69
777.911	81.64
778.089	84.28
778.267	84.75
778.445	86.65
778.622	83.19
778.8	81.89
778.978	80.01
779.155	80.2
779.333	80.69
779.511	81.9
779.688	80.26
779.866	80.31
780.043	80.26
780.221	77.73
780.398	77.3
780.576	81.81
780.753	80.46
780.931	80.19
781.108	82.82
781.286	85.31
781.463	83.75
781.64	83.09
781.818	85.7
781.995	82.91
782.172	79.37
782.35	81.51
782.527	81.49
782.704	79.93
782.882	77.68
783.059	77.95
783.236	75.73
783.413	76.34
783.59	73.2
783.768	74.89
783.945	74.29
784.122	74.81
784.299	73.78
784.476	75.45
784.653	75.65
784.83	74.55
785.007	74.3
785.184	74.63
785.361	75.95
785.538	75.82
785.715	78.88
785.892	80.83
786.069	83.1
786.246	82.27
786.423	84.45
786.6	85.03
786.776	81.88
786.953	79.04
787.13	77.79
787.307	73.94
787.484	68.76
787.66	68.35
787.837	69.37
788.014	71.57
788.191	70.85
788.367	74.81
788.544	74.88
788.721	77.4
788.897	77.26
789.074	80.04
789.25	79.81
789.427	80.75
789.603	75.9
789.78	73.41
789.956	71.79
790.133	69.36
790.309	69.16
790.486	70.79
790.662	71.07
790.839	72.49
791.015	72.83
791.192	71.5
791.368	70.48
791.544	70.62
791.721	69.26
791.897	69.96
792.073	68.58
792.249	69.3
792.426	71.49
792.602	73.97
792.778	76.52
792.954	77.52
793.13	77.52
793.307	75.46
793.483	70.83
793.659	67.71
793.835	70.3
794.011	71.94
794.187	72.75
794.363	75.95
794.539	80.86
794.715	79.85
794.891	78.39
795.067	77.62
795.243	80.23
795.419	76.69
795.595	81.44
795.771	80.63
795.947	80.34
796.122	74.14
796.298	69.84
796.474	66.59
796.65	68.07
796.826	65.07
797.001	63.84
797.177	68.47
797.353	66.08
797.529	66.77
797.704	69.97
797.88	74.52
798.056	73.98
798.231	75.45
798.407	73.36
798.582	71.93
798.758	74.07
798.934	74.46
799.109	72.57
799.285	74.35
799.46	74.53
799.636	70.91
799.811	69.73
799.986	70.26
800.162	64.1
800.337	66.12
800.513	66.58
800.688	63.29
800.863	69.15
801.039	74.84
801.214	75.52
801.389	74.13
801.565	75.19
801.74	68.26
801.915	70.06
802.09	67.34
802.265	67.79
802.441	66.31
802.616	68.47
802.791	67.33
802.966	66.63
803.141	66.5
803.316	71.85
803.491	68.39
803.666	68.91
803.841	66.01
804.016	66.25
804.191	68.1
804.366	70.74
804.541	71.49
804.716	77.55
804.891	75.48
805.066	72.55
805.241	65.82
805.416	67.78
805.591	68.34
805.765	70.5
805.94	65.23
806.115	74.27
806.29	68.99
806.464	63.19
806.639	63.08
806.814	68.39
806.989	69.34
807.163	80.5
807.338	84.2
807.512	84.18
807.687	79.28
807.862	76.46
808.036	72.01
808.211	76.13
808.385	74.06
808.56	72.69
808.734	66.97
808.909	59.41
809.083	55.15
809.258	62.06
809.432	67.19
809.606	70.27
809.781	63.54
809.955	65.98
810.13	56.79
810.304	55.5
810.478	59.08
810.652	65.27
810.827	61.89
811.001	62.46
811.175	65.55
811.349	67.31
811.524	70.52
811.698	69.1
811.872	75.74
812.046	74.17
812.22	65.44
812.394	63.58
812.568	66.95
812.742	60.29
812.916	65.04
813.09	67.12
813.264	62.11
813.438	61.99
813.612	60.13
813.786	51.86
813.96	58.45
814.134	64.71
814.308	68.56
814.482	70.74
814.656	67.81
814.83	62.18
815.003	51.01
815.177	48.23
815.351	50.23
815.525	61.34
815.698	59.46
815.872	59.31
816.046	51.87
816.219	55.7
816.393	52.11
816.567	53.49
816.74	64.07
816.914	75.7
817.088	76.4
817.261	70.57
817.435	73.74
817.608	66.74
817.782	66.33
817.955	60.14
818.129	63.89
818.302	57.85
818.475	58.84
818.649	58.03
818.822	52.6
818.996	58.4
819.169	73.53
819.342	74.15
819.516	80.48
819.689	83.73
819.862	75.64
820.035	69.92
820.209	71.91
820.382	51.59
820.555	49.08
820.728	55.4
820.901	48.1
821.075	46.45
821.248	60.2
821.421	64.41
821.594	55.94
821.767	59.95
821.94	53.62
822.113	55.7
822.286	52.52
822.459	59.92
822.632	66.74
822.805	75.98
822.978	78.94
823.151	80.79
823.324	72.62
823.496	60.17
823.669	62.31
823.842	60.52
824.015	54.12
824.188	45.88
824.361	51.77
824.533	51.58
824.706	46.83
824.879	63.9
825.051	86.22
825.224	91.51
825.397	81.47
825.569	81.19
825.742	76.64
825.915	68.85
826.087	63.71
826.26	63.71
826.432	56.8
826.605	51.21
826.777	48.71
826.95	41.48
827.122	33.25
827.295	55.31
827.467	51.69
827.64	40.13
827.812	49.55
827.984	59.29
828.157	22.17
828.329	39.08
828.501	33.01
828.674	30.94
828.846	27.93
829.018	46.5
829.19	44.51
829.363	53.01
829.535	67.31
829.707	62.95
829.879	51.65
830.051	45.28
830.223	48.94
830.395	33.45
830.568	42.36
830.74	51.07
830.912	54.89
831.084	59.69
831.256	60.17
831.428	58.7
831.6	48.98
831.772	44.89
831.943	17.81
832.115	27.01
832.287	38.2
832.459	42.42
832.631	47.9
832.803	60.89
832.975	57.6
833.146	46.65
833.318	50.01
833.49	53.77
833.662	64.74
833.833	69.03
834.005	81.99
834.177	87.38
834.348	79.74
834.52	62.42
834.692	55.05
834.863	52.72
835.035	45.95
835.206	43.87
835.378	47.74
835.549	47.05
835.721	40.07
835.892	36.37
836.064	31.33
836.235	24.5
836.407	28.37
836.578	36.84
836.749	27.53
836.921	39.77
837.092	47.56
837.264	43.59
837.435	35.9
837.606	46.21
837.777	43.24
837.949	47.93
838.12	53.44
838.291	50.97
838.462	49.01
838.633	57.65
838.805	46.53
838.976	44.63
839.147	50.32
839.318	56.46
839.489	44.45
839.66	51.21
839.831	44.63
840.002	45.18
840.173	40.41
840.344	40.75
840.515	33.68
840.686	40.76
840.857	44.85
841.028	55.73
841.199	63.24
841.369	74.91
841.54	83.75
841.711	88.44
841.882	78.68
842.053	58.36
842.223	42.38
842.394	46.11
842.565	26.78
842.736	21.07
842.906	19.1
843.077	35.75
843.248	46.98
843.418	52.85
843.589	62.3
843.759	70.68
843.93	70.8
844.101	65.73
844.271	80.76
844.442	83.05
844.612	79.12
844.783	67.33
844.953	59.45
845.123	51.99
845.294	37.14
845.464	34.95
845.635	41.85
845.805	48.4
845.975	72.38
846.146	57.2
846.316	49.1
846.486	55.38
846.656	27.37
846.827	24.96
846.997	39.7
847.167	34.94
847.337	31.72
847.507	51.91
847.677	48.5
847.848	58.69
848.018	75.04
848.188	73.89
848.358	62.74
848.528	66.2
848.698	46.47
848.868	39.9
849.038	28.79
849.208	41.57
849.378	47.35
849.548	32.43
849.718	8.73
849.887	-10.82
850.057	0.41
850.227	14.99
850.397	17.69
850.567	15.04
850.737	54.51
850.906	27.19
851.076	0.02
851.246	52.32
851.415	60.95
851.585	53.6
851.755	64.78
851.924	78.12
852.094	48.12
852.264	43.9
852.433	31.44
852.603	16.52
852.772	15.12
852.942	41.37
853.111	30.94
853.281	30.4
853.45	35.2
853.62	21.07
853.789	-5.82
853.959	7.9
854.128	12.14
854.297	20.72
854.467	31.3
854.636	37.42
854.805	29.25
854.975	40.85
855.144	27.81
855.313	29.09
855.482	40.64
855.652	50.17
855.821	19.07
855.99	7.65
856.159	-23.58
856.328	-52.96
856.497	-15.26
856.667	-7.86
856.836	33.14
857.005	70.21
857.174	69.13
857.343	48.45
857.512	49.89
857.681	19.69
857.85	7.24
858.019	-7.81
858.188	-18.82
858.356	-8.9
858.525	7.35
858.694	17.13
858.863	27.42
859.032	38.7
859.201	10.16
859.369	3.71
859.538	23.5
859.707	5.35
859.876	34.7
860.044	59.15
860.213	60.19
860.382	45
860.55	31.59
860.719	24.77
860.888	7.71
861.056	-2.01
861.225	-13.87
861.393	-12.06
861.562	-36.98
861.73	-17.05
861.899	-27.35
862.067	-44.83
862.236	-5.36
862.404	6.2
862.572	-17.55
862.741	-14.81
862.909	12.44
863.078	20.35
863.246	20.42
863.414	32.11
863.582	43.48
863.751	33.64
863.919	22.39
864.087	31.47
864.255	66.03
864.424	33.22
864.592	39.33
864.76	11.17
864.928	16.01
865.096	-2.41
865.264	14.85
865.432	48.28
865.6	90.84
865.768	83.26
865.936	80.67
866.104	92.95
866.272	78.33
866.44	75.01
866.608	55.4
866.776	56.96
866.944	74.92
867.112	76.54
867.28	54.69
867.448	39.92
867.615	35.55
867.783	5.05
867.951	0.72
868.119	-8.24
868.286	36.84
868.454	7.76
868.622	-2.78
868.789	-12.08
868.957	3.82
869.125	5.73
869.292	1.94
869.46	39.52
869.627	32.01
869.795	-9.41
869.963	-9.09
870.13	-8.46
870.298	-28.35
870.465	-9.29
870.632	20.84
870.8	35.64
870.967	25.4
871.135	21.04
871.302	13.05
871.469	16.89
871.637	-10.37
871.804	27.64
871.971	45.07
872.139	56.01
872.306	13.47
872.473	10.96
872.64	-84.26
872.807	-141.03
872.975	-211.55
873.142	-24.69
873.309	-44.28
873.476	26.33
873.643	58.61
873.81	34.39
873.977	18.58
874.144	56.07
874.311	20.04
874.478	-18.53
874.645	-78.65
874.812	4.51
874.979	-15.95
875.146	-9.15
875.313	9.49
875.48	57.37
875.647	46.33
875.813	31.63
875.98	24.51
876.147	-12.25
876.314	-1.05
876.481	-5.17
876.647	36.31
876.814	33.44
876.981	59.45
877.147	60.45
877.314	62.78
877.481	54.33
877.647	50.48
877.814	28.99
877.98	29.95
878.147	75.84
878.314	87.03
878.48	83.09
878.647	80.94
878.813	83.18
878.979	49.3
879.146	60.36
879.312	70.05
879.479	42.6
879.645	50.15
879.811	30.36
879.978	26.85
880.144	32.2
880.31	51.9
880.477	36.41
880.643	23.69
880.809	-53.26
880.975	-89.96
881.142	-197.29
881.308	560.3
881.474	868.31
881.64	-170.46
881.806	-152.1
881.972	-65.42
882.138	-6.82
882.304	33.11
882.47	47.34
882.636	4.1
882.802	11.61
882.968	27.69
883.134	13.9
883.3	-7.08
883.466	58.5
883.632	80.39
883.798	75.69
883.964	60.04
884.129	335.81
884.295	139.1
884.461	69.77
884.627	46.04
884.793	60.5
884.958	52.94
885.124	23.98
885.29	6.12
885.455	-35.59
885.621	-41.11
885.787	-22.38
885.952	-39.14
886.118	0.63
886.283	-0.62
886.449	-7.11
886.614	-19.55
886.78	-10.91
886.945	-33.44
887.111	2.35
887.276	32.92
887.442	37.37
887.607	60.13
887.773	47.27
887.938	10.37
888.103	2.16
888.269	21.27
888.434	18.07
888.599	16.34
888.764	42.92
888.93	50.32
889.095	34.12
889.26	12.9
889.425	10.48
889.59	20.42
889.756	-16.36
889.921	-17.5
890.086	-42
890.251	-5.42
890.416	-35.89
890.581	-67.77
890.746	0.97
890.911	25.15
891.076	16.15
891.241	22.07
891.406	40.62
891.571	40.66
891.736	44.62
891.901	48.86
892.065	48.29
892.23	51.9
892.395	37.58
892.56	23.55
892.725	43.59
892.889	147.77
893.054	88.01
893.219	25.42
893.384	-3.81
893.548	-82.91
893.713	-189.69
893.878	-328.25
