Data from Ofra_PS_T2_2A_1GT37_Reflection_3.txt Node
Date: Wed Jul 21 16:54:43 EDT 2021
User: Adam
Spectrometer: FLMT01687
Trigger mode: 0
Integration Time (sec): 1.100000E0
Scans to average: 2
Electric dark correction enabled: true
Nonlinearity correction enabled: false
Boxcar width: 2
XAxis mode: Wavelengths
Number of Pixels in Spectrum: 3648
>>>>>Begin Spectral Data<<<<<
179.494	478
179.716	548.94
179.937	573.29
180.158	548.12
180.38	970.94
180.601	419.06
180.823	100.38
181.044	-62.8
181.265	-64.34
181.486	-47.59
181.708	-36.14
181.929	-301.02
182.15	372.54
182.372	23.48
182.593	-94.95
182.814	-75.82
183.035	-43.22
183.257	-25.62
183.478	-33.09
183.699	6.83
183.92	-0.36
184.141	10.54
184.363	5.11
184.584	30.37
184.805	45.94
185.026	76.55
185.247	70.46
185.468	51.44
185.689	61.93
185.91	75.29
186.132	57.67
186.353	54.26
186.574	96.42
186.795	56.16
187.016	16.96
187.237	5.65
187.458	-39.42
187.679	-56.04
187.9	-14.98
188.121	-9.68
188.342	-19.39
188.563	43.02
188.784	28.2
189.005	14.21
189.226	35.29
189.447	42.73
189.667	-146.84
189.888	-166.75
190.109	-521.43
190.33	-417.74
190.551	-857.08
190.772	-175.67
190.993	-131.62
191.214	-132.86
191.434	-74.47
191.655	-27.55
191.876	-68.12
192.097	-128.93
192.318	-162.81
192.538	-247.07
192.759	-113.56
192.98	-42.69
193.201	13.94
193.421	32.06
193.642	43.57
193.863	42.94
194.083	31.83
194.304	12.66
194.525	7.36
194.745	-25.62
194.966	-14.98
195.187	-19.15
195.407	-27.15
195.628	-78.36
195.848	-71.3
196.069	-94.11
196.29	-40.15
196.51	-50
196.731	-28.81
196.951	-19.67
197.172	-25.98
197.392	-65.71
197.613	-53.97
197.833	-87.59
198.054	-87.57
198.274	-50.72
198.495	-54.39
198.715	-14.39
198.936	-26.7
199.156	-11.43
199.377	-90.2
199.597	-93.27
199.817	-117.32
200.038	-53.85
200.258	-76.62
200.479	-53.02
200.699	-67.76
200.919	-11.15
201.14	-16.57
201.36	-19.28
201.58	38.31
201.801	51.56
202.021	9.91
202.241	-8.59
202.461	-15.39
202.682	-104.67
202.902	-179.45
203.122	-86.56
203.342	-46.54
203.563	-4.47
203.783	2.91
204.003	-5.7
204.223	13.49
204.443	41.97
204.663	-3.86
204.884	34.43
205.104	49.39
205.324	67.95
205.544	63.41
205.764	74.82
205.984	63.16
206.204	69.14
206.424	42.7
206.644	25.2
206.864	11.4
207.084	-9.72
207.304	23.12
207.525	-9.22
207.745	-20.17
207.964	45.67
208.184	-12.11
208.404	-68.24
208.624	-73.34
208.844	-73.59
209.064	-294.35
209.284	-276.55
209.504	-107.97
209.724	-11.97
209.944	-17.96
210.164	-14.95
210.384	2.14
210.604	-2.34
210.823	-43.6
211.043	-42.53
211.263	-22.92
211.483	-31.82
211.703	-52.05
211.922	-33.23
212.142	51.94
212.362	77.24
212.582	62.63
212.801	52.49
213.021	28.26
213.241	-8.23
213.461	-31.58
213.68	-44.15
213.9	-42.89
214.12	-19
214.339	-86.74
214.559	-71.49
214.779	-17.31
214.998	-11.41
215.218	-37.67
215.438	-2.72
215.657	-17.14
215.877	-35.18
216.096	-9.66
216.316	13.44
216.535	23.95
216.755	40.98
216.974	15.75
217.194	-8.59
217.413	-28.16
217.633	-51.22
217.852	-143.28
218.072	-67.58
218.291	-43.63
218.511	-17.37
218.73	-25.25
218.95	-19.38
219.169	-23.59
219.389	-54.59
219.608	-34.08
219.827	-23.17
220.047	-2.59
220.266	31.12
220.485	46.61
220.705	47.77
220.924	10.1
221.143	26.92
221.363	3.87
221.582	2.58
221.801	-4.35
222.021	16.12
222.24	-45.18
222.459	10.93
222.678	6.28
222.897	-45.02
223.117	-69.93
223.336	-39.79
223.555	-27.57
223.774	-7.42
223.993	-9.87
224.213	32.77
224.432	32.81
224.651	41.68
224.87	29.69
225.089	59.17
225.308	55.93
225.527	60.53
225.746	56.71
225.965	50.73
226.184	14.27
226.404	15.94
226.623	-13.93
226.842	-18.06
227.061	-8.03
227.28	7.85
227.499	-19.05
227.718	-1.75
227.936	-8.42
228.155	9.9
228.374	-0.18
228.593	27.96
228.812	22.27
229.031	22.18
229.25	-24.36
229.469	-36.92
229.688	-42.64
229.907	2.55
230.125	16.41
230.344	20.75
230.563	43.47
230.782	41.81
231.001	-19.29
231.22	-15.82
231.438	0.93
231.657	-12.01
231.876	-39.95
232.095	1.89
232.313	0.03
232.532	-18.74
232.751	-45.51
232.969	-16.63
233.188	-89.07
233.407	-34.48
233.625	-17.17
233.844	-16.33
234.063	-10.92
234.281	20.19
234.5	5.08
234.719	18.57
234.937	25.78
235.156	32.87
235.374	21.52
235.593	14.8
235.811	-0.44
236.03	-0.71
236.249	-43.54
236.467	-25.77
236.686	7.43
236.904	12.91
237.123	-10.29
237.341	6.62
237.559	18.32
237.778	0.21
237.996	-3.93
238.215	31.54
238.433	28.45
238.652	18.21
238.87	-14.01
239.088	-1.96
239.307	-4.44
239.525	-22.38
239.743	-35.56
239.962	1.08
240.18	-23.09
240.398	-54.5
240.617	-36.33
240.835	-20.96
241.053	-10.25
241.271	44.07
241.49	42.68
241.708	33.63
241.926	32.03
242.144	30.2
242.363	-30.35
242.581	-36.19
242.799	-12.94
243.017	3.04
243.235	1.41
243.453	17.53
243.672	17.26
243.89	14.21
244.108	-1.97
244.326	6.16
244.544	14.81
244.762	20.59
244.98	23.77
245.198	32.21
245.416	23.43
245.634	0.03
245.852	-20.36
246.07	-26.76
246.288	-8.21
246.506	-43.43
246.724	-19.08
246.942	-9.78
247.16	13.07
247.378	5.15
247.596	34.02
247.814	24.28
248.032	6.08
248.25	-11.46
248.468	-4.44
248.685	-16.05
248.903	12.25
249.121	25.73
249.339	13.21
249.557	13.99
249.775	13.44
249.992	-32.38
250.21	-35.61
250.428	-8.48
250.646	-26.47
250.863	-28.1
251.081	5.79
251.299	9.19
251.517	7.08
251.734	14.01
251.952	11.34
252.17	3.03
252.387	8.64
252.605	-1.89
252.823	2.5
253.04	20.54
253.258	27.36
253.475	43.4
253.693	54.93
253.911	50.15
254.128	45.28
254.346	59.99
254.563	27.2
254.781	3.16
254.998	-23.69
255.216	-21.18
255.433	-30.32
255.651	1.16
255.868	29.02
256.086	53.77
256.303	30.18
256.521	16.77
256.738	-6.54
256.956	-47.55
257.173	-51.45
257.39	-59.92
257.608	-58.92
257.825	-6.1
258.043	28.84
258.26	19.22
258.477	49.87
258.695	39.04
258.912	-21.18
259.129	-3.2
259.346	-12.08
259.564	-61.96
259.781	-59.38
259.998	16.83
260.216	27.12
260.433	26.8
260.65	38.11
260.867	47.78
261.084	10.66
261.302	-4.44
261.519	8.78
261.736	-5.43
261.953	-35.26
262.17	-0.4
262.387	-34.39
262.604	-58.66
262.822	-58.55
263.039	-24.72
263.256	-43.07
263.473	-1.35
263.69	2.92
263.907	29.05
264.124	30.24
264.341	18.72
264.558	20.58
264.775	33.76
264.992	15.69
265.209	14.39
265.426	31.79
265.643	23.84
265.86	27.74
266.077	40.7
266.294	29.25
266.51	-11.69
266.727	9.47
266.944	4.81
267.161	-8.65
267.378	2.82
267.595	46.16
267.812	17.31
268.028	19.16
268.245	26.68
268.462	-0.17
268.679	-23.49
268.896	10.74
269.112	1.96
269.329	7.45
269.546	14.12
269.763	9.22
269.979	6.25
270.196	-2.19
270.413	-24.2
270.629	-30.15
270.846	-31.34
271.063	-30.31
271.279	-30.39
271.496	-28.19
271.712	-11.2
271.929	18.19
272.146	-12.2
272.362	-10.05
272.579	20.26
272.795	36.18
273.012	29.06
273.228	35.36
273.445	21.7
273.661	-13.92
273.878	-55.81
274.094	-51.29
274.311	-51.89
274.527	12.76
274.744	22.48
274.96	30.07
275.177	37.18
275.393	47.98
275.609	31.89
275.826	38.78
276.042	38.92
276.259	19.26
276.475	25.28
276.691	27.75
276.908	16.75
277.124	24.54
277.34	10.44
277.557	-4.35
277.773	-12.93
277.989	-26.97
278.205	-27.13
278.422	-15.36
278.638	-15.54
278.854	5.17
279.07	26.76
279.286	15.32
279.503	10.02
279.719	25.51
279.935	5.36
280.151	-0.94
280.367	9.04
280.583	9.09
280.799	-2.01
281.016	-42.82
281.232	-5.51
281.448	-5.86
281.664	14.81
281.88	-13.6
282.096	18.66
282.312	11.11
282.528	2.51
282.744	-0.21
282.96	6.48
283.176	6.73
283.392	-0.6
283.608	5.84
283.824	6.53
284.04	10.52
284.256	17.2
284.471	12.64
284.687	12.94
284.903	9.32
285.119	32.09
285.335	18.49
285.551	22.53
285.767	-0.38
285.982	-7.66
286.198	-45.25
286.414	-15.13
286.63	-5.63
286.846	20.64
287.061	12.95
287.277	47.63
287.493	36.55
287.709	41.56
287.924	30.26
288.14	63.56
288.356	40.62
288.571	52.22
288.787	41.39
289.003	48.98
289.218	21.93
289.434	-2.77
289.65	-5.58
289.865	-10.36
290.081	-16.45
290.296	7.34
290.512	23.38
290.727	-6.6
290.943	-9.82
291.159	-8.68
291.374	-12.3
291.59	-34.24
291.805	-18.55
292.021	8.86
292.236	3.47
292.451	5.63
292.667	18.59
292.882	29.66
293.098	7.92
293.313	6.54
293.529	0.27
293.744	5.91
293.959	-3.18
294.175	-5.9
294.39	13.58
294.605	28.98
294.821	39.22
295.036	44.61
295.251	49.76
295.467	38.65
295.682	33.82
295.897	-5.36
296.112	-27.3
296.328	-22.64
296.543	-60.72
296.758	-54.8
296.973	-22.64
297.188	15.47
297.404	-9.98
297.619	-6.44
297.834	-23.63
298.049	-30.88
298.264	-44.82
298.479	-8.7
298.694	2.79
298.909	15.52
299.125	19.48
299.34	18.13
299.555	8.97
299.77	7.58
299.985	-22.09
300.2	-61.87
300.415	-63.34
300.63	-37.8
300.845	-35.07
301.06	-27.22
301.275	2.9
301.49	12.3
301.704	0.35
301.919	-11.81
302.134	-13.56
302.349	-22.68
302.564	-74.96
302.779	-58.25
302.994	-21.55
303.209	-11.02
303.423	30.09
303.638	50.18
303.853	9.09
304.068	12.82
304.283	20.04
304.497	12.84
304.712	1.89
304.927	13.86
305.142	9.52
305.356	-4.47
305.571	-7.1
305.786	-14.27
306	-31.58
306.215	-47.89
306.43	-40.98
306.644	-51.48
306.859	-5.17
307.074	21.54
307.288	-5.03
307.503	-0.72
307.717	-3.96
307.932	-4.23
308.147	-15.92
308.361	12.85
308.576	9.27
308.79	-13.52
309.005	-15.22
309.219	-6.64
309.434	-16.58
309.648	-20.02
309.863	0.03
310.077	-7.9
310.292	-8.26
310.506	-6.88
310.72	-0.12
310.935	1.79
311.149	-5.51
311.364	11.73
311.578	26.62
311.792	15.75
312.007	25.17
312.221	23.92
312.435	26.77
312.649	9.27
312.864	1.13
313.078	-14.65
313.292	23.42
313.507	-38.25
313.721	-30.05
313.935	29.34
314.149	26.29
314.363	16.96
314.578	21.2
314.792	18.78
315.006	4.63
315.22	18.93
315.434	17.79
315.648	35.09
315.862	36.71
316.077	36.08
316.291	24.54
316.505	19.91
316.719	-11.32
316.933	-25.46
317.147	-29.6
317.361	-59.43
317.575	-68.41
317.789	-74.81
318.003	-122.99
318.217	-68.56
318.431	-5
318.645	28.54
318.859	15.95
319.073	38.66
319.287	14
319.5	-3.68
319.714	-28.95
319.928	-41.68
320.142	-66.93
320.356	-11.43
320.57	1.34
320.784	5.03
320.997	3.8
321.211	-6.03
321.425	-71.37
321.639	-91.64
321.853	-55.95
322.066	-34.43
322.28	-25.23
322.494	-12.09
322.707	12.4
322.921	7.89
323.135	15.76
323.349	34.26
323.562	17.59
323.776	9.05
323.989	1.18
324.203	-8.88
324.417	-28.59
324.63	-26.5
324.844	-24.18
325.057	-22.78
325.271	-21.11
325.485	2.89
325.698	11.95
325.912	22.26
326.125	13.89
326.339	14.1
326.552	-9.7
326.766	-1.53
326.979	17.84
327.193	41.08
327.406	27.03
327.619	22.16
327.833	24.42
328.046	-14.33
328.26	-49.65
328.473	-20.24
328.686	-28
328.9	-31.21
329.113	0.03
329.326	1.78
329.54	-12.1
329.753	-20.17
329.966	-8.95
330.179	-36.94
330.393	-6.4
330.606	7.99
330.819	21.65
331.032	26.3
331.246	38.69
331.459	55.32
331.672	53
331.885	45
332.098	25.42
332.311	5.55
332.525	-42.79
332.738	-20.54
332.951	6.58
333.164	45.67
333.377	67.36
333.59	70.31
333.803	58.05
334.016	47.74
334.229	31.76
334.442	13.63
334.655	22.06
334.868	39.49
335.081	24.95
335.294	15.65
335.507	21.73
335.72	12.74
335.933	-3.9
336.146	0.98
336.359	-4.37
336.572	-32.71
336.785	-53.14
336.997	-47.03
337.21	-28.93
337.423	-17.4
337.636	-4.19
337.849	1.36
338.062	-12.24
338.274	-6.98
338.487	-20.06
338.7	-23.93
338.913	-38.25
339.125	-44.61
339.338	-84.67
339.551	-59.33
339.763	-27.88
339.976	15.4
340.189	41.18
340.402	48.83
340.614	33.55
340.827	24.48
341.039	9.08
341.252	8.84
341.465	19.16
341.677	24.01
341.89	-5
342.102	-3.97
342.315	-11.75
342.527	-40.79
342.74	-12.63
342.952	21.2
343.165	22
343.377	27.79
343.59	19.3
343.802	19.1
344.015	14.87
344.227	26.69
344.44	24.21
344.652	33.63
344.864	16.42
345.077	27.4
345.289	22.84
345.502	17.09
345.714	12.86
345.926	16.34
346.139	5.54
346.351	13.58
346.563	20.42
346.775	21.06
346.988	10.95
347.2	1.61
347.412	-34.69
347.624	-48.87
347.837	-53.61
348.049	-24.68
348.261	2.49
348.473	5.25
348.685	18.16
348.897	21.86
349.11	-3.4
349.322	-28.09
349.534	-12.82
349.746	-20.77
349.958	-33.1
350.17	-15.04
350.382	14.74
350.594	17.37
350.806	31.51
351.018	26.54
351.23	13.95
351.442	-26.44
351.654	-30.63
351.866	-33.57
352.078	-22.12
352.29	16.83
352.502	31.07
352.714	36.78
352.926	20.98
353.138	14.31
353.35	-1.32
353.561	-2.09
353.773	-20.52
353.985	9.35
354.197	20.98
354.409	13.18
354.621	2.91
354.832	11.72
355.044	-5.4
355.256	-11.02
355.468	3.95
355.679	9
355.891	21.16
356.103	5.23
356.314	16.68
356.526	16.16
356.738	16.1
356.949	5.06
357.161	26.87
357.373	9.53
357.584	16
357.796	24.21
358.008	18.76
358.219	22.33
358.431	26.04
358.642	17.68
358.854	6.93
359.065	-8.21
359.277	-30.31
359.488	-25.78
359.7	-38.92
359.911	-57.44
360.123	-25.18
360.334	-20.74
360.546	-40.28
360.757	-42.48
360.969	-14.88
361.18	-20.36
361.391	-13.66
361.603	-22.78
361.814	-6.76
362.025	-8.72
362.237	-2.53
362.448	0.2
362.659	22.3
362.871	11.28
363.082	-7.81
363.293	-21.03
363.504	-25.64
363.716	-52.15
363.927	-53.55
364.138	-40.65
364.349	-33.63
364.56	-28.56
364.772	-20.96
364.983	5.25
365.194	14.21
365.405	21.01
365.616	38.57
365.827	53.14
366.038	28.52
366.25	9.79
366.461	-8.13
366.672	-0.48
366.883	5.57
367.094	17.78
367.305	13.69
367.516	12.06
367.727	-14.07
367.938	-21.73
368.149	-22.67
368.36	-0.53
368.571	20.03
368.781	12.84
368.992	1.08
369.203	-8.64
369.414	-33.62
369.625	-57.35
369.836	-52.19
370.047	-76.09
370.258	-71.37
370.468	-58.04
370.679	-58.88
370.89	-50.63
371.101	-22.22
371.312	-8.18
371.522	-7.44
371.733	-3.81
371.944	12.48
372.155	13.09
372.365	-0.88
372.576	5.67
372.787	1.78
372.997	-22.55
373.208	-25.21
373.419	-16.74
373.629	-41.66
373.84	-41.02
374.05	-44.91
374.261	-44.76
374.472	-43.67
374.682	-4.55
374.893	0.31
375.103	23.54
375.314	29.83
375.524	28.59
375.735	22.67
375.945	32.19
376.156	20.27
376.366	14.46
376.577	20.57
376.787	18.73
376.997	13.86
377.208	6.83
377.418	-0.23
377.629	1.44
377.839	0.25
378.049	1.15
378.26	10.26
378.47	16.83
378.68	12.78
378.89	13.55
379.101	13.72
379.311	2.68
379.521	-8.58
379.732	-6.6
379.942	-3.49
380.152	-23.68
380.362	-6.72
380.572	-1.09
380.783	6.8
380.993	7.21
381.203	18.81
381.413	25.06
381.623	30.93
381.833	22.48
382.043	12.76
382.253	3.25
382.463	-1.83
382.674	-13.44
382.884	-28.09
383.094	-12.62
383.304	0.46
383.514	8.3
383.724	15.01
383.934	16.41
384.144	-5.78
384.353	-20.74
384.563	-29.7
384.773	-22.82
384.983	-26.83
385.193	-2.93
385.403	6.39
385.613	10.33
385.823	2.92
386.033	6.03
386.242	-2.59
386.452	-3.33
386.662	-5.59
386.872	2.81
387.082	-2.63
387.291	-11.36
387.501	-18.91
387.711	-12.2
387.921	-19.73
388.13	-14.84
388.34	-0.57
388.55	0.21
388.759	-3.22
388.969	3.25
389.179	3.13
389.388	0.11
389.598	2.97
389.807	-1.58
390.017	-7.94
390.227	-6.62
390.436	-5.87
390.646	-4.93
390.855	-0.29
391.065	0.77
391.274	1.44
391.484	-0.17
391.693	-1.94
391.903	-2.17
392.112	5.81
392.322	5.07
392.531	7.01
392.74	8.03
392.95	3.73
393.159	-2.44
393.369	-1.03
393.578	-0.5
393.787	-0.36
393.997	2.73
394.206	3.18
394.415	3.57
394.625	1.34
394.834	0.63
395.043	1.53
395.252	3.3
395.462	4.08
395.671	5.8
395.88	6.83
396.089	6.54
396.298	4.42
396.508	3.97
396.717	2.82
396.926	2.65
397.135	2.06
397.344	2.77
397.553	2.65
397.762	3.63
397.971	4.1
398.181	4.04
398.39	3.56
398.599	3.7
398.808	3.73
399.017	3.91
399.226	5.27
399.435	6.23
399.644	6.53
399.853	6.01
400.062	5.47
400.27	4.59
400.479	4.14
400.688	3.44
400.897	3.31
401.106	3.43
401.315	3.44
401.524	3.41
401.733	4.08
401.941	4.27
402.15	4.36
402.359	4.19
402.568	4.71
402.777	4.59
402.985	4.62
403.194	4.57
403.403	4.77
403.612	4.32
403.82	4.12
404.029	4.28
404.238	4.11
404.446	4.32
404.655	4.07
404.864	3.98
405.072	3.66
405.281	3.86
405.489	3.5
405.698	3.65
405.906	3.77
406.115	3.92
406.324	3.8
406.532	4.04
406.741	4.22
406.949	4.17
407.158	4.15
407.366	4.29
407.574	4.15
407.783	4.18
407.991	4.12
408.2	4.23
408.408	4.13
408.617	4.21
408.825	3.97
409.033	4.04
409.242	3.96
409.45	4.06
409.658	3.85
409.867	4
410.075	3.87
410.283	3.82
410.491	3.72
410.7	3.74
410.908	3.79
411.116	3.97
411.324	3.94
411.533	3.86
411.741	4.06
411.949	3.92
412.157	3.78
412.365	3.82
412.573	3.81
412.781	3.79
412.99	3.73
413.198	3.87
413.406	3.87
413.614	3.89
413.822	3.67
414.03	3.68
414.238	3.43
414.446	3.47
414.654	3.35
414.862	3.59
415.07	3.61
415.278	3.8
415.486	3.61
415.694	3.75
415.902	3.54
416.109	3.47
416.317	3.31
416.525	3.18
416.733	3.07
416.941	3.21
417.149	3.24
417.357	3.33
417.564	3.5
417.772	3.73
417.98	3.59
418.188	3.56
418.395	3.58
418.603	3.78
418.811	3.41
419.019	3.47
419.226	3.54
419.434	3.53
419.642	3.2
419.849	3.31
420.057	3.27
420.265	3.34
420.472	3.21
420.68	3.2
420.887	3.15
421.095	3.16
421.302	3.06
421.51	3.18
421.717	3.38
421.925	3.53
422.132	3.4
422.34	3.24
422.547	3.19
422.755	2.94
422.962	2.86
423.17	2.85
423.377	2.91
423.585	3.04
423.792	3.14
423.999	3.09
424.207	3.06
424.414	3.11
424.621	2.93
424.829	2.84
425.036	2.89
425.243	3.05
425.451	2.94
425.658	2.79
425.865	2.98
426.072	2.97
426.28	3.2
426.487	3.23
426.694	3.33
426.901	3.21
427.108	3.2
427.315	2.86
427.523	3.13
427.73	3.18
427.937	3.24
428.144	3.1
428.351	3.09
428.558	3.02
428.765	3.02
428.972	2.89
429.179	3.04
429.386	3.33
429.593	3.11
429.8	3.07
430.007	3.31
430.214	3.42
430.421	3.23
430.628	3.14
430.835	3.13
431.042	3.15
431.249	3.17
431.456	3.15
431.662	3.37
431.869	3.5
432.076	3.54
432.283	3.54
432.49	3.59
432.697	3.67
432.903	3.48
433.11	3.49
433.317	3.5
433.524	3.73
433.73	3.62
433.937	3.86
434.144	3.74
434.35	3.71
434.557	3.43
434.764	3.53
434.97	3.41
435.177	3.58
435.384	3.56
435.59	3.69
435.797	3.76
436.003	3.75
436.21	3.75
436.416	3.78
436.623	3.79
436.829	3.83
437.036	4
437.242	3.97
437.449	4.01
437.655	4.09
437.862	4.06
438.068	4.03
438.275	4.13
438.481	4.27
438.687	4.13
438.894	4.16
439.1	4.14
439.307	4.26
439.513	4.11
439.719	4.13
439.926	4.18
440.132	4.12
440.338	3.95
440.544	4.07
440.751	4.1
440.957	4.17
441.163	4.25
441.369	4.42
441.575	4.28
441.782	4.4
441.988	4.28
442.194	4.18
442.4	4.14
442.606	4.41
442.812	4.42
443.018	4.47
443.224	4.61
443.431	4.67
443.637	4.47
443.843	4.49
444.049	4.57
444.255	4.47
444.461	4.44
444.667	4.5
444.873	4.63
445.079	4.59
445.284	4.76
445.49	4.61
445.696	4.46
445.902	4.3
446.108	4.29
446.314	4.25
446.52	4.3
446.726	4.63
446.931	4.72
447.137	4.81
447.343	4.83
447.549	4.86
447.755	4.68
447.96	4.66
448.166	4.54
448.372	4.62
448.578	4.72
448.783	4.79
448.989	4.89
449.195	5.06
449.4	5.01
449.606	4.94
449.812	4.88
450.017	4.88
450.223	4.79
450.428	4.8
450.634	4.99
450.84	5.11
451.045	5.1
451.251	5.09
451.456	5.19
451.662	5.14
451.867	5.17
452.073	5.1
452.278	5.27
452.483	5.37
452.689	5.26
452.894	5.26
453.1	5.26
453.305	5.16
453.51	5.03
453.716	5.01
453.921	5.02
454.127	5
454.332	4.86
454.537	4.78
454.742	4.77
454.948	4.66
455.153	4.76
455.358	4.95
455.563	5.11
455.769	5.21
455.974	5.24
456.179	5.11
456.384	5.06
456.589	4.97
456.795	4.9
457	4.94
457.205	5.14
457.41	5.14
457.615	5.13
457.82	5.21
458.025	5.14
458.23	5.02
458.435	5.05
458.64	5.05
458.845	5.13
459.05	5.11
459.255	5.19
459.46	5.17
459.665	5.23
459.87	5.19
460.075	5.21
460.28	5.19
460.485	5.2
460.69	5.21
460.895	5.16
461.099	5.24
461.304	5.37
461.509	5.38
461.714	5.34
461.919	5.47
462.123	5.39
462.328	5.32
462.533	5.36
462.738	5.47
462.942	5.29
463.147	5.34
463.352	5.33
463.556	5.4
463.761	5.34
463.966	5.48
464.17	5.57
464.375	5.59
464.58	5.54
464.784	5.56
464.989	5.48
465.193	5.45
465.398	5.5
465.602	5.58
465.807	5.58
466.011	5.76
466.216	5.88
466.42	5.95
466.625	5.98
466.829	6.03
467.034	6
467.238	6.15
467.443	6.08
467.647	6.09
467.851	6.15
468.056	6.15
468.26	5.96
468.464	6.01
468.669	6.05
468.873	6.15
469.077	6.19
469.282	6.34
469.486	6.39
469.69	6.4
469.894	6.3
470.099	6.44
470.303	6.41
470.507	6.42
470.711	6.36
470.915	6.39
471.119	6.21
471.324	6.23
471.528	6.19
471.732	6.24
471.936	6.3
472.14	6.39
472.344	6.44
472.548	6.53
472.752	6.66
472.956	6.82
473.16	6.93
473.364	6.86
473.568	6.89
473.772	6.97
473.976	6.79
474.18	6.7
474.384	6.76
474.588	6.75
474.792	6.6
474.995	6.81
475.199	6.98
475.403	7.11
475.607	7.18
475.811	7.14
476.015	7.1
476.218	7.16
476.422	7.04
476.626	7.07
476.83	7.27
477.033	7.28
477.237	7.15
477.441	7.24
477.644	7.25
477.848	7.26
478.052	7.22
478.255	7.33
478.459	7.38
478.663	7.49
478.866	7.49
479.07	7.6
479.273	7.75
479.477	7.75
479.681	7.71
479.884	7.68
480.088	7.62
480.291	7.5
480.495	7.52
480.698	7.58
480.901	7.63
481.105	7.83
481.308	7.87
481.512	7.92
481.715	8.01
481.919	8.12
482.122	8.07
482.325	8.05
482.529	8.12
482.732	8.12
482.935	8.04
483.138	7.99
483.342	8.08
483.545	8.1
483.748	8.07
483.952	8.21
484.155	8.26
484.358	8.25
484.561	8.23
484.764	8.17
484.967	8.18
485.171	8.27
485.374	8.29
485.577	8.36
485.78	8.51
485.983	8.45
486.186	8.39
486.389	8.37
486.592	8.36
486.795	8.3
486.998	8.34
487.201	8.43
487.404	8.53
487.607	8.61
487.81	8.64
488.013	8.7
488.216	8.59
488.419	8.58
488.622	8.5
488.825	8.42
489.028	8.35
489.231	8.35
489.433	8.2
489.636	8.13
489.839	8.13
490.042	8.08
490.245	8.11
490.447	8.23
490.65	8.32
490.853	8.39
491.056	8.52
491.258	8.59
491.461	8.6
491.664	8.67
491.866	8.64
492.069	8.67
492.272	8.6
492.474	8.68
492.677	8.66
492.879	8.78
493.082	8.78
493.285	8.9
493.487	8.89
493.69	8.87
493.892	8.76
494.095	8.71
494.297	8.67
494.5	8.68
494.702	8.71
494.905	8.8
495.107	8.83
495.309	8.82
495.512	8.89
495.714	8.93
495.917	8.93
496.119	8.96
496.321	9.07
496.524	9.1
496.726	9.1
496.928	9.13
497.13	9.18
497.333	9.13
497.535	9.12
497.737	9.19
497.939	9.3
498.142	9.24
498.344	9.25
498.546	9.11
498.748	9.11
498.95	9.09
499.152	9.07
499.355	9.17
499.557	9.32
499.759	9.44
499.961	9.48
500.163	9.62
500.365	9.62
500.567	9.7
500.769	9.59
500.971	9.57
501.173	9.5
501.375	9.56
501.577	9.51
501.779	9.52
501.981	9.51
502.183	9.58
502.385	9.52
502.587	9.48
502.788	9.51
502.99	9.64
503.192	9.7
503.394	9.74
503.596	9.82
503.798	9.88
503.999	9.92
504.201	9.92
504.403	9.98
504.605	10.12
504.806	10.09
505.008	10.08
505.21	10.15
505.411	10.17
505.613	10.1
505.815	10.25
506.016	10.29
506.218	10.34
506.42	10.34
506.621	10.37
506.823	10.37
507.024	10.33
507.226	10.31
507.427	10.33
507.629	10.42
507.83	10.5
508.032	10.52
508.233	10.59
508.435	10.68
508.636	10.7
508.838	10.64
509.039	10.76
509.24	10.82
509.442	10.84
509.643	10.83
509.845	10.87
510.046	10.87
510.247	10.87
510.448	10.85
510.65	10.91
510.851	11.07
511.052	11.04
511.254	11.07
511.455	11.22
511.656	11.3
511.857	11.27
512.058	11.39
512.26	11.39
512.461	11.4
512.662	11.41
512.863	11.37
513.064	11.34
513.265	11.31
513.466	11.32
513.667	11.3
513.868	11.36
514.069	11.43
514.27	11.6
514.471	11.57
514.672	11.59
514.873	11.57
515.074	11.61
515.275	11.51
515.476	11.54
515.677	11.59
515.878	11.67
516.079	11.65
516.28	11.75
516.481	11.84
516.682	11.83
516.882	11.84
517.083	11.86
517.284	11.79
517.485	11.79
517.686	11.81
517.886	11.79
518.087	11.85
518.288	11.88
518.488	11.89
518.689	11.9
518.89	11.89
519.091	11.92
519.291	11.95
519.492	12
519.692	12.12
519.893	12.25
520.094	12.18
520.294	12.18
520.495	12.12
520.695	12.08
520.896	12.04
521.096	12.09
521.297	12.13
521.497	12.18
521.698	12.17
521.898	12.2
522.099	12.22
522.299	12.32
522.499	12.36
522.7	12.45
522.9	12.48
523.101	12.57
523.301	12.6
523.501	12.59
523.702	12.57
523.902	12.64
524.102	12.64
524.302	12.6
524.503	12.63
524.703	12.62
524.903	12.61
525.103	12.56
525.304	12.66
525.504	12.75
525.704	12.81
525.904	12.74
526.104	12.82
526.304	12.74
526.504	12.68
526.705	12.67
526.905	12.77
527.105	12.73
527.305	12.73
527.505	12.72
527.705	12.7
527.905	12.7
528.105	12.75
528.305	12.73
528.505	12.82
528.705	12.9
528.905	12.93
529.105	12.92
529.304	12.95
529.504	12.98
529.704	12.98
529.904	12.99
530.104	13.02
530.304	13.11
530.503	13.04
530.703	13
530.903	13.01
531.103	13.06
531.303	13.06
531.502	13.13
531.702	13.28
531.902	13.27
532.101	13.27
532.301	13.29
532.501	13.33
532.7	13.27
532.9	13.37
533.1	13.35
533.299	13.4
533.499	13.44
533.698	13.43
533.898	13.43
534.097	13.44
534.297	13.49
534.496	13.5
534.696	13.55
534.895	13.64
535.095	13.77
535.294	13.74
535.494	13.66
535.693	13.67
535.892	13.61
536.092	13.56
536.291	13.58
536.491	13.74
536.69	13.76
536.889	13.77
537.088	13.72
537.288	13.77
537.487	13.79
537.686	13.87
537.886	13.91
538.085	14.06
538.284	14.16
538.483	14.1
538.682	14.14
538.882	14.2
539.081	14.26
539.28	14.19
539.479	14.21
539.678	14.21
539.877	14.28
540.076	14.21
540.275	14.27
540.474	14.39
540.673	14.45
540.872	14.43
541.071	14.54
541.27	14.55
541.469	14.59
541.668	14.59
541.867	14.62
542.066	14.68
542.265	14.76
542.464	14.76
542.663	14.84
542.862	14.98
543.06	15
543.259	15.09
543.458	15.22
543.657	15.27
543.856	15.27
544.054	15.28
544.253	15.26
544.452	15.26
544.651	15.37
544.849	15.39
545.048	15.49
545.247	15.56
545.445	15.66
545.644	15.67
545.843	15.75
546.041	15.76
546.24	15.96
546.438	15.98
546.637	15.98
546.836	16.08
547.034	16.16
547.233	16.09
547.431	16.13
547.63	16.27
547.828	16.3
548.027	16.35
548.225	16.42
548.423	16.49
548.622	16.53
548.82	16.57
549.019	16.59
549.217	16.7
549.415	16.75
549.614	16.85
549.812	16.93
550.01	17.03
550.209	17.08
550.407	17.19
550.605	17.2
550.803	17.36
551.002	17.49
551.2	17.61
551.398	17.72
551.596	17.91
551.794	17.94
551.993	18.03
552.191	18.03
552.389	18.22
552.587	18.2
552.785	18.29
552.983	18.4
553.181	18.51
553.379	18.48
553.577	18.65
553.775	18.71
553.973	18.8
554.171	18.95
554.369	19.06
554.567	19.19
554.765	19.39
554.963	19.48
555.161	19.49
555.359	19.61
555.557	19.68
555.755	19.74
555.952	19.81
556.15	19.92
556.348	19.96
556.546	20.02
556.744	20.08
556.941	20.12
557.139	20.34
557.337	20.42
557.535	20.48
557.732	20.59
557.93	20.77
558.128	20.77
558.325	20.93
558.523	21.08
558.721	21.2
558.918	21.32
559.116	21.39
559.313	21.48
559.511	21.69
559.708	21.76
559.906	21.86
560.104	22.03
560.301	22.21
560.498	22.28
560.696	22.41
560.893	22.58
561.091	22.7
561.288	22.8
561.486	22.8
561.683	22.95
561.88	22.98
562.078	23.12
562.275	23.1
562.473	23.36
562.67	23.51
562.867	23.64
563.064	23.76
563.262	23.95
563.459	24.04
563.656	24.13
563.853	24.25
564.051	24.41
564.248	24.59
564.445	24.71
564.642	24.84
564.839	25.06
565.036	25.22
565.234	25.42
565.431	25.55
565.628	25.63
565.825	25.71
566.022	25.82
566.219	25.83
566.416	25.95
566.613	26.19
566.81	26.32
567.007	26.29
567.204	26.39
567.401	26.41
567.598	26.41
567.795	26.5
567.991	26.65
568.188	26.75
568.385	26.86
568.582	26.96
568.779	27.04
568.976	27.07
569.172	27.22
569.369	27.28
569.566	27.34
569.763	27.43
569.96	27.59
570.156	27.61
570.353	27.7
570.55	27.76
570.746	27.81
570.943	27.79
571.14	27.8
571.336	27.8
571.533	27.94
571.729	27.91
571.926	28.01
572.123	28.07
572.319	28.12
572.516	28.07
572.712	28.23
572.909	28.29
573.105	28.44
573.302	28.68
573.498	28.8
573.695	28.72
573.891	28.82
574.087	28.77
574.284	28.63
574.48	28.52
574.677	28.59
574.873	28.59
575.069	28.64
575.266	28.68
575.462	28.75
575.658	28.82
575.854	28.9
576.051	28.9
576.247	28.86
576.443	28.92
576.639	28.94
576.835	28.83
577.032	28.82
577.228	29.04
577.424	29.05
577.62	28.99
577.816	29.03
578.012	29.11
578.208	29.05
578.404	29.08
578.6	29.16
578.796	29.08
578.993	29.09
579.189	29.05
579.384	28.9
579.58	28.8
579.776	28.8
579.972	28.75
580.168	28.76
580.364	28.89
580.56	28.95
580.756	29
580.952	28.9
581.148	28.98
581.343	29.01
581.539	29.04
581.735	29.06
581.931	29.14
582.127	29.12
582.322	29.04
582.518	28.93
582.714	28.99
582.909	28.96
583.105	28.92
583.301	28.9
583.496	28.93
583.692	28.83
583.888	28.81
584.083	28.8
584.279	28.84
584.474	28.79
584.67	28.82
584.866	28.94
585.061	28.82
585.257	28.82
585.452	28.89
585.648	28.91
585.843	28.88
586.039	28.99
586.234	29
586.429	28.91
586.625	28.98
586.82	28.93
587.015	28.98
587.211	28.89
587.406	28.99
587.601	28.96
587.797	28.94
587.992	28.9
588.187	28.98
588.383	28.93
588.578	28.91
588.773	28.95
588.968	28.91
589.163	28.92
589.359	28.96
589.554	28.99
589.749	28.97
589.944	29.13
590.139	29.23
590.334	29.29
590.529	29.31
590.724	29.49
590.919	29.51
591.114	29.52
591.309	29.6
591.504	29.58
591.699	29.52
591.894	29.57
592.089	29.56
592.284	29.57
592.479	29.73
592.674	29.85
592.869	29.92
593.064	30.04
593.259	30.21
593.454	30.36
593.648	30.42
593.843	30.4
594.038	30.48
594.233	30.43
594.428	30.39
594.622	30.4
594.817	30.5
595.012	30.55
595.206	30.54
595.401	30.57
595.596	30.6
595.79	30.68
595.985	30.77
596.18	30.93
596.374	31.19
596.569	31.3
596.763	31.29
596.958	31.27
597.153	31.37
597.347	31.34
597.542	31.48
597.736	31.7
597.931	31.81
598.125	31.85
598.319	31.97
598.514	32.03
598.708	32.07
598.903	32.18
599.097	32.29
599.291	32.31
599.486	32.32
599.68	32.39
599.874	32.49
600.069	32.53
600.263	32.5
600.457	32.64
600.651	32.61
600.846	32.65
601.04	32.69
601.234	32.77
601.428	32.86
601.622	32.92
601.817	32.86
602.011	32.91
602.205	32.94
602.399	32.87
602.593	32.98
602.787	33.14
602.981	33.13
603.175	33.21
603.369	33.2
603.563	33.25
603.757	33.2
603.951	33.27
604.145	33.22
604.339	33.27
604.533	33.1
604.727	33.08
604.921	33.04
605.115	33.09
605.309	33.11
605.502	33.25
605.696	33.29
605.89	33.26
606.084	33.19
606.278	33.09
606.471	32.98
606.665	32.85
606.859	32.68
607.053	32.68
607.246	32.63
607.44	32.61
607.634	32.59
607.827	32.7
608.021	32.48
608.214	32.47
608.408	32.39
608.602	32.28
608.795	32.2
608.989	32.21
609.182	32.14
609.376	32.09
609.569	32.02
609.763	31.93
609.956	31.88
610.15	31.78
610.343	31.78
610.537	31.72
610.73	31.61
610.923	31.54
611.117	31.5
611.31	31.25
611.504	31.22
611.697	31.12
611.89	31.09
612.083	31.01
612.277	31.05
612.47	30.94
612.663	30.93
612.856	30.83
613.05	30.68
613.243	30.56
613.436	30.52
613.629	30.46
613.822	30.3
614.015	30.3
614.209	30.15
614.402	30.1
614.595	30.05
614.788	29.98
614.981	29.88
615.174	29.8
615.367	29.74
615.56	29.64
615.753	29.69
615.946	29.58
616.139	29.55
616.332	29.55
616.525	29.5
616.718	29.48
616.911	29.53
617.103	29.53
617.296	29.46
617.489	29.36
617.682	29.21
617.875	29.14
618.067	29.05
618.26	28.89
618.453	28.88
618.646	28.87
618.838	28.85
619.031	28.92
619.224	28.98
619.417	28.9
619.609	28.88
619.802	28.83
619.994	28.72
620.187	28.61
620.38	28.63
620.572	28.62
620.765	28.67
620.957	28.58
621.15	28.55
621.342	28.46
621.535	28.34
621.727	28.22
621.92	28.09
622.112	27.95
622.305	27.97
622.497	27.96
622.69	27.89
622.882	27.97
623.074	28.05
623.267	28
623.459	27.92
623.651	27.97
623.844	28.02
624.036	27.97
624.228	27.91
624.42	27.99
624.613	27.95
624.805	27.85
624.997	27.84
625.189	27.85
625.381	27.76
625.574	27.71
625.766	27.67
625.958	27.61
626.15	27.59
626.342	27.64
626.534	27.54
626.726	27.52
626.918	27.51
627.11	27.49
627.302	27.47
627.494	27.52
627.686	27.58
627.878	27.48
628.07	27.46
628.262	27.31
628.454	27.33
628.646	27.26
628.838	27.3
629.029	27.17
629.221	27.16
629.413	27
629.605	26.85
629.797	26.78
629.989	26.83
630.18	26.75
630.372	26.74
630.564	26.72
630.755	26.74
630.947	26.68
631.139	26.6
631.33	26.5
631.522	26.58
631.714	26.57
631.905	26.48
632.097	26.48
632.289	26.5
632.48	26.43
632.672	26.3
632.863	26.22
633.055	26.14
633.246	26.13
633.438	26.01
633.629	26.03
633.821	26.11
634.012	26.13
634.203	26.04
634.395	26.14
634.586	26.03
634.777	25.91
634.969	25.9
635.16	25.92
635.351	25.76
635.543	25.76
635.734	25.83
635.925	25.81
636.117	25.8
636.308	25.88
636.499	25.84
636.69	25.74
636.881	25.69
637.073	25.69
637.264	25.68
637.455	25.75
637.646	25.89
637.837	25.93
638.028	25.88
638.219	25.87
638.41	25.81
638.601	25.6
638.792	25.58
638.983	25.59
639.174	25.53
639.365	25.59
639.556	25.57
639.747	25.52
639.938	25.53
640.129	25.48
640.32	25.39
640.511	25.45
640.701	25.58
640.892	25.47
641.083	25.51
641.274	25.54
641.465	25.53
641.655	25.35
641.846	25.37
642.037	25.33
642.228	25.29
642.418	25.31
642.609	25.23
642.8	25.19
642.99	25.03
643.181	25.04
643.372	24.93
643.562	24.97
643.753	24.87
643.943	24.84
644.134	24.68
644.324	24.73
644.515	24.74
644.705	24.79
644.896	24.85
645.086	24.82
645.277	24.72
645.467	24.71
645.658	24.69
645.848	24.74
646.038	24.62
646.229	24.59
646.419	24.48
646.61	24.37
646.8	24.3
646.99	24.35
647.18	24.28
647.371	24.27
647.561	24.31
647.751	24.29
647.941	24.18
648.132	24.19
648.322	24.14
648.512	24.13
648.702	24.05
648.892	24.12
649.082	24.12
649.272	24.01
649.462	23.89
649.653	23.81
649.843	23.75
650.033	23.77
650.223	23.81
650.413	23.67
650.603	23.7
650.793	23.69
650.983	23.71
651.172	23.59
651.362	23.69
651.552	23.66
651.742	23.62
651.932	23.43
652.122	23.46
652.312	23.47
652.502	23.4
652.691	23.31
652.881	23.27
653.071	23.13
653.261	22.97
653.45	22.8
653.64	22.73
653.83	22.54
654.019	22.43
654.209	22.37
654.399	22.34
654.588	22.22
654.778	22.14
654.968	22.03
655.157	21.81
655.347	21.66
655.536	21.53
655.726	21.38
655.915	21.21
656.105	21.1
656.294	20.96
656.484	20.8
656.673	20.73
656.863	20.7
657.052	20.52
657.241	20.27
657.431	19.97
657.62	19.76
657.809	19.34
657.999	19.18
658.188	19.01
658.377	18.84
658.567	18.59
658.756	18.5
658.945	18.24
659.134	18.01
659.324	17.85
659.513	17.65
659.702	17.48
659.891	17.46
660.08	17.35
660.269	17.23
660.458	17.01
660.648	16.7
660.837	16.43
661.026	16.26
661.215	16.13
661.404	16.03
661.593	15.93
661.782	15.73
661.971	15.56
662.16	15.29
662.349	15.12
662.538	14.94
662.726	14.77
662.915	14.64
663.104	14.49
663.293	14.38
663.482	14.36
663.671	14.19
663.86	13.88
664.048	13.75
664.237	13.64
664.426	13.4
664.615	13.3
664.803	13.23
664.992	13.03
665.181	12.87
665.369	12.79
665.558	12.66
665.747	12.54
665.935	12.52
666.124	12.41
666.312	12.25
666.501	12.19
666.69	12.03
666.878	11.85
667.067	11.74
667.255	11.86
667.444	12.06
667.632	12.03
667.82	12.1
668.009	12.09
668.197	11.85
668.386	11.55
668.574	11.73
668.762	11.66
668.951	11.58
669.139	11.6
669.327	11.56
669.516	11.47
669.704	11.46
669.892	11.57
670.08	11.53
670.269	11.46
670.457	11.4
670.645	11.33
670.833	11.31
671.021	11.36
671.21	11.46
671.398	11.55
671.586	11.6
671.774	11.47
671.962	11.45
672.15	11.47
672.338	11.41
672.526	11.47
672.714	11.46
672.902	11.52
673.09	11.66
673.278	11.78
673.466	11.84
673.654	12
673.842	12.08
674.03	12.09
674.218	12.08
674.405	12.05
674.593	12.04
674.781	12.13
674.969	12.08
675.157	12.25
675.344	12.48
675.532	12.64
675.72	12.76
675.908	12.88
676.095	12.89
676.283	12.94
676.471	13.04
676.658	13.07
676.846	13.22
677.033	13.49
677.221	13.54
677.409	13.61
677.596	13.74
677.784	13.81
677.971	13.7
678.159	13.81
678.346	13.92
678.534	14.04
678.721	14.22
678.909	14.42
679.096	14.51
679.283	14.73
679.471	14.86
679.658	15.11
679.846	15.31
680.033	15.62
680.22	15.67
680.408	15.67
680.595	15.76
680.782	15.82
680.969	15.86
681.157	16.14
681.344	16.41
681.531	16.51
681.718	16.72
681.905	17
682.093	17.22
682.28	17.51
682.467	17.9
682.654	18.07
682.841	18.31
683.028	18.49
683.215	18.75
683.402	18.79
683.589	19.01
683.776	19.29
683.963	19.55
684.15	19.71
684.337	20
684.524	20.3
684.711	20.78
684.898	20.95
685.085	21.28
685.271	21.75
685.458	22.01
685.645	22.08
685.832	22.44
686.019	22.88
686.205	23.11
686.392	23.53
686.579	23.9
686.766	24.34
686.952	24.78
687.139	25.4
687.326	25.75
687.512	26.26
687.699	26.8
687.886	27.06
688.072	27.23
688.259	27.97
688.445	28.47
688.632	28.92
688.818	29.74
689.005	30.61
689.191	30.92
689.378	31.44
689.564	32.1
689.751	32.38
689.937	32.74
690.124	33.51
690.31	34.02
690.496	34.47
690.683	35.14
690.869	35.71
691.055	36.21
691.242	36.86
691.428	37.47
691.614	38.15
691.8	38.84
691.987	39.46
692.173	40.11
692.359	40.83
692.545	41.56
692.731	42.06
692.918	42.71
693.104	43.3
693.29	43.83
693.476	44.46
693.662	45.07
693.848	45.58
694.034	46.35
694.22	47.16
694.406	47.85
694.592	48.55
694.778	49.13
694.964	49.64
695.15	50.06
695.336	50.27
695.522	51.05
695.708	51.73
695.894	52.06
696.08	52.78
696.265	53.55
696.451	53.96
696.637	54.44
696.823	55.22
697.009	55.53
697.194	56.01
697.38	56.37
697.566	57.06
697.751	57.72
697.937	58.39
698.123	59.01
698.308	59.57
698.494	60.13
698.68	60.27
698.865	60.44
699.051	60.79
699.236	61.21
699.422	61.45
699.607	62.02
699.793	62.55
699.978	62.95
700.164	63.38
700.349	63.94
700.535	64.11
700.72	64.41
700.906	65
701.091	65.33
701.276	65.58
701.462	66.3
701.647	67.13
701.832	66.97
702.018	67.46
702.203	67.51
702.388	67.43
702.573	67.61
702.759	68.26
702.944	68.17
703.129	68.62
703.314	69.1
703.499	69.29
703.684	69.54
703.87	70.68
704.055	71.33
704.24	71.61
704.425	71.99
704.61	71.95
704.795	71.77
704.98	71.49
705.165	71.53
705.35	71.74
705.535	72.37
705.72	72.42
705.905	72.81
706.09	73.6
706.275	73.59
706.459	73.46
706.644	73.69
706.829	74.03
707.014	73.59
707.199	74.01
707.384	74.41
707.568	74.75
707.753	75.24
707.938	75.69
708.123	75.61
708.307	75.67
708.492	75.65
708.677	75.35
708.861	75.41
709.046	75.46
709.231	76.07
709.415	76.34
709.6	76.5
709.784	76.72
709.969	76.96
710.153	76.67
710.338	76.72
710.522	76.97
710.707	77.17
710.891	77.53
711.076	77.64
711.26	77.46
711.445	77.68
711.629	77.84
711.813	77.83
711.998	78.19
712.182	78.21
712.366	78.56
712.551	78.87
712.735	79.03
712.919	78.73
713.103	79.25
713.288	78.79
713.472	78.23
713.656	78.6
713.84	78.55
714.024	78.74
714.208	78.69
714.393	79.18
714.577	79.04
714.761	79.14
714.945	78.79
715.129	79.11
715.313	79.47
715.497	79.51
715.681	80.35
715.865	80.44
716.049	80.4
716.233	80.27
716.417	80.18
716.601	79.88
716.785	79.85
716.968	80.14
717.152	80.05
717.336	80.16
717.52	80.43
717.704	80.69
717.888	80.86
718.071	80.93
718.255	81.05
718.439	80.61
718.622	80.86
718.806	81.3
718.99	81.04
719.174	81.06
719.357	81.44
719.541	81.7
719.724	81.38
719.908	82.23
720.092	82.58
720.275	82.33
720.459	82.09
720.642	82.14
720.826	81.62
721.009	81.13
721.193	80.79
721.376	80.89
721.559	81.05
721.743	81.46
721.926	81.78
722.11	82.57
722.293	82.35
722.476	82.19
722.66	82.24
722.843	82.11
723.026	81.71
723.21	82.07
723.393	82.32
723.576	81.77
723.759	81.93
723.942	82.08
724.126	82.29
724.309	82.14
724.492	82.76
724.675	83.05
724.858	83.16
725.041	83.08
725.224	83.48
725.407	83.24
725.59	83.29
725.774	83.31
725.957	82.96
726.14	82.78
726.322	82.93
726.505	82.93
726.688	83.35
726.871	84.09
727.054	83.99
727.237	84.06
727.42	84.35
727.603	84.1
727.786	84.25
727.968	83.99
728.151	84.14
728.334	84.09
728.517	84.47
728.699	84.42
728.882	84.62
729.065	85.19
729.248	84.93
729.43	84.79
729.613	85.09
729.796	86.05
729.978	85.31
730.161	85.87
730.343	85.94
730.526	87.03
730.708	86.27
730.891	86.71
731.073	86.52
731.256	86.76
731.438	85.25
731.621	85.97
731.803	85.84
731.986	86.18
732.168	85.91
732.35	86.8
732.533	86.92
732.715	87.08
732.898	86.87
733.08	86.88
733.262	86.56
733.444	86.02
733.627	86.48
733.809	86.7
733.991	87.55
734.173	87.85
734.355	87.95
734.538	88.41
734.72	88.15
734.902	88.36
735.084	88.05
735.266	88.2
735.448	88.29
735.63	88.97
735.812	88.82
735.994	88.82
736.176	89.55
736.358	89.19
736.54	89.52
736.722	89.09
736.904	89.37
737.086	89.32
737.268	89.99
737.45	89.34
737.632	89.47
737.814	88.91
737.995	88.46
738.177	87.75
738.359	87.89
738.541	88.35
738.723	89.2
738.904	90.16
739.086	90.71
739.268	90.88
739.449	90.77
739.631	90.17
739.813	90.07
739.994	89.65
740.176	89.64
740.358	89.55
740.539	90.18
740.721	89.92
740.902	90.51
741.084	90.25
741.265	90.16
741.447	90.1
741.628	90.72
741.81	90.38
741.991	91.04
742.172	92.13
742.354	92.96
742.535	92.38
742.717	92.9
742.898	93.21
743.079	92.59
743.261	91.98
743.442	91.27
743.623	91.8
743.804	91.45
743.986	91.92
744.167	91.5
744.348	91.99
744.529	90.54
744.71	89.71
744.891	88.81
745.073	88.25
745.254	88.03
745.435	88.14
745.616	88.23
745.797	88.43
745.978	88.36
746.159	88.97
746.34	88.92
746.521	89.95
746.702	90.59
746.883	90.7
747.064	89.53
747.245	89.26
747.426	88.97
747.606	89.03
747.787	90.4
747.968	91.2
748.149	91.07
748.33	92.04
748.51	91.57
748.691	90.31
748.872	90.57
749.053	90.68
749.233	89.81
749.414	89.54
749.595	89.34
749.775	88.47
749.956	88.92
750.137	88.34
750.317	88.62
750.498	90.32
750.678	91.22
750.859	91.17
751.04	92.04
751.22	91.31
751.4	89.64
751.581	88.77
751.761	88.97
751.942	89
752.122	89.37
752.303	89.46
752.483	89.88
752.663	89.02
752.844	87.77
753.024	88.55
753.204	90.3
753.385	89.08
753.565	89.39
753.745	88.64
753.925	87.15
754.106	84.89
754.286	85.32
754.466	84.96
754.646	85.8
754.826	87.02
755.006	86.6
755.187	87.31
755.367	88.41
755.547	88.63
755.727	88.85
755.907	89.92
756.087	91.25
756.267	89.36
756.447	90.61
756.627	88.69
756.807	88.68
756.987	86.93
757.167	87.85
757.346	86.98
757.526	86.82
757.706	87.01
757.886	87.72
758.066	88.66
758.246	89.23
758.425	89.76
758.605	89.36
758.785	88.51
758.965	88
759.144	85.4
759.324	86.24
759.504	87.68
759.683	88.13
759.863	87.3
760.043	89.04
760.222	87.88
760.402	86.29
760.581	85.56
760.761	86.78
760.94	85.73
761.12	86.35
761.299	87.36
761.479	88.67
761.658	86.83
761.838	86.87
762.017	86.66
762.197	86.66
762.376	85.41
762.555	86.54
762.735	87.72
762.914	86.62
763.093	85.88
763.273	85.93
763.452	85.53
763.631	85.41
763.81	86.84
763.99	86.01
764.169	85.88
764.348	84.85
764.527	84.32
764.706	84.44
764.885	85.41
765.064	84.34
765.243	85.24
765.423	86.3
765.602	85.27
765.781	84.17
765.96	84.15
766.139	83.78
766.318	82.97
766.497	83.43
766.676	84.24
766.854	84.97
767.033	85.13
767.212	84.16
767.391	83.87
767.57	84.22
767.749	84.36
767.928	86.57
768.106	87.08
768.285	87.03
768.464	87.18
768.643	86.48
768.821	84.83
769	85.56
769.179	84.41
769.357	82.2
769.536	81.86
769.715	81.94
769.893	82.67
770.072	82.53
770.25	84.44
770.429	86.58
770.607	84.49
770.786	82.78
770.964	83.67
771.143	83.64
771.321	83.91
771.5	85.45
771.678	85.45
771.857	84.03
772.035	82.83
772.213	80.83
772.392	79.6
772.57	79.86
772.748	81.2
772.927	81.16
773.105	81.31
773.283	82.47
773.461	81.97
773.64	82.78
773.818	82.74
773.996	84.26
774.174	83.58
774.352	82.97
774.531	80.64
774.709	81.78
774.887	79.63
775.065	79.22
775.243	78.64
775.421	81.12
775.599	82.43
775.777	80.41
775.955	79.57
776.133	79.82
776.311	79.39
776.489	77.57
776.667	78.97
776.844	76.95
777.022	76.88
777.2	76.47
777.378	75.85
777.556	76.57
777.734	80.96
777.911	84.38
778.089	83.11
778.267	83.96
778.445	82.12
778.622	80.73
778.8	77.66
778.978	78.46
779.155	76.81
779.333	79.8
779.511	80.68
779.688	83.08
779.866	81.22
780.043	76.94
780.221	75.64
780.398	73.5
780.576	71.33
780.753	72.38
780.931	74.75
781.108	74.94
781.286	77.15
781.463	76
781.64	73.77
781.818	75.73
781.995	75.96
782.172	74.29
782.35	75.7
782.527	80.27
782.704	81.75
782.882	82.67
783.059	82.31
783.236	83.01
783.413	82.06
783.59	81.82
783.768	78.8
783.945	81.91
784.122	80.29
784.299	80.39
784.476	78.02
784.653	77.46
784.83	74.35
785.007	71.53
785.184	70.81
785.361	71.8
785.538	78.21
785.715	79.35
785.892	83.35
786.069	83.9
786.246	82.5
786.423	79.86
786.6	80.04
786.776	79.93
786.953	79.53
787.13	82.72
787.307	80.03
787.484	78.51
787.66	77.96
787.837	79.93
788.014	75.14
788.191	75.01
788.367	74.21
788.544	75.85
788.721	72.47
788.897	75.68
789.074	74.18
789.25	74.67
789.427	73.9
789.603	75.31
789.78	76.85
789.956	78.62
790.133	76.96
790.309	76.64
790.486	79.35
790.662	74.62
790.839	75.76
791.015	78.43
791.192	75.44
791.368	76.32
791.544	78.42
791.721	78.99
791.897	79.6
792.073	78.75
792.249	71.38
792.426	71.88
792.602	71.64
792.778	70.44
792.954	72.09
793.13	75.33
793.307	70.82
793.483	64.23
793.659	65.27
793.835	70.35
794.011	70.21
794.187	73.57
794.363	74.86
794.539	76.28
794.715	70.61
794.891	74.28
795.067	73.1
795.243	79.01
795.419	76.59
795.595	75.28
795.771	70.71
795.947	71.12
796.122	65.91
796.298	68.11
796.474	69.83
796.65	69.79
796.826	76.81
797.001	79.38
797.177	75.17
797.353	76.69
797.529	74.94
797.704	69.33
797.88	69.48
798.056	67.93
798.231	68.11
798.407	73.32
798.582	76.22
798.758	80.99
798.934	85.02
799.109	81.3
799.285	81.13
799.46	77.8
799.636	70.02
799.811	73.13
799.986	75.4
800.162	70.54
800.337	73.6
800.513	72.41
800.688	69.11
800.863	75.11
801.039	72.01
801.214	65.25
801.389	73.61
801.565	73.38
801.74	61.82
801.915	70.77
802.09	71.87
802.265	72.09
802.441	67.13
802.616	75.41
802.791	71.26
802.966	72.09
803.141	66
803.316	67.21
803.491	70.37
803.666	74.37
803.841	70.73
804.016	73.76
804.191	80.84
804.366	74.26
804.541	70.37
804.716	73.92
804.891	68.96
805.066	67.23
805.241	59.68
805.416	60.8
805.591	59.7
805.765	66.93
805.94	64.89
806.115	66.84
806.29	64.6
806.464	61
806.639	60.5
806.814	59.07
806.989	57.93
807.163	62.04
807.338	66.88
807.512	61.01
807.687	50.43
807.862	61
808.036	61.44
808.211	67.29
808.385	72.59
808.56	88.24
808.734	94.86
808.909	87.62
809.083	81.93
809.258	83.99
809.432	83.94
809.606	73.17
809.781	81.82
809.955	87.11
810.13	83.16
810.304	73.73
810.478	64.05
810.652	64.32
810.827	55.34
811.001	53.89
811.175	52.21
811.349	55.93
811.524	51.53
811.698	41.56
811.872	41.04
812.046	51.97
812.22	56.72
812.394	53.61
812.568	69.67
812.742	81.21
812.916	75.61
813.09	72.26
813.264	74.5
813.438	75.35
813.612	63.52
813.786	59.82
813.96	69.39
814.134	72.67
814.308	73.65
814.482	77.22
814.656	75.22
814.83	74.99
815.003	79.24
815.177	67.13
815.351	62.29
815.525	55.24
815.698	46.79
815.872	39.53
816.046	30.73
816.219	37.26
816.393	57.72
816.567	66.28
816.74	61.86
816.914	74.9
817.088	76.62
817.261	68.85
817.435	69.31
817.608	76.46
817.782	72.17
817.955	76.12
818.129	67.12
818.302	62.21
818.475	68.65
818.649	70.75
818.822	59.08
818.996	68.41
819.169	78.7
819.342	62.78
819.516	63.91
819.689	72.15
819.862	63.81
820.035	56.25
820.209	61.06
820.382	66.49
820.555	60.76
820.728	51.7
820.901	53.02
821.075	52.45
821.248	53.44
821.421	52.55
821.594	57.61
821.767	64.33
821.94	72.72
822.113	46.37
822.286	49
822.459	56.62
822.632	55.08
822.805	40.3
822.978	47.45
823.151	48.31
823.324	45.8
823.496	30.35
823.669	35.91
823.842	36.77
824.015	32.04
824.188	34.5
824.361	42.34
824.533	42.9
824.706	48.21
824.879	42.84
825.051	44.81
825.224	46.24
825.397	44.14
825.569	50.16
825.742	66.91
825.915	88.15
826.087	93.72
826.26	70.53
826.432	79.32
826.605	79.1
826.777	70.35
826.95	63.43
827.122	67.42
827.295	56.22
827.467	62.46
827.64	38.09
827.812	32.59
827.984	40.02
828.157	41.11
828.329	24.88
828.501	36.97
828.674	49.04
828.846	43.43
829.018	54.2
829.19	29.37
829.363	42.37
829.535	49.97
829.707	63.95
829.879	55.96
830.051	76.57
830.223	63.76
830.395	49.96
830.568	33.12
830.74	32.16
830.912	45.16
831.084	27.05
831.256	31.93
831.428	33.45
831.6	12.75
831.772	-9.14
831.943	-7.92
832.115	0.42
832.287	13.1
832.459	35.87
832.631	46.71
832.803	63.35
832.975	62.65
833.146	58.01
833.318	40.87
833.49	41.97
833.662	38.58
833.833	31.17
834.005	21.42
834.177	37.78
834.348	39.79
834.52	33.25
834.692	41.4
834.863	32.41
835.035	17.63
835.206	-44.22
835.378	-24.14
835.549	-20.54
835.721	11.29
835.892	7.48
836.064	11.92
836.235	18.8
836.407	40.25
836.578	32.48
836.749	31.58
836.921	28.93
837.092	-14.25
837.264	-32.27
837.435	-54.73
837.606	-19.91
837.777	5.2
837.949	17.53
838.12	20.97
838.291	29.7
838.462	15.17
838.633	-1.88
838.805	6.77
838.976	12.95
839.147	-21.82
839.318	-25.98
839.489	-42.8
839.66	-57
839.831	-21.6
840.002	12
840.173	34.07
840.344	75.95
840.515	104.86
840.686	-17.96
840.857	-36.39
841.028	-51.55
841.199	-43.82
841.369	-44.72
841.54	4.79
841.711	32.64
841.882	54.59
842.053	40.89
842.223	35.92
842.394	22.3
842.565	8.44
842.736	23.47
842.906	40.67
843.077	54.3
843.248	92.81
843.418	93.19
843.589	57.77
843.759	60.31
843.93	55.16
844.101	19.71
844.271	44.32
844.442	49.49
844.612	53.83
844.783	15.34
844.953	-14.74
845.123	-85.43
845.294	-130.36
845.464	-332.99
845.635	-135.13
845.805	-24.31
845.975	33.92
846.146	33.62
846.316	17.57
846.486	32.26
846.656	52.56
846.827	38.55
846.997	41.53
847.167	56.28
847.337	30.06
847.507	-8.89
847.677	-5.25
847.848	41.58
848.018	35.11
848.188	41.51
848.358	39.7
848.528	21.77
848.698	-24.12
848.868	-84.76
849.038	-160.61
849.208	-53.24
849.378	-8.41
849.548	-12.6
849.718	9.13
849.887	27.01
850.057	1.18
850.227	-14.86
850.397	9.06
850.567	-36.44
850.737	-106.74
850.906	-325.63
851.076	-278.52
851.246	-48.43
851.415	55.09
851.585	18.06
851.755	-16.27
851.924	-0.52
852.094	-64.68
852.264	-170.46
852.433	-1150.48
852.603	-196.66
852.772	-228.16
852.942	-69.85
853.111	-46.61
853.281	-13.29
853.45	-4.31
853.62	-37.77
853.789	-47.82
853.959	-25.1
854.128	11.95
854.297	-14.57
854.467	-21.36
854.636	-10.92
854.805	-16.68
854.975	-61.69
855.144	-153.56
855.313	-131.82
855.482	-279.93
855.652	-166.73
855.821	-101.02
855.99	35.79
856.159	24.88
856.328	24.89
856.497	7.58
856.667	4.56
856.836	-3.92
857.005	-15.62
857.174	-52.24
857.343	-37.7
857.512	56.08
857.681	13.4
857.85	-74.65
858.019	-20.72
858.188	-18.72
858.356	-57.73
858.525	-100.06
858.694	-40.13
858.863	-108.87
859.032	-86.07
859.201	-124.25
859.369	-44.26
859.538	-26.7
859.707	-20.69
859.876	8.35
860.044	16.23
860.213	29.77
860.382	31.29
860.55	59.72
860.719	54.21
860.888	45.99
861.056	20.93
861.225	9.95
861.393	17.01
861.562	21.25
861.73	-32.13
861.899	-144.24
862.067	-1570.69
862.236	-78.79
862.404	-225.5
862.572	-97.7
862.741	-5.7
862.909	-12.74
863.078	-62.07
863.246	-1.12
863.414	33.01
863.582	15.9
863.751	12.43
863.919	-3.08
864.087	7.16
864.255	-0.38
864.424	-263.94
864.592	-3.95
864.76	-62.12
864.928	-2
865.096	-27.55
865.264	53.5
865.432	-394.32
865.6	238.75
865.768	3.88
865.936	-28.61
866.104	-38.64
866.272	-69.22
866.44	-238.39
866.608	550.82
866.776	275.34
866.944	1966.28
867.112	-442.16
867.28	-203.39
867.448	-55.36
867.615	-9.29
867.783	-33.89
867.951	-11.83
868.119	16.69
868.286	-26.82
868.454	-131.31
868.622	33.77
868.789	46.43
868.957	-2010.71
869.125	-1056.58
869.292	-16.83
869.46	-194.84
869.627	-5.13
869.795	51.21
869.963	53.13
870.13	47.41
870.298	56.13
870.465	-14.06
870.632	-65.61
870.8	-42.32
870.967	-70.4
871.135	-105.33
871.302	-36.57
871.469	35.95
871.637	69.57
871.804	42.31
871.971	66.5
872.139	-139.3
872.306	-6.83
872.473	-33.7
872.64	-205.79
872.807	-186.85
872.975	28.89
873.142	-70.73
873.309	331.08
873.476	80.69
873.643	161.96
873.81	77.71
873.977	72.99
874.144	45.93
874.311	-46.47
874.478	-107.2
874.645	-130.19
874.812	-107.33
874.979	-59.93
875.146	-77.11
875.313	-63.28
875.48	-7.37
875.647	-17.43
875.813	-45.31
875.98	-4.38
876.147	-23.9
876.314	-59.39
876.481	488.02
876.647	-383.71
876.814	195.6
876.981	104.04
877.147	22.81
877.314	27.91
877.481	11.22
877.647	-8.72
877.814	-35.02
877.98	-57.56
878.147	-57.75
878.314	-12.03
878.48	-12.68
878.647	12.74
878.813	60.18
878.979	80.94
879.146	51.9
879.312	39.06
879.479	-14.87
879.645	-116.06
879.811	-286.59
879.978	-691.22
880.144	-141.43
880.31	-59.83
880.477	-247.87
880.643	-295.6
880.809	-148.94
880.975	-144.69
881.142	-992.27
881.308	-114.75
881.474	-51.69
881.64	-32.52
881.806	-93.16
881.972	-5.22
882.138	6.58
882.304	-15.42
882.47	-102.52
882.636	-476.64
882.802	-264.49
882.968	-87.97
883.134	-19.36
883.3	-30.28
883.466	23.65
883.632	69.53
883.798	44.28
883.964	36.63
884.129	51.63
884.295	34.5
884.461	-28.54
884.627	-45.77
884.793	-93.43
884.958	-52.53
885.124	-121.47
885.29	-178.79
885.455	-298.3
885.621	-55.26
885.787	-121.72
885.952	-38.35
886.118	-54.05
886.283	-65.36
886.449	-186.02
886.614	-168.66
886.78	-314.81
886.945	1150
887.111	-473.12
887.276	-344.03
887.442	-850.45
887.607	-483.73
887.773	-316.08
887.938	-284.2
888.103	-284.98
888.269	-167.02
888.434	-267.3
888.599	-80.21
888.764	-33.89
888.93	-18.73
889.095	-19.83
889.26	-49.13
889.425	-36.35
889.59	34.58
889.756	17.77
889.921	32.38
890.086	77.35
890.251	48.41
890.416	-79.52
890.581	-816.94
890.746	193.75
890.911	320.7
891.076	111
891.241	-138.43
891.406	31.26
891.571	-2.73
891.736	-175.92
891.901	-299.56
892.065	543.41
892.23	132.86
892.395	146.67
892.56	168.93
892.725	-224.61
892.889	23.17
893.054	34.23
893.219	17.05
893.384	14.72
893.548	-19.72
893.713	-47.94
893.878	-35.28
