Data from Ofra_PS_Phys_2GT41_Reflection_2.txt Node
Date: Tue Jul 20 20:42:05 EDT 2021
User: USUARIO
Spectrometer: FLMT01687
Trigger mode: 0
Integration Time (sec): 1.042999E0
Scans to average: 2
Electric dark correction enabled: true
Nonlinearity correction enabled: false
Boxcar width: 2
XAxis mode: Wavelengths
Number of Pixels in Spectrum: 3648
>>>>>Begin Spectral Data<<<<<
179.494	-31.46
179.716	-87.11
179.937	-98.97
180.158	-7.66
180.38	-7.93
180.601	-13.78
180.823	36.17
181.044	46.96
181.265	165.92
181.486	43.65
181.708	10.33
181.929	54.21
182.15	300.66
182.372	-1.29
182.593	26.8
182.814	52.44
183.035	59.37
183.257	17.67
183.478	-128.94
183.699	-167.84
183.92	-65.46
184.141	-93.56
184.363	-43.9
184.584	37.53
184.805	80.85
185.026	86.15
185.247	52.08
185.468	47.92
185.689	49.65
185.91	30.23
186.132	-7.84
186.353	10.4
186.574	19.55
186.795	36.06
187.016	53.1
187.237	57.43
187.458	60.22
187.679	54.28
187.9	47.15
188.121	46.88
188.342	40.91
188.563	42.85
188.784	42.71
189.005	29.61
189.226	41.38
189.447	55.21
189.667	60.18
189.888	42
190.109	58.8
190.33	55.95
190.551	34.59
190.772	-27.49
190.993	37.41
191.214	11.06
191.434	24.53
191.655	53.2
191.876	66.28
192.097	65.42
192.318	81.8
192.538	57.04
192.759	53.39
192.98	34.17
193.201	14.37
193.421	38.22
193.642	73.04
193.863	56.24
194.083	57.04
194.304	73.53
194.525	49.25
194.745	42.58
194.966	30.82
195.187	29.53
195.407	6.96
195.628	-0.99
195.848	2.44
196.069	41.37
196.29	53.22
196.51	59.08
196.731	58.84
196.951	60.44
197.172	60.2
197.392	52.28
197.613	40.17
197.833	51.1
198.054	30.73
198.274	32.8
198.495	45.4
198.715	50.43
198.936	40.63
199.156	54.9
199.377	57.12
199.597	42.38
199.817	53.62
200.038	46.92
200.258	61.23
200.479	45.42
200.699	50.5
200.919	57.19
201.14	70.73
201.36	49.58
201.58	106.46
201.801	88.01
202.021	18.61
202.241	25.75
202.461	27.33
202.682	33.61
202.902	27.66
203.122	69.85
203.342	50.6
203.563	42.49
203.783	44.38
204.003	36.95
204.223	54.54
204.443	60.04
204.663	59.08
204.884	44.4
205.104	58.67
205.324	40.32
205.544	45.86
205.764	56.44
205.984	50.17
206.204	19.28
206.424	18.04
206.644	13.18
206.864	29.39
207.084	27.47
207.304	21.78
207.525	20.57
207.745	-0.56
207.964	-3.24
208.184	29.93
208.404	55.91
208.624	78.05
208.844	77.17
209.064	74.99
209.284	30.61
209.504	28.13
209.724	0.26
209.944	-12.87
210.164	-2.92
210.384	28.1
210.604	20.48
210.823	19.5
211.043	22.25
211.263	10.14
211.483	-2.81
211.703	-11.89
211.922	15.01
212.142	12.27
212.362	36.1
212.582	26.01
212.801	24.48
213.021	-0.02
213.241	3.65
213.461	14
213.68	-18.16
213.9	-20.24
214.12	-39.55
214.339	-57.23
214.559	-27.03
214.779	6.46
214.998	17.62
215.218	23.15
215.438	23.8
215.657	21.06
215.877	19.88
216.096	36.96
216.316	36.94
216.535	43.91
216.755	35.36
216.974	41.34
217.194	22.31
217.413	26.06
217.633	37.09
217.852	42.26
218.072	42.72
218.291	31.46
218.511	43.1
218.73	24.51
218.95	34.36
219.169	23.8
219.389	29.9
219.608	42.12
219.827	51.41
220.047	42.8
220.266	38.67
220.485	39.03
220.705	32.12
220.924	35.21
221.143	40.38
221.363	43.01
221.582	30.45
221.801	42.11
222.021	31.8
222.24	29.71
222.459	21.92
222.678	21.4
222.897	6.4
223.117	9.55
223.336	17.7
223.555	42.38
223.774	50.52
223.993	59.99
224.213	44.66
224.432	29.88
224.651	24.66
224.87	19.63
225.089	-17.05
225.308	1.21
225.527	15.08
225.746	14.66
225.965	37.87
226.184	47.57
226.404	21.19
226.623	-1.19
226.842	11.66
227.061	29.9
227.28	16.39
227.499	34.45
227.718	50.41
227.936	37.49
228.155	22.81
228.374	21.81
228.593	18.3
228.812	12.1
229.031	6.36
229.25	4.18
229.469	11.56
229.688	18.35
229.907	21.48
230.125	38.04
230.344	40.04
230.563	51.91
230.782	50.38
231.001	52.58
231.22	54.92
231.438	46.84
231.657	-5.11
231.876	1.65
232.095	-18.06
232.313	-30.26
232.532	-19.89
232.751	11.14
232.969	-0.85
233.188	37.93
233.407	53.83
233.625	37.69
233.844	39.12
234.063	39.7
234.281	21.79
234.5	10.29
234.719	20.55
234.937	18.72
235.156	18.81
235.374	47.17
235.593	56.63
235.811	51.66
236.03	48.73
236.249	46.11
236.467	33.3
236.686	12.67
236.904	16.32
237.123	24.32
237.341	25.85
237.559	20.28
237.778	18.94
237.996	9.13
238.215	19.61
238.433	36.23
238.652	41.31
238.87	47.08
239.088	57.62
239.307	45.19
239.525	41.13
239.743	36.91
239.962	35.55
240.18	33.29
240.398	30.57
240.617	26.8
240.835	23.74
241.053	27.97
241.271	28.64
241.49	21.21
241.708	27.31
241.926	26.03
242.144	25.28
242.363	21.2
242.581	31.05
242.799	29.44
243.017	21.6
243.235	19.91
243.453	7.39
243.672	13.26
243.89	4.46
244.108	23.67
244.326	32.81
244.544	31.24
244.762	24.92
244.98	20.91
245.198	13.5
245.416	1.39
245.634	7.93
245.852	3.18
246.07	11.67
246.288	5.97
246.506	22.73
246.724	7.73
246.942	12.53
247.16	-2.72
247.378	13.52
247.596	11.13
247.814	25.47
248.032	24.06
248.25	38.77
248.468	36.9
248.685	36.5
248.903	47.34
249.121	56.08
249.339	45.45
249.557	28.4
249.775	16.81
249.992	17.21
250.21	7.78
250.428	4.8
250.646	36.94
250.863	65.19
251.081	29.69
251.299	20.34
251.517	-2.5
251.734	-16.49
251.952	-24.56
252.17	-0.62
252.387	35.09
252.605	64.06
252.823	63.84
253.04	58.23
253.258	51.13
253.475	45.92
253.693	46.22
253.911	49.04
254.128	49.04
254.346	74.56
254.563	70.15
254.781	48.71
254.998	35.08
255.216	17.09
255.433	-0.03
255.651	10.43
255.868	44.78
256.086	60.71
256.303	54.83
256.521	44.35
256.738	20.78
256.956	11.92
257.173	10.13
257.39	15.75
257.608	14.05
257.825	9.81
258.043	33.61
258.26	23.3
258.477	32.59
258.695	30.16
258.912	42.75
259.129	39.22
259.346	45.13
259.564	47.6
259.781	71.08
259.998	79.27
260.216	56.86
260.433	56.41
260.65	50.29
260.867	50.06
261.084	30.01
261.302	31.23
261.519	38.23
261.736	31.06
261.953	17.8
262.17	24.62
262.387	27.89
262.604	22.15
262.822	23.13
263.039	24.32
263.256	33.2
263.473	37.56
263.69	26.45
263.907	51.22
264.124	40.25
264.341	45.48
264.558	9.52
264.775	-17.6
264.992	-11.3
265.209	29.28
265.426	6.52
265.643	25.88
265.86	55.09
266.077	36.31
266.294	29.65
266.51	26.65
266.727	40.92
266.944	37.9
267.161	37.62
267.378	32.6
267.595	43.82
267.812	29.23
268.028	4.42
268.245	10.5
268.462	13.7
268.679	0.8
268.896	19.76
269.112	40.85
269.329	46.85
269.546	42.05
269.763	47.63
269.979	36.76
270.196	20.68
270.413	14.12
270.629	15.71
270.846	19.78
271.063	30.32
271.279	25.84
271.496	31.57
271.712	38.8
271.929	29.24
272.146	0.19
272.362	15.1
272.579	21.66
272.795	22.32
273.012	18.6
273.228	12.41
273.445	8.74
273.661	4.42
273.878	13.89
274.094	42.79
274.311	57.95
274.527	58.35
274.744	40.43
274.96	35.07
275.177	30.16
275.393	15.64
275.609	-16.06
275.826	7.17
276.042	-1.57
276.259	-6.83
276.475	11.49
276.691	49.59
276.908	49.48
277.124	43.27
277.34	35.29
277.557	24.11
277.773	16.2
277.989	8.67
278.205	10.02
278.422	3.96
278.638	26.07
278.854	14.05
279.07	20.5
279.286	18.25
279.503	35.96
279.719	3.07
279.935	24.83
280.151	19.95
280.367	12.95
280.583	6.99
280.799	31.24
281.016	22.61
281.232	25.5
281.448	46.61
281.664	44.25
281.88	16.98
282.096	13.31
282.312	-5.79
282.528	-11.9
282.744	-12.91
282.96	17.74
283.176	33.01
283.392	37.57
283.608	41.36
283.824	46.61
284.04	46.26
284.256	24.54
284.471	32.78
284.687	30.55
284.903	27.48
285.119	25.47
285.335	36.01
285.551	19.24
285.767	21.82
285.982	8.95
286.198	14.79
286.414	8.02
286.63	21.24
286.846	-3.13
287.061	8.69
287.277	-17.74
287.493	0.86
287.709	-10.38
287.924	10.57
288.14	22.11
288.356	30.05
288.571	30.74
288.787	31.31
289.003	25.68
289.218	37.11
289.434	29.25
289.65	22.16
289.865	24.43
290.081	27.38
290.296	-2.06
290.512	10.55
290.727	13.23
290.943	19.46
291.159	5.99
291.374	23.31
291.59	23.82
291.805	26.71
292.021	28.04
292.236	40.92
292.451	38.41
292.667	44.32
292.882	27.7
293.098	32.69
293.313	32.1
293.529	27.73
293.744	23.34
293.959	40.53
294.175	35.97
294.39	33.36
294.605	20.94
294.821	27.84
295.036	19.51
295.251	12.52
295.467	-1.92
295.682	18.91
295.897	15.57
296.112	25.17
296.328	25.44
296.543	35.16
296.758	30.33
296.973	32.42
297.188	20.67
297.404	21.29
297.619	33.72
297.834	23.48
298.049	36.72
298.264	38.77
298.479	47.66
298.694	39.31
298.909	55.8
299.125	45.57
299.34	35.71
299.555	29.5
299.77	36.41
299.985	42.92
300.2	41.04
300.415	45.53
300.63	50.92
300.845	35.08
301.06	37.68
301.275	30.53
301.49	23.27
301.704	10.82
301.919	29.57
302.134	12.24
302.349	8.44
302.564	23.89
302.779	25.23
302.994	10
303.209	3.9
303.423	19.21
303.638	27.01
303.853	24.55
304.068	50.16
304.283	50.93
304.497	29.59
304.712	27.94
304.927	46.58
305.142	53.44
305.356	60.56
305.571	70.89
305.786	64.76
306	56.4
306.215	44.92
306.43	36.65
306.644	30.96
306.859	44.69
307.074	25.86
307.288	35.55
307.503	28.1
307.717	19.17
307.932	14.5
308.147	15.68
308.361	11.79
308.576	11.56
308.79	28.15
309.005	-2.9
309.219	6.27
309.434	3.23
309.648	12.45
309.863	3.88
310.077	21.95
310.292	26.28
310.506	21.84
310.72	26.74
310.935	30.7
311.149	33.67
311.364	52.21
311.578	62.35
311.792	54.68
312.007	42.48
312.221	48.99
312.435	28.35
312.649	20.82
312.864	44.04
313.078	46.61
313.292	41.35
313.507	45.45
313.721	42.99
313.935	23.39
314.149	31.7
314.363	21.96
314.578	10.38
314.792	14.02
315.006	21.48
315.22	11.27
315.434	18.6
315.648	27.92
315.862	32.33
316.077	45.54
316.291	63.77
316.505	53.45
316.719	59.17
316.933	53.26
317.147	31.23
317.361	7.87
317.575	12.65
317.789	-7.9
318.003	-24.95
318.217	-9.12
318.431	18.56
318.645	21.89
318.859	14.76
319.073	22.36
319.287	17.22
319.5	15.26
319.714	15.48
319.928	31.56
320.142	34.04
320.356	48.81
320.57	51.19
320.784	56.27
320.997	40.35
321.211	31.98
321.425	33.98
321.639	45.17
321.853	37.79
322.066	46.59
322.28	48.53
322.494	49.47
322.707	30.56
322.921	20.36
323.135	20.39
323.349	17.1
323.562	4.3
323.776	6.62
323.989	19.37
324.203	16.92
324.417	27.79
324.63	27.8
324.844	34.4
325.057	37.99
325.271	36.48
325.485	23.17
325.698	25.17
325.912	14.71
326.125	20.66
326.339	27.11
326.552	47.01
326.766	40.87
326.979	46.87
327.193	62.94
327.406	53.14
327.619	36.25
327.833	38.42
328.046	38.54
328.26	14.66
328.473	24.21
328.686	24.87
328.9	25.9
329.113	33.1
329.326	37.51
329.54	25.75
329.753	30.84
329.966	25.79
330.179	27.33
330.393	37.84
330.606	42.75
330.819	26.05
331.032	22.72
331.246	23.03
331.459	13.04
331.672	-14.79
331.885	4.22
332.098	18
332.311	1.52
332.525	17.87
332.738	40.17
332.951	33.77
333.164	47.13
333.377	47.92
333.59	31.14
333.803	11.34
334.016	8.74
334.229	-14.84
334.442	-4.25
334.655	-5.14
334.868	1.09
335.081	13.71
335.294	18.45
335.507	11.79
335.72	17.98
335.933	30.21
336.146	33.6
336.359	32.72
336.572	30.2
336.785	22.73
336.997	22.26
337.21	22.28
337.423	28.14
337.636	37.19
337.849	54.57
338.062	63.63
338.274	73.87
338.487	70.24
338.7	60.37
338.913	49.51
339.125	32.04
339.338	13.09
339.551	-5.73
339.763	14.86
339.976	21.85
340.189	22.92
340.402	31.93
340.614	46.87
340.827	38.61
341.039	45.03
341.252	45.37
341.465	41.45
341.677	16.72
341.89	-3.95
342.102	-0.02
342.315	2.18
342.527	9.11
342.74	20.51
342.952	40.31
343.165	35.57
343.377	45.22
343.59	34.33
343.802	41.02
344.015	40.87
344.227	34.33
344.44	27.95
344.652	30.97
344.864	31.14
345.077	7.3
345.289	13.36
345.502	-1.56
345.714	-32.14
345.926	-64.24
346.139	-17.82
346.351	-16.49
346.563	15.82
346.775	37.26
346.988	45.63
347.2	49.08
347.412	57.05
347.624	49.65
347.837	42.87
348.049	35.05
348.261	24.44
348.473	-33.63
348.685	-15.08
348.897	-15.71
349.11	0.43
349.322	4.1
349.534	26.1
349.746	6.02
349.958	2.8
350.17	1.98
350.382	4.6
350.594	8.12
350.806	24.39
351.018	43.18
351.23	36.78
351.442	34.27
351.654	27.13
351.866	22.61
352.078	8.57
352.29	19.06
352.502	17.4
352.714	17.27
352.926	22
353.138	25.78
353.35	19.18
353.561	24.64
353.773	30.39
353.985	41.18
354.197	44.45
354.409	46.85
354.621	39.95
354.832	34.19
355.044	29.93
355.256	27.68
355.468	23.98
355.679	20.58
355.891	17.5
356.103	6.98
356.314	12.29
356.526	24.73
356.738	28.1
356.949	37.01
357.161	49.91
357.373	54.02
357.584	45.05
357.796	43.86
358.008	46.05
358.219	41.63
358.431	36.63
358.642	36.07
358.854	38.91
359.065	26.42
359.277	5.2
359.488	3.79
359.7	-5.93
359.911	-7.61
360.123	-0.42
360.334	3.29
360.546	17.67
360.757	32.42
360.969	34.4
361.18	35.12
361.391	45.88
361.603	38.88
361.814	23.83
362.025	19.63
362.237	17.15
362.448	4.46
362.659	-1.61
362.871	16.37
363.082	8.5
363.293	5.29
363.504	7.83
363.716	12.16
363.927	10.75
364.138	22.94
364.349	30.02
364.56	27.65
364.772	26.72
364.983	16.07
365.194	6.38
365.405	-5.81
365.616	-4.08
365.827	5.84
366.038	6.19
366.25	3.84
366.461	13.93
366.672	17.99
366.883	2.26
367.094	11.11
367.305	14.33
367.516	9.56
367.727	23.93
367.938	30.94
368.149	18.54
368.36	17.78
368.571	28.32
368.781	21.64
368.992	8.18
369.203	24.94
369.414	29.16
369.625	23.38
369.836	20.93
370.047	34.53
370.258	22.87
370.468	20.8
370.679	19.27
370.89	6.09
371.101	8.34
371.312	4.84
371.522	7.65
371.733	7.95
371.944	15.37
372.155	16.65
372.365	13.92
372.576	17.65
372.787	17.24
372.997	25.34
373.208	15.15
373.419	22.05
373.629	9.73
373.84	-0.19
374.05	-1.88
374.261	11.13
374.472	8.77
374.682	15.25
374.893	24.1
375.103	16.43
375.314	15.35
375.524	23.59
375.735	20.15
375.945	18.48
376.156	26.71
376.366	22.26
376.577	13.75
376.787	19.11
376.997	24
377.208	19.55
377.418	21.38
377.629	30.2
377.839	33.99
378.049	41.12
378.26	41.33
378.47	46.76
378.68	39.23
378.89	27.96
379.101	6.7
379.311	5.34
379.521	4.37
379.732	9.09
379.942	22.87
380.152	25.82
380.362	16.03
380.572	21.75
380.783	19.72
380.993	21.95
381.203	31.17
381.413	40.48
381.623	36.88
381.833	40.79
382.043	30.23
382.253	20.17
382.463	29.02
382.674	28.81
382.884	18.87
383.094	19.09
383.304	22.94
383.514	20.36
383.724	16.31
383.934	21.94
384.144	27.79
384.353	27.2
384.563	13.61
384.773	13.77
384.983	10.43
385.193	10.82
385.403	-0.01
385.613	15.26
385.823	7.46
386.033	4.95
386.242	3.73
386.452	11.96
386.662	7.06
386.872	10.32
387.082	7.5
387.291	7.62
387.501	7.3
387.711	5.36
387.921	6.58
388.13	14.52
388.34	12.91
388.55	12.86
388.759	10.23
388.969	10.77
389.179	10.29
389.388	9.52
389.598	8.94
389.807	13.79
390.017	13.01
390.227	9.22
390.436	9.58
390.646	8.33
390.855	6.92
391.065	6.84
391.274	8.38
391.484	11.88
391.693	14.74
391.903	12.83
392.112	10.78
392.322	8.96
392.531	6.44
392.74	4.2
392.95	4.09
393.159	4.28
393.369	7.05
393.578	6.12
393.787	6.72
393.997	8.74
394.206	10.67
394.415	8.46
394.625	8.55
394.834	7.56
395.043	7.12
395.252	6.06
395.462	5.82
395.671	4.29
395.88	5.19
396.089	4.01
396.298	4.69
396.508	5.06
396.717	6.2
396.926	6.02
397.135	6.56
397.344	5.78
397.553	6.23
397.762	5.99
397.971	5.41
398.181	4.88
398.39	4.88
398.599	4.68
398.808	4.5
399.017	5.21
399.226	5.99
399.435	5.95
399.644	6.74
399.853	6.62
400.062	6.2
400.27	5.94
400.479	6
400.688	5.31
400.897	5.65
401.106	5.48
401.315	5.42
401.524	5.39
401.733	5.07
401.941	4.61
402.15	4.29
402.359	4.21
402.568	4.15
402.777	4.15
402.985	4.03
403.194	4.5
403.403	4.43
403.612	4.41
403.82	4.44
404.029	4.72
404.238	4.57
404.446	4.72
404.655	4.52
404.864	4.84
405.072	4.72
405.281	4.87
405.489	4.71
405.698	4.92
405.906	4.76
406.115	5.04
406.324	4.72
406.532	4.68
406.741	4.75
406.949	4.92
407.158	4.76
407.366	4.92
407.574	4.73
407.783	4.58
407.991	4.33
408.2	4.41
408.408	4.44
408.617	4.63
408.825	4.79
409.033	4.89
409.242	4.9
409.45	4.86
409.658	4.89
409.867	4.78
410.075	4.76
410.283	4.65
410.491	4.56
410.7	4.62
410.908	4.65
411.116	4.75
411.324	4.73
411.533	4.72
411.741	4.6
411.949	4.73
412.157	4.43
412.365	4.5
412.573	4.65
412.781	4.75
412.99	4.52
413.198	4.73
413.406	4.67
413.614	4.54
413.822	4.59
414.03	4.64
414.238	4.62
414.446	4.64
414.654	4.71
414.862	4.59
415.07	4.75
415.278	4.68
415.486	4.74
415.694	4.75
415.902	4.72
416.109	4.54
416.317	4.75
416.525	4.72
416.733	4.46
416.941	4.46
417.149	4.51
417.357	4.39
417.564	4.3
417.772	4.41
417.98	4.6
418.188	4.45
418.395	4.46
418.603	4.55
418.811	4.61
419.019	4.4
419.226	4.63
419.434	4.53
419.642	4.33
419.849	4.28
420.057	4.16
420.265	4.12
420.472	4.04
420.68	4.12
420.887	4.14
421.095	4.21
421.302	3.98
421.51	3.9
421.717	3.95
421.925	4.19
422.132	4.35
422.34	4.34
422.547	4.3
422.755	4.32
422.962	3.97
423.17	3.82
423.377	4.05
423.585	4.26
423.792	4.08
423.999	4.16
424.207	4.08
424.414	3.98
424.621	3.8
424.829	3.75
425.036	3.79
425.243	3.89
425.451	3.77
425.658	3.78
425.865	3.95
426.072	4.06
426.28	4.16
426.487	4.33
426.694	4.44
426.901	4.43
427.108	4.25
427.315	4.09
427.523	4.14
427.73	4.03
427.937	4
428.144	4.05
428.351	4.12
428.558	4.1
428.765	4.09
428.972	4.07
429.179	4.01
429.386	4.06
429.593	3.96
429.8	3.99
430.007	4.03
430.214	4.13
430.421	4.12
430.628	4.1
430.835	4.08
431.042	4.08
431.249	4.11
431.456	4.01
431.662	4.04
431.869	4.3
432.076	4.39
432.283	4.26
432.49	4.32
432.697	4.21
432.903	4.05
433.11	3.87
433.317	3.94
433.524	3.93
433.73	3.9
433.937	3.94
434.144	4.01
434.35	4.09
434.557	3.99
434.764	4.03
434.97	3.98
435.177	4.06
435.384	3.93
435.59	4.09
435.797	4.19
436.003	4.42
436.21	4.46
436.416	4.45
436.623	4.28
436.829	4.27
437.036	4.03
437.242	3.92
437.449	4.02
437.655	4.02
437.862	3.99
438.068	4.1
438.275	4.09
438.481	4.03
438.687	4.02
438.894	3.97
439.1	3.84
439.307	3.97
439.513	4.04
439.719	4.06
439.926	4.12
440.132	4.2
440.338	4
440.544	3.77
440.751	3.85
440.957	3.77
441.163	3.76
441.369	3.98
441.575	4.15
441.782	4.08
441.988	4.17
442.194	4.16
442.4	4.1
442.606	4.19
442.812	4.21
443.018	4.14
443.224	4.13
443.431	4.16
443.637	4.07
443.843	4.04
444.049	4.04
444.255	4.05
444.461	3.91
444.667	4
444.873	4.04
445.079	4.16
445.284	4.15
445.49	4.21
445.696	4.1
445.902	4.09
446.108	4.04
446.314	4.08
446.52	4.04
446.726	4.08
446.931	4.11
447.137	4.11
447.343	4.13
447.549	4.13
447.755	4.19
447.96	4.24
448.166	4.22
448.372	4.26
448.578	4.36
448.783	4.25
448.989	4.24
449.195	4.24
449.4	4.18
449.606	4.06
449.812	4.16
450.017	4.17
450.223	4.13
450.428	4.12
450.634	4.12
450.84	4.16
451.045	4.15
451.251	4.26
451.456	4.26
451.662	4.39
451.867	4.39
452.073	4.42
452.278	4.37
452.483	4.35
452.689	4.24
452.894	4.32
453.1	4.28
453.305	4.3
453.51	4.34
453.716	4.35
453.921	4.35
454.127	4.36
454.332	4.3
454.537	4.29
454.742	4.32
454.948	4.15
455.153	4.16
455.358	4.19
455.563	4.2
455.769	4.14
455.974	4.18
456.179	4.11
456.384	4.08
456.589	3.99
456.795	4.06
457	4.05
457.205	4.17
457.41	4.2
457.615	4.26
457.82	4.32
458.025	4.24
458.23	4.17
458.435	4.14
458.64	4.11
458.845	4.08
459.05	4.15
459.255	4.22
459.46	4.26
459.665	4.31
459.87	4.36
460.075	4.36
460.28	4.35
460.485	4.4
460.69	4.44
460.895	4.45
461.099	4.48
461.304	4.46
461.509	4.34
461.714	4.31
461.919	4.28
462.123	4.24
462.328	4.2
462.533	4.31
462.738	4.38
462.942	4.43
463.147	4.5
463.352	4.59
463.556	4.54
463.761	4.47
463.966	4.4
464.17	4.38
464.375	4.38
464.58	4.37
464.784	4.47
464.989	4.45
465.193	4.52
465.398	4.52
465.602	4.54
465.807	4.46
466.011	4.52
466.216	4.44
466.42	4.43
466.625	4.53
466.829	4.54
467.034	4.61
467.238	4.69
467.443	4.62
467.647	4.54
467.851	4.45
468.056	4.37
468.26	4.26
468.464	4.32
468.669	4.31
468.873	4.35
469.077	4.32
469.282	4.39
469.486	4.43
469.69	4.5
469.894	4.54
470.099	4.59
470.303	4.68
470.507	4.72
470.711	4.73
470.915	4.75
471.119	4.84
471.324	4.8
471.528	4.73
471.732	4.66
471.936	4.76
472.14	4.76
472.344	4.77
472.548	4.81
472.752	4.94
472.956	4.85
473.16	4.86
473.364	4.81
473.568	4.8
473.772	4.75
473.976	4.79
474.18	4.74
474.384	4.74
474.588	4.78
474.792	4.79
474.995	4.77
475.199	4.82
475.403	4.91
475.607	4.89
475.811	4.87
476.015	4.88
476.218	4.85
476.422	4.82
476.626	4.81
476.83	4.8
477.033	4.88
477.237	4.89
477.441	4.9
477.644	4.94
477.848	4.95
478.052	4.9
478.255	4.89
478.459	4.91
478.663	4.93
478.866	4.99
479.07	4.99
479.273	5.04
479.477	5
479.681	5
479.884	4.91
480.088	4.93
480.291	4.92
480.495	4.93
480.698	4.93
480.901	5
481.105	4.95
481.308	4.87
481.512	4.91
481.715	4.97
481.919	5.02
482.122	5.03
482.325	5.17
482.529	5.14
482.732	5.08
482.935	5.03
483.138	5.07
483.342	4.96
483.545	5.02
483.748	4.89
483.952	4.94
484.155	4.95
484.358	4.95
484.561	4.92
484.764	5.04
484.967	5.03
485.171	5.08
485.374	5.16
485.577	5.09
485.78	5.09
485.983	5.1
486.186	5.01
486.389	4.95
486.592	5
486.795	5.03
486.998	4.98
487.201	5.01
487.404	5.03
487.607	5.11
487.81	5.21
488.013	5.32
488.216	5.29
488.419	5.23
488.622	5.14
488.825	5.01
489.028	4.92
489.231	4.92
489.433	4.87
489.636	4.91
489.839	4.93
490.042	4.93
490.245	4.94
490.447	5.04
490.65	5.01
490.853	4.97
491.056	4.94
491.258	4.96
491.461	4.91
491.664	4.96
491.866	4.91
492.069	4.93
492.272	4.96
492.474	4.92
492.677	4.9
492.879	4.97
493.082	5
493.285	5.02
493.487	5.12
493.69	5.15
493.892	5.08
494.095	5.02
494.297	4.96
494.5	4.93
494.702	4.9
494.905	4.96
495.107	4.99
495.309	5.1
495.512	5.16
495.714	5.15
495.917	5.15
496.119	5.13
496.321	5.06
496.524	5
496.726	5.04
496.928	5.05
497.13	5.1
497.333	5.12
497.535	5.19
497.737	5.15
497.939	5.16
498.142	5.17
498.344	5.16
498.546	5.14
498.748	5.18
498.95	5.2
499.152	5.12
499.355	5.13
499.557	5.05
499.759	5.05
499.961	5.06
500.163	5.16
500.365	5.19
500.567	5.24
500.769	5.2
500.971	5.21
501.173	5.15
501.375	5.12
501.577	5.12
501.779	5.19
501.981	5.15
502.183	5.17
502.385	5.22
502.587	5.25
502.788	5.28
502.99	5.28
503.192	5.34
503.394	5.3
503.596	5.25
503.798	5.27
503.999	5.31
504.201	5.29
504.403	5.31
504.605	5.36
504.806	5.4
505.008	5.39
505.21	5.39
505.411	5.46
505.613	5.48
505.815	5.42
506.016	5.48
506.218	5.46
506.42	5.35
506.621	5.32
506.823	5.36
507.024	5.34
507.226	5.41
507.427	5.45
507.629	5.52
507.83	5.47
508.032	5.5
508.233	5.51
508.435	5.53
508.636	5.47
508.838	5.5
509.039	5.52
509.24	5.49
509.442	5.5
509.643	5.49
509.845	5.45
510.046	5.47
510.247	5.42
510.448	5.42
510.65	5.48
510.851	5.49
511.052	5.52
511.254	5.67
511.455	5.7
511.656	5.69
511.857	5.76
512.058	5.69
512.26	5.65
512.461	5.66
512.662	5.67
512.863	5.65
513.064	5.72
513.265	5.72
513.466	5.73
513.667	5.79
513.868	5.77
514.069	5.77
514.27	5.73
514.471	5.73
514.672	5.67
514.873	5.66
515.074	5.6
515.275	5.64
515.476	5.62
515.677	5.67
515.878	5.77
516.079	5.84
516.28	5.83
516.481	5.86
516.682	5.83
516.882	5.77
517.083	5.75
517.284	5.79
517.485	5.84
517.686	5.87
517.886	5.92
518.087	5.91
518.288	5.92
518.488	5.91
518.689	5.91
518.89	5.91
519.091	5.93
519.291	5.91
519.492	5.86
519.692	5.88
519.893	5.94
520.094	5.93
520.294	5.96
520.495	5.99
520.695	6
520.896	5.93
521.096	5.95
521.297	5.94
521.497	5.96
521.698	5.96
521.898	5.97
522.099	6.03
522.299	6.08
522.499	6.05
522.7	6.05
522.9	6.07
523.101	6.01
523.301	6.01
523.501	6.06
523.702	6.08
523.902	6.09
524.102	6.13
524.302	6.12
524.503	6.14
524.703	6.18
524.903	6.2
525.103	6.22
525.304	6.22
525.504	6.22
525.704	6.21
525.904	6.18
526.104	6.14
526.304	6.15
526.504	6.09
526.705	6.13
526.905	6.13
527.105	6.2
527.305	6.2
527.505	6.23
527.705	6.2
527.905	6.24
528.105	6.2
528.305	6.16
528.505	6.22
528.705	6.25
528.905	6.28
529.105	6.32
529.304	6.34
529.504	6.37
529.704	6.34
529.904	6.35
530.104	6.34
530.304	6.36
530.503	6.31
530.703	6.29
530.903	6.27
531.103	6.29
531.303	6.3
531.502	6.38
531.702	6.39
531.902	6.43
532.101	6.41
532.301	6.46
532.501	6.45
532.7	6.49
532.9	6.51
533.1	6.57
533.299	6.56
533.499	6.55
533.698	6.57
533.898	6.56
534.097	6.58
534.297	6.59
534.496	6.6
534.696	6.62
534.895	6.64
535.095	6.63
535.294	6.66
535.494	6.67
535.693	6.68
535.892	6.67
536.092	6.63
536.291	6.66
536.491	6.69
536.69	6.74
536.889	6.77
537.088	6.87
537.288	6.88
537.487	6.9
537.686	6.9
537.886	6.93
538.085	6.88
538.284	6.88
538.483	6.9
538.682	6.93
538.882	6.93
539.081	6.99
539.28	6.96
539.479	6.96
539.678	6.97
539.877	6.97
540.076	7.01
540.275	7.11
540.474	7.11
540.673	7.1
540.872	7.12
541.071	7.15
541.27	7.19
541.469	7.25
541.668	7.33
541.867	7.37
542.066	7.32
542.265	7.3
542.464	7.32
542.663	7.35
542.862	7.39
543.06	7.54
543.259	7.58
543.458	7.63
543.657	7.66
543.856	7.67
544.054	7.63
544.253	7.64
544.452	7.66
544.651	7.67
544.849	7.7
545.048	7.74
545.247	7.76
545.445	7.84
545.644	7.9
545.843	7.93
546.041	7.94
546.24	8.01
546.438	8.06
546.637	8.08
546.836	8.14
547.034	8.16
547.233	8.08
547.431	8.13
547.63	8.11
547.828	8.15
548.027	8.2
548.225	8.34
548.423	8.32
548.622	8.45
548.82	8.47
549.019	8.53
549.217	8.55
549.415	8.61
549.614	8.64
549.812	8.66
550.01	8.72
550.209	8.78
550.407	8.9
550.605	8.88
550.803	8.96
551.002	9.01
551.2	9.02
551.398	9.01
551.596	9.1
551.794	9.18
551.993	9.29
552.191	9.37
552.389	9.44
552.587	9.52
552.785	9.52
552.983	9.52
553.181	9.56
553.379	9.58
553.577	9.64
553.775	9.75
553.973	9.84
554.171	9.9
554.369	9.94
554.567	9.99
554.765	10.06
554.963	10.11
555.161	10.2
555.359	10.3
555.557	10.35
555.755	10.47
555.952	10.52
556.15	10.61
556.348	10.69
556.546	10.78
556.744	10.81
556.941	10.85
557.139	10.94
557.337	11.02
557.535	11.04
557.732	11.09
557.93	11.19
558.128	11.2
558.325	11.25
558.523	11.43
558.721	11.51
558.918	11.55
559.116	11.62
559.313	11.69
559.511	11.71
559.708	11.84
559.906	11.98
560.104	12.05
560.301	12.13
560.498	12.26
560.696	12.21
560.893	12.31
561.091	12.42
561.288	12.53
561.486	12.59
561.683	12.72
561.88	12.67
562.078	12.82
562.275	12.8
562.473	12.83
562.67	12.92
562.867	13.07
563.064	13.2
563.262	13.36
563.459	13.41
563.656	13.49
563.853	13.49
564.051	13.44
564.248	13.46
564.445	13.55
564.642	13.57
564.839	13.72
565.036	13.91
565.234	13.98
565.431	14.03
565.628	14.1
565.825	14.16
566.022	14.15
566.219	14.23
566.416	14.27
566.613	14.35
566.81	14.41
567.007	14.42
567.204	14.46
567.401	14.58
567.598	14.6
567.795	14.62
567.991	14.67
568.188	14.74
568.385	14.83
568.582	14.93
568.779	14.99
568.976	15.03
569.172	15.08
569.369	15.08
569.566	15.13
569.763	15.24
569.96	15.25
570.156	15.25
570.353	15.22
570.55	15.24
570.746	15.16
570.943	15.23
571.14	15.25
571.336	15.35
571.533	15.4
571.729	15.44
571.926	15.5
572.123	15.5
572.319	15.51
572.516	15.55
572.712	15.62
572.909	15.58
573.105	15.67
573.302	15.63
573.498	15.58
573.695	15.52
573.891	15.51
574.087	15.46
574.284	15.53
574.48	15.52
574.677	15.54
574.873	15.6
575.069	15.66
575.266	15.6
575.462	15.68
575.658	15.73
575.854	15.79
576.051	15.77
576.247	15.85
576.443	15.84
576.639	15.81
576.835	15.75
577.032	15.79
577.228	15.77
577.424	15.7
577.62	15.72
577.816	15.71
578.012	15.72
578.208	15.64
578.404	15.68
578.6	15.62
578.796	15.56
578.993	15.5
579.189	15.54
579.384	15.49
579.58	15.54
579.776	15.6
579.972	15.53
580.168	15.45
580.364	15.44
580.56	15.37
580.756	15.31
580.952	15.27
581.148	15.37
581.343	15.4
581.539	15.4
581.735	15.44
581.931	15.47
582.127	15.38
582.322	15.34
582.518	15.36
582.714	15.29
582.909	15.3
583.105	15.29
583.301	15.19
583.496	15.03
583.692	14.95
583.888	14.91
584.083	14.88
584.279	14.89
584.474	14.97
584.67	15.02
584.866	14.98
585.061	14.92
585.257	14.89
585.452	14.91
585.648	14.87
585.843	14.89
586.039	14.95
586.234	14.96
586.429	14.85
586.625	14.84
586.82	14.77
587.015	14.66
587.211	14.61
587.406	14.62
587.601	14.6
587.797	14.69
587.992	14.67
588.187	14.71
588.383	14.7
588.578	14.67
588.773	14.57
588.968	14.68
589.163	14.71
589.359	14.7
589.554	14.66
589.749	14.69
589.944	14.6
590.139	14.61
590.334	14.63
590.529	14.65
590.724	14.68
590.919	14.71
591.114	14.68
591.309	14.7
591.504	14.8
591.699	14.72
591.894	14.9
592.089	14.89
592.284	14.91
592.479	14.89
592.674	14.94
592.869	14.89
593.064	14.98
593.259	14.98
593.454	15.05
593.648	15.09
593.843	15.05
594.038	14.97
594.233	15.02
594.428	15.05
594.622	15.13
594.817	15.16
595.012	15.23
595.206	15.23
595.401	15.22
595.596	15.17
595.79	15.23
595.985	15.28
596.18	15.44
596.374	15.6
596.569	15.76
596.763	15.85
596.958	15.96
597.153	15.82
597.347	15.77
597.542	15.81
597.736	15.87
597.931	15.77
598.125	15.93
598.319	15.94
598.514	16.04
598.708	16.05
598.903	16.13
599.097	16.13
599.291	16.18
599.486	16.09
599.68	16.08
599.874	16.11
600.069	16.26
600.263	16.28
600.457	16.36
600.651	16.4
600.846	16.44
601.04	16.4
601.234	16.43
601.428	16.4
601.622	16.44
601.817	16.51
602.011	16.38
602.205	16.41
602.399	16.46
602.593	16.56
602.787	16.55
602.981	16.68
603.175	16.68
603.369	16.64
603.563	16.56
603.757	16.46
603.951	16.44
604.145	16.34
604.339	16.32
604.533	16.28
604.727	16.28
604.921	16.21
605.115	16.3
605.309	16.29
605.502	16.29
605.696	16.3
605.89	16.19
606.084	16.1
606.278	16.04
606.471	15.89
606.665	15.87
606.859	15.95
607.053	15.91
607.246	15.89
607.44	15.9
607.634	15.85
607.827	15.87
608.021	15.76
608.214	15.7
608.408	15.67
608.602	15.65
608.795	15.49
608.989	15.49
609.182	15.46
609.376	15.47
609.569	15.38
609.763	15.33
609.956	15.32
610.15	15.26
610.343	15.15
610.537	15.11
610.73	15.16
610.923	15.12
611.117	15.05
611.31	15.03
611.504	14.98
611.697	14.82
611.89	14.72
612.083	14.64
612.277	14.5
612.47	14.44
612.663	14.39
612.856	14.33
613.05	14.28
613.243	14.28
613.436	14.2
613.629	14.15
613.822	14.13
614.015	14.09
614.209	13.98
614.402	13.97
614.595	13.94
614.788	13.79
614.981	13.67
615.174	13.64
615.367	13.59
615.56	13.49
615.753	13.5
615.946	13.4
616.139	13.38
616.332	13.28
616.525	13.23
616.718	13.18
616.911	13.24
617.103	13.11
617.296	13.06
617.489	13.02
617.682	13
617.875	12.94
618.067	12.91
618.26	12.92
618.453	12.91
618.646	12.86
618.838	12.86
619.031	12.91
619.224	12.87
619.417	12.81
619.609	12.79
619.802	12.77
619.994	12.77
620.187	12.72
620.38	12.71
620.572	12.67
620.765	12.63
620.957	12.56
621.15	12.55
621.342	12.53
621.535	12.48
621.727	12.47
621.92	12.41
622.112	12.4
622.305	12.38
622.497	12.37
622.69	12.32
622.882	12.31
623.074	12.36
623.267	12.33
623.459	12.33
623.651	12.25
623.844	12.21
624.036	12.18
624.228	12.16
624.42	12.05
624.613	12.07
624.805	12.06
624.997	11.91
625.189	11.94
625.381	11.89
625.574	11.9
625.766	11.91
625.958	11.92
626.15	11.89
626.342	11.94
626.534	11.86
626.726	11.78
626.918	11.75
627.11	11.71
627.302	11.64
627.494	11.63
627.686	11.61
627.878	11.56
628.07	11.48
628.262	11.49
628.454	11.46
628.646	11.44
628.838	11.43
629.029	11.37
629.221	11.37
629.413	11.36
629.605	11.32
629.797	11.32
629.989	11.36
630.18	11.24
630.372	11.16
630.564	11.15
630.755	11.14
630.947	11.11
631.139	11.11
631.33	11.11
631.522	11.11
631.714	11.07
631.905	11.04
632.097	11.02
632.289	10.99
632.48	10.89
632.672	10.79
632.863	10.68
633.055	10.7
633.246	10.66
633.438	10.71
633.629	10.77
633.821	10.78
634.012	10.74
634.203	10.82
634.395	10.79
634.586	10.76
634.777	10.75
634.969	10.74
635.16	10.7
635.351	10.67
635.543	10.64
635.734	10.64
635.925	10.59
636.117	10.51
636.308	10.49
636.499	10.41
636.69	10.36
636.881	10.4
637.073	10.43
637.264	10.44
637.455	10.51
637.646	10.56
637.837	10.49
638.028	10.36
638.219	10.33
638.41	10.28
638.601	10.18
638.792	10.2
638.983	10.27
639.174	10.25
639.365	10.27
639.556	10.3
639.747	10.28
639.938	10.23
640.129	10.23
640.32	10.18
640.511	10.14
640.701	10.15
640.892	10.11
641.083	9.99
641.274	9.93
641.465	9.89
641.655	9.9
641.846	9.89
642.037	9.87
642.228	9.89
642.418	9.84
642.609	9.69
642.8	9.61
642.99	9.6
643.181	9.57
643.372	9.6
643.562	9.65
643.753	9.7
643.943	9.7
644.134	9.66
644.324	9.56
644.515	9.52
644.705	9.44
644.896	9.48
645.086	9.44
645.277	9.4
645.467	9.38
645.658	9.33
645.848	9.24
646.038	9.21
646.229	9.27
646.419	9.25
646.61	9.32
646.8	9.35
646.99	9.34
647.18	9.26
647.371	9.19
647.561	9.16
647.751	9.14
647.941	9.15
648.132	9.15
648.322	9.2
648.512	9.17
648.702	9.13
648.892	9.06
649.082	9.12
649.272	9.06
649.462	9.04
649.653	9.03
649.843	9.08
650.033	9.03
650.223	9.05
650.413	9.02
650.603	9.1
650.793	9.04
650.983	9.01
651.172	8.99
651.362	8.93
651.552	8.83
651.742	8.82
651.932	8.84
652.122	8.88
652.312	8.93
652.502	8.91
652.691	8.87
652.881	8.78
653.071	8.67
653.261	8.61
653.45	8.58
653.64	8.56
653.83	8.53
654.019	8.46
654.209	8.42
654.399	8.33
654.588	8.32
654.778	8.25
654.968	8.2
655.157	8.12
655.347	8.05
655.536	7.94
655.726	7.8
655.915	7.79
656.105	7.72
656.294	7.65
656.484	7.57
656.673	7.63
656.863	7.49
657.052	7.43
657.241	7.43
657.431	7.36
657.62	7.37
657.809	7.29
657.999	7.22
658.188	7.14
658.377	7.08
658.567	6.88
658.756	6.81
658.945	6.75
659.134	6.64
659.324	6.59
659.513	6.52
659.702	6.43
659.891	6.36
660.08	6.28
660.269	6.19
660.458	6.14
660.648	6.11
660.837	6.1
661.026	6.03
661.215	5.97
661.404	5.92
661.593	5.83
661.782	5.77
661.971	5.78
662.16	5.76
662.349	5.63
662.538	5.59
662.726	5.42
662.915	5.33
663.104	5.23
663.293	5.25
663.482	5.27
663.671	5.36
663.86	5.29
664.048	5.26
664.237	5.15
664.426	5.1
664.615	5.06
664.803	5.01
664.992	4.95
665.181	5
665.369	4.98
665.558	4.87
665.747	4.9
665.935	4.92
666.124	4.99
666.312	5
666.501	4.95
666.69	4.96
666.878	5.02
667.067	4.95
667.255	4.97
667.444	5.05
667.632	5.01
667.82	4.89
668.009	4.86
668.197	4.84
668.386	4.89
668.574	4.87
668.762	5
668.951	5.04
669.139	5.05
669.327	5.01
669.516	5.09
669.704	5.07
669.892	5.13
670.08	5.07
670.269	5.15
670.457	5.11
670.645	5.16
670.833	5.09
671.021	5.13
671.21	5.12
671.398	5.09
671.586	5.12
671.774	5.22
671.962	5.29
672.15	5.34
672.338	5.53
672.526	5.54
672.714	5.55
672.902	5.64
673.09	5.66
673.278	5.67
673.466	5.69
673.654	5.81
673.842	5.77
674.03	5.82
674.218	5.88
674.405	5.97
674.593	5.94
674.781	5.99
674.969	5.96
675.157	5.99
675.344	6.01
675.532	6.04
675.72	6.15
675.908	6.24
676.095	6.24
676.283	6.16
676.471	6.28
676.658	6.32
676.846	6.29
677.033	6.46
677.221	6.64
677.409	6.58
677.596	6.57
677.784	6.64
677.971	6.71
678.159	6.78
678.346	6.9
678.534	6.99
678.721	7.06
678.909	7.06
679.096	7.15
679.283	7.17
679.471	7.2
679.658	7.16
679.846	7.08
680.033	7.08
680.22	7.17
680.408	7.22
680.595	7.4
680.782	7.55
680.969	7.64
681.157	7.68
681.344	7.75
681.531	7.86
681.718	7.95
681.905	7.95
682.093	8.05
682.28	8.24
682.467	8.34
682.654	8.33
682.841	8.48
683.028	8.48
683.215	8.51
683.402	8.45
683.589	8.58
683.776	8.64
683.963	8.79
684.15	8.85
684.337	8.94
684.524	9.03
684.711	9.14
684.898	9.19
685.085	9.27
685.271	9.46
685.458	9.56
685.645	9.72
685.832	9.97
686.019	10.11
686.205	10.25
686.392	10.44
686.579	10.6
686.766	10.7
686.952	10.92
687.139	11.2
687.326	11.43
687.512	11.6
687.699	11.78
687.886	12.05
688.072	12.15
688.259	12.32
688.445	12.5
688.632	12.86
688.818	13.14
689.005	13.39
689.191	13.76
689.378	14.13
689.564	14.32
689.751	14.6
689.937	15.01
690.124	15.24
690.31	15.6
690.496	15.89
690.683	16.24
690.869	16.61
691.055	17.07
691.242	17.45
691.428	17.94
691.614	18.25
691.8	18.62
691.987	19.09
692.173	19.57
692.359	20.14
692.545	20.7
692.731	21.06
692.918	21.44
693.104	21.88
693.29	22.19
693.476	22.65
693.662	23.26
693.848	23.72
694.034	24.12
694.22	24.74
694.406	25.25
694.592	25.84
694.778	26.56
694.964	27.16
695.15	27.62
695.336	28.13
695.522	28.61
695.708	29.27
695.894	29.79
696.08	30.18
696.265	30.8
696.451	31.46
696.637	31.61
696.823	32.2
697.009	32.98
697.194	33.63
697.38	34.17
697.566	34.99
697.751	35.58
697.937	36.16
698.123	36.8
698.308	37.44
698.494	37.97
698.68	38.6
698.865	39.01
699.051	39.57
699.236	40.11
699.422	40.68
699.607	41.11
699.793	41.86
699.978	42.16
700.164	42.63
700.349	42.93
700.535	43.65
700.72	44.16
700.906	44.76
701.091	45.26
701.276	45.73
701.462	46.23
701.647	46.7
701.832	47.35
702.018	47.8
702.203	48.38
702.388	49.03
702.573	49.71
702.759	50.14
702.944	50.87
703.129	51.71
703.314	52.05
703.499	52.47
703.684	52.74
703.87	53.23
704.055	53.36
704.24	53.65
704.425	53.82
704.61	54.49
704.795	54.71
704.98	55.64
705.165	56.22
705.35	57.08
705.535	57.32
705.72	57.9
705.905	58.15
706.09	58.6
706.275	58.79
706.459	59.4
706.644	59.59
706.829	59.9
707.014	60.43
707.199	60.63
707.384	60.91
707.568	61.35
707.753	62
707.938	62.19
708.123	62.54
708.307	63.02
708.492	63.41
708.677	63.36
708.861	63.79
709.046	64.4
709.231	64.71
709.415	65.11
709.6	65.47
709.784	65.66
709.969	65.65
710.153	66.12
710.338	66.53
710.522	67.08
710.707	67.45
710.891	67.97
711.076	67.88
711.26	68.43
711.445	68.84
711.629	69.05
711.813	69.42
711.998	70.09
712.182	70.06
712.366	69.93
712.551	70.25
712.735	70.7
712.919	70.46
713.103	70.89
713.288	71.1
713.472	71.2
713.656	71.31
713.84	71.8
714.024	71.95
714.208	72.3
714.393	72.87
714.577	72.74
714.761	73.33
714.945	73.45
715.129	73.53
715.313	73.87
715.497	74.08
715.681	73.89
715.865	74.08
716.049	74.81
716.233	74.93
716.417	75.43
716.601	75.44
716.785	75.77
716.968	75.52
717.152	75.39
717.336	75.23
717.52	75.57
717.704	75.88
717.888	76.18
718.071	76.34
718.255	77.14
718.439	77.27
718.622	76.95
718.806	77.01
718.99	77.09
719.174	76.58
719.357	77.08
719.541	77.44
719.724	77.77
719.908	78.07
720.092	78.6
720.275	78.66
720.459	79
720.642	78.89
720.826	78.82
721.009	78.91
721.193	79.29
721.376	79.38
721.559	79.67
721.743	79.88
721.926	80.06
722.11	79.84
722.293	79.7
722.476	79.41
722.66	79.93
722.843	80.09
723.026	80.13
723.21	80.22
723.393	80.53
723.576	80.22
723.759	80.34
723.942	80.44
724.126	80.32
724.309	80.89
724.492	81.1
724.675	81.33
724.858	81.32
725.041	80.7
725.224	80.97
725.407	80.98
725.59	80.42
725.774	80.62
725.957	81.87
726.14	81.66
726.322	81.84
726.505	82.29
726.688	82.89
726.871	82.55
727.054	82.21
727.237	82.57
727.42	83.08
727.603	82.67
727.786	82.62
727.968	83.1
728.151	83
728.334	83.1
728.517	83.29
728.699	83.25
728.882	83.18
729.065	83.09
729.248	82.71
729.43	82.69
729.613	83.32
729.796	83.74
729.978	83.75
730.161	84.1
730.343	84.37
730.526	84.21
730.708	84.15
730.891	84.25
731.073	83.53
731.256	83.63
731.438	84.5
731.621	84.23
731.803	84.45
731.986	86.03
732.168	85.94
732.35	85.26
732.533	85.56
732.715	85.37
732.898	84.92
733.08	84.94
733.262	85.55
733.444	85.24
733.627	85.86
733.809	85.67
733.991	85.77
734.173	85.52
734.355	85.97
734.538	85.51
734.72	86.22
734.902	86.47
735.084	87.05
735.266	87.41
735.448	87.5
735.63	87.01
735.812	87.39
735.994	87.53
736.176	87.35
736.358	88.02
736.54	88.58
736.722	87.84
736.904	87.14
737.086	86.55
737.268	86.14
737.45	85.83
737.632	86.21
737.814	86.78
737.995	87.68
738.177	87.98
738.359	88.03
738.541	87.99
738.723	88.85
738.904	88.01
739.086	88.42
739.268	87.88
739.449	88.18
739.631	86.83
739.813	88.29
739.994	88.84
740.176	89.42
740.358	88.24
740.539	89.42
740.721	88.61
740.902	87.64
741.084	87.46
741.265	88.87
741.447	88.2
741.628	88.37
741.81	89.12
741.991	89.89
742.172	89.67
742.354	89.96
742.535	90.07
742.717	90.12
742.898	89.26
743.079	89.59
743.261	89.48
743.442	89.95
743.623	89.63
743.804	89.95
743.986	90.01
744.167	90.21
744.348	89.45
744.529	88.81
744.71	89.41
744.891	89.34
745.073	89.6
745.254	90.03
745.435	90
745.616	88.81
745.797	89.02
745.978	88.35
746.159	87.55
746.34	88.09
746.521	87.35
746.702	87.31
746.883	87.06
747.064	87.23
747.245	87.48
747.426	88.42
747.606	87.88
747.787	88.15
747.968	88.76
748.149	88.56
748.33	89.08
748.51	89.31
748.691	89.75
748.872	89.99
749.053	89.83
749.233	89.13
749.414	89.28
749.595	88.98
749.775	88.9
749.956	89.23
750.137	89.88
750.317	90
750.498	90.32
750.678	90.42
750.859	89.94
751.04	90.22
751.22	89.46
751.4	89.19
751.581	88.36
751.761	88.01
751.942	88.16
752.122	88.19
752.303	87.93
752.483	88.35
752.663	88.38
752.844	88.19
753.024	88.15
753.204	88.04
753.385	89.17
753.565	89.14
753.745	89.06
753.925	89.6
754.106	89.16
754.286	87.36
754.466	86.93
754.646	86.49
754.826	85.24
755.006	85.38
755.187	85.47
755.367	86.39
755.547	87.04
755.727	88.64
755.907	88.9
756.087	90.22
756.267	89.64
756.447	88.39
756.627	87.94
756.807	87.36
756.987	86.2
757.167	87.42
757.346	88.55
757.526	88.28
757.706	89.63
757.886	89.53
758.066	87.99
758.246	86.41
758.425	85.7
758.605	85.06
758.785	86.06
758.965	86.94
759.144	86.56
759.324	86.14
759.504	86.39
759.683	85.46
759.863	84.51
760.043	85.21
760.222	86.94
760.402	85.82
760.581	86.4
760.761	86.79
760.94	86.47
761.12	86.97
761.299	87.75
761.479	87.09
761.658	87.02
761.838	87.96
762.017	85.61
762.197	85.86
762.376	87.29
762.555	85.82
762.735	85.07
762.914	85.87
763.093	84.77
763.273	83.23
763.452	83.98
763.631	84.22
763.81	84.03
763.99	83.72
764.169	84.91
764.348	86.26
764.527	86.38
764.706	87.09
764.885	88.79
765.064	87.43
765.243	87.34
765.423	88.33
765.602	86.41
765.781	84.97
765.96	84.72
766.139	83.84
766.318	83.63
766.497	84.58
766.676	86.82
766.854	88.87
767.033	89.8
767.212	88.39
767.391	88.9
767.57	87.43
767.749	86.19
767.928	84.23
768.106	83.73
768.285	83.05
768.464	82.17
768.643	81.13
768.821	82.52
769	83.2
769.179	83.49
769.357	83.06
769.536	83.78
769.715	83.67
769.893	85.65
770.072	85.3
770.25	86.74
770.429	86.87
770.607	89.05
770.786	86.31
770.964	86.49
771.143	86.48
771.321	85.77
771.5	83.43
771.678	84.23
771.857	85.44
772.035	85.11
772.213	84.99
772.392	84.26
772.57	84.6
772.748	84.05
772.927	83.13
773.105	84.33
773.283	85.58
773.461	84.76
773.64	84.35
773.818	84.85
773.996	84.35
774.174	82.8
774.352	81.59
774.531	81.15
774.709	81.55
774.887	81.37
775.065	81.18
775.243	82.32
775.421	82.69
775.599	82.25
775.777	82.98
775.955	84.52
776.133	85.02
776.311	85.14
776.489	85.53
776.667	84.34
776.844	83.87
777.022	83.97
777.2	82.25
777.378	81.86
777.556	81.14
777.734	82.23
777.911	80.83
778.089	81.66
778.267	81.22
778.445	83.42
778.622	83
778.8	85.54
778.978	88.86
779.155	88.07
779.333	86.06
779.511	86.19
779.688	83.84
779.866	80.42
780.043	80.81
780.221	81.54
780.398	80.99
780.576	81.75
780.753	80.74
780.931	80.96
781.108	77.69
781.286	77.03
781.463	76.14
781.64	80.03
781.818	80.36
781.995	84.02
782.172	83.82
782.35	84.33
782.527	82.33
782.704	82.15
782.882	80.33
783.059	78.27
783.236	80.03
783.413	79.32
783.59	78.84
783.768	81.47
783.945	83.35
784.122	80.95
784.299	81.5
784.476	80.46
784.653	75.92
784.83	75.02
785.007	76.1
785.184	75.67
785.361	79.32
785.538	81.35
785.715	81.55
785.892	82.45
786.069	82.75
786.246	81.75
786.423	81.84
786.6	83.69
786.776	82.64
786.953	82.52
787.13	79.63
787.307	82.71
787.484	79.97
787.66	79.48
787.837	80.61
788.014	82.27
788.191	81.9
788.367	82.47
788.544	81.43
788.721	79.7
788.897	80.4
789.074	78.42
789.25	78.78
789.427	78.46
789.603	81.06
789.78	76.37
789.956	75.39
790.133	74.73
790.309	75.09
790.486	73.91
790.662	76.95
790.839	75.3
791.015	77.3
791.192	79.78
791.368	78.44
791.544	78.13
791.721	79.86
791.897	80.78
792.073	79.48
792.249	81.27
792.426	78.99
792.602	80.15
792.778	76.27
792.954	74.18
793.13	73.6
793.307	76.71
793.483	73.12
793.659	74.76
793.835	76.42
794.011	75.61
794.187	76.44
794.363	81.77
794.539	83.47
794.715	85.56
794.891	83.75
795.067	80.47
795.243	78.01
795.419	79.43
795.595	79.56
795.771	75.72
795.947	77.84
796.122	78.25
796.298	74.61
796.474	68.64
796.65	72.18
796.826	70.2
797.001	69.41
797.177	72.68
797.353	74.49
797.529	78.2
797.704	79.23
797.88	79.92
798.056	81.64
798.231	86.31
798.407	87.01
798.582	88.82
798.758	91.67
798.934	88.74
799.109	84.78
799.285	84.5
799.46	80.45
799.636	76.39
799.811	73.44
799.986	76.92
800.162	71.87
800.337	77.09
800.513	80.8
800.688	84.1
800.863	77.41
801.039	77.22
801.214	73.43
801.389	71.12
801.565	71.92
801.74	75.14
801.915	74.57
802.09	75.39
802.265	70.87
802.441	70.25
802.616	68.37
802.791	73.87
802.966	74.09
803.141	79.49
803.316	73.94
803.491	72.18
803.666	70.5
803.841	70.67
804.016	71.32
804.191	72.29
804.366	78.01
804.541	75.4
804.716	73.51
804.891	76.36
805.066	78.94
805.241	74.65
805.416	79.32
805.591	82.03
805.765	75.76
805.94	74.12
806.115	72.23
806.29	73.02
806.464	73.92
806.639	69.84
806.814	74.7
806.989	74.87
807.163	72.28
807.338	67.14
807.512	72.42
807.687	72.41
807.862	75.18
808.036	71.51
808.211	72.71
808.385	74.86
808.56	69.58
808.734	67.21
808.909	71.67
809.083	77.44
809.258	69.7
809.432	70.78
809.606	77.53
809.781	76.94
809.955	74.03
810.13	75.71
810.304	72.52
810.478	65.71
810.652	68.23
810.827	69.71
811.001	75.99
811.175	76.38
811.349	83.51
811.524	79.53
811.698	77.04
811.872	76.5
812.046	82.67
812.22	78.29
812.394	79.63
812.568	79.18
812.742	78.62
812.916	68.82
813.09	73.14
813.264	69.25
813.438	69.3
813.612	69.45
813.786	72.68
813.96	71.17
814.134	76.91
814.308	82.38
814.482	79.77
814.656	83.24
814.83	76.01
815.003	74.98
815.177	75.25
815.351	71.04
815.525	66.1
815.698	64.31
815.872	57.57
816.046	51.77
816.219	58.28
816.393	59.18
816.567	68.88
816.74	79.94
816.914	87.31
817.088	87.57
817.261	93.4
817.435	79.84
817.608	65.88
817.782	66.02
817.955	66.9
818.129	68.48
818.302	80.98
818.475	96.83
818.649	93.43
818.822	95.3
818.996	97.62
819.169	90.51
819.342	82.06
819.516	90.29
819.689	91.55
819.862	82.54
820.035	82.56
820.209	86.21
820.382	83.74
820.555	77.56
820.728	88.82
820.901	82.27
821.075	78.18
821.248	70.5
821.421	77.14
821.594	70.53
821.767	80.59
821.94	91.21
822.113	94.57
822.286	83.17
822.459	93.42
822.632	80.86
822.805	62.24
822.978	62.93
823.151	81.17
823.324	71.69
823.496	78.43
823.669	70.83
823.842	71.55
824.015	65.4
824.188	72.56
824.361	80.16
824.533	89.01
824.706	87.21
824.879	69.64
825.051	58.2
825.224	54.19
825.397	63.88
825.569	54.74
825.742	71.95
825.915	81.31
826.087	90.45
826.26	82.68
826.432	97.97
826.605	90.23
826.777	86.74
826.95	83.67
827.122	78.66
827.295	67.4
827.467	67.33
827.64	73.7
827.812	74.42
827.984	77.9
828.157	90.12
828.329	80.91
828.501	69.54
828.674	63.14
828.846	59.53
829.018	58.3
829.19	65.73
829.363	73.09
829.535	65.76
829.707	72.82
829.879	77.45
830.051	67.96
830.223	64.62
830.395	74.22
830.568	77.03
830.74	64.97
830.912	71.65
831.084	67.51
831.256	73.66
831.428	67.09
831.6	70.36
831.772	67.25
831.943	74.96
832.115	68.94
832.287	71.45
832.459	69.4
832.631	57.77
832.803	61.45
832.975	52.36
833.146	42.33
833.318	45.88
833.49	59.43
833.662	49.33
833.833	63.36
834.005	80.87
834.177	87.44
834.348	72.24
834.52	70.55
834.692	76.96
834.863	61.05
835.035	71.66
835.206	80.58
835.378	94.16
835.549	87.42
835.721	101.65
835.892	89.26
836.064	89.2
836.235	91.89
836.407	89.24
836.578	87.19
836.749	80.02
836.921	90.76
837.092	78.17
837.264	85.17
837.435	73.38
837.606	79.81
837.777	75.26
837.949	82.46
838.12	64.92
838.291	79.09
838.462	82.41
838.633	91.35
838.805	87.98
838.976	84.25
839.147	79.03
839.318	80.97
839.489	87.99
839.66	85.08
839.831	99.74
840.002	106.45
840.173	97.26
840.344	74.49
840.515	75.06
840.686	78.82
840.857	87.38
841.028	92.39
841.199	90.28
841.369	93.04
841.54	61.98
841.711	74.72
841.882	71.46
842.053	79.6
842.223	74.78
842.394	96.04
842.565	81.06
842.736	85.71
842.906	70.71
843.077	68.74
843.248	55.62
843.418	42.34
843.589	47.15
843.759	37.34
843.93	54.56
844.101	58.41
844.271	57.38
844.442	49.84
844.612	56.38
844.783	41.8
844.953	44.93
845.123	59.35
845.294	70.87
845.464	62.99
845.635	60.74
845.805	64.94
845.975	57.24
846.146	52.91
846.316	74.23
846.486	64.75
846.656	57.26
846.827	51.75
846.997	45.09
847.167	36.97
847.337	66.33
847.507	63.86
847.677	86.75
847.848	90.82
848.018	113.01
848.188	88.46
848.358	90.13
848.528	66.55
848.698	65.54
848.868	51.87
849.038	46.17
849.208	71.23
849.378	86.41
849.548	80.51
849.718	59.14
849.887	68.33
850.057	61.5
850.227	65.62
850.397	74.68
850.567	91.01
850.737	113.51
850.906	87.46
851.076	65.57
851.246	46.47
851.415	62.96
851.585	58.7
851.755	108.07
851.924	109.51
852.094	129.2
852.264	99.61
852.433	84.58
852.603	58.08
852.772	64.95
852.942	54.6
853.111	64.88
853.281	87.86
853.45	77.06
853.62	66.02
853.789	50.25
853.959	37.86
854.128	10.86
854.297	13.67
854.467	6.27
854.636	17.44
854.805	25.31
854.975	59.19
855.144	42.41
855.313	39.45
855.482	57.93
855.652	65.78
855.821	44.28
855.99	55.39
856.159	82.58
856.328	52.77
856.497	49.62
856.667	81.19
856.836	110.92
857.005	135.5
857.174	181.82
857.343	90.58
857.512	76.71
857.681	98.48
857.85	73.52
858.019	77.18
858.188	67.84
858.356	60.48
858.525	39.91
858.694	39.04
858.863	50.4
859.032	54.23
859.201	36.22
859.369	60.35
859.538	79.2
859.707	76.48
859.876	116.24
860.044	101.29
860.213	47.47
860.382	58.1
860.55	79.83
860.719	79.9
860.888	122.28
861.056	150.75
861.225	159.96
861.393	152.97
861.562	153.33
861.73	116.47
861.899	77.35
862.067	67.53
862.236	65.03
862.404	85.12
862.572	84.97
862.741	100.67
862.909	114.3
863.078	87.61
863.246	70.77
863.414	79.35
863.582	82.37
863.751	78.12
863.919	80.53
864.087	96.96
864.255	87.23
864.424	77.07
864.592	74.01
864.76	64.12
864.928	31.29
865.096	38.67
865.264	50.57
865.432	30.05
865.6	52.16
865.768	79.31
865.936	41.81
866.104	60.06
866.272	82.03
866.44	76.18
866.608	80.15
866.776	104.99
866.944	101.2
867.112	96.18
867.28	94.8
867.448	72.23
867.615	28.96
867.783	16.68
867.951	7.51
868.119	13.46
868.286	11.53
868.454	53.69
868.622	51.1
868.789	82.84
868.957	78.5
869.125	94.93
869.292	48.17
869.46	51.02
869.627	35.63
869.795	56.46
869.963	39.17
870.13	92.34
870.298	94.99
870.465	94.37
870.632	88.9
870.8	71.6
870.967	71.33
871.135	77.3
871.302	60.7
871.469	56.21
871.637	110.88
871.804	26.7
871.971	-33.33
872.139	1.14
872.306	53.48
872.473	37.27
872.64	44.84
872.807	112.88
872.975	83.02
873.142	43.69
873.309	108.39
873.476	107.46
873.643	75.5
873.81	81.85
873.977	107.37
874.144	69.47
874.311	48.9
874.478	67.72
874.645	94.07
874.812	144.05
874.979	120.31
875.146	138.89
875.313	98.73
875.48	67.78
875.647	-3.28
875.813	6.06
875.98	11.17
876.147	22.61
876.314	27.63
876.481	44.93
876.647	57.25
876.814	33.14
876.981	46.62
877.147	61.24
877.314	67.01
877.481	88.07
877.647	188.42
877.814	95.43
877.98	85.09
878.147	95.54
878.314	67.84
878.48	36.83
878.647	65.27
878.813	45.56
878.979	45.66
879.146	48.17
879.312	47.15
879.479	33.3
879.645	28.76
879.811	20.27
879.978	27.61
880.144	40.1
880.31	73.2
880.477	86.41
880.643	152.95
880.809	77.1
880.975	46.61
881.142	42.23
881.308	62.74
881.474	43.16
881.64	48.49
881.806	48.12
881.972	102.02
882.138	74.51
882.304	69.59
882.47	53.45
882.636	64.05
882.802	23.73
882.968	58.09
883.134	87.01
883.3	117.03
883.466	95.79
883.632	67.95
883.798	77.8
883.964	12.04
884.129	-4.9
884.295	-57.51
884.461	-8.67
884.627	-33.93
884.793	1.75
884.958	-8.86
885.124	95.05
885.29	33.2
885.455	30.32
885.621	69.22
885.787	50.57
885.952	26.45
886.118	63.72
886.283	72.13
886.449	91.01
886.614	118.1
886.78	97.65
886.945	88.83
887.111	83.63
887.276	74.19
887.442	82.42
887.607	79.63
887.773	95.18
887.938	106.17
888.103	87.22
888.269	71.9
888.434	75.36
888.599	69.17
888.764	44.75
888.93	48.65
889.095	30.88
889.26	48.68
889.425	58.72
889.59	64.7
889.756	72.82
889.921	70.75
890.086	63.42
890.251	31.66
890.416	30.53
890.581	-3.32
890.746	-153.14
890.911	-400.28
891.076	299.56
891.241	327.61
891.406	73.41
891.571	120.04
891.736	31.68
891.901	-15.27
892.065	-79.83
892.23	29.96
892.395	73.15
892.56	155.41
892.725	64.66
892.889	54.05
893.054	58.7
893.219	61.74
893.384	68.3
893.548	74.75
893.713	81.88
893.878	63.79
