Data from Ofra_PS_Phys_OCX4_Reflection_1.txt Node
Date: Tue Jul 20 17:53:24 EDT 2021
User: USUARIO
Spectrometer: FLMT01687
Trigger mode: 0
Integration Time (sec): 1.042999E0
Scans to average: 2
Electric dark correction enabled: true
Nonlinearity correction enabled: false
Boxcar width: 2
XAxis mode: Wavelengths
Number of Pixels in Spectrum: 3648
>>>>>Begin Spectral Data<<<<<
179.494	-219.35
179.716	-380.92
179.937	-261.63
180.158	-930.43
180.38	-301.02
180.601	-80.58
180.823	-80
181.044	-237.11
181.265	-604.65
181.486	54.53
181.708	89.18
181.929	159.08
182.15	160.16
182.372	-453.52
182.593	12.85
182.814	3.3
183.035	31.32
183.257	44.7
183.478	25.44
183.699	15.8
183.92	32.85
184.141	15.59
184.363	3.05
184.584	16.16
184.805	17.94
185.026	33.63
185.247	49.06
185.468	42.59
185.689	18.28
185.91	29.82
186.132	2.91
186.353	-9.78
186.574	13.72
186.795	-5.24
187.016	-7.77
187.237	-6.87
187.458	-45.57
187.679	-90.97
187.9	-55.12
188.121	-176.86
188.342	-655.7
188.563	-138.3
188.784	-48.63
189.005	-11.41
189.226	15.3
189.447	41.7
189.667	22.7
189.888	38.53
190.109	42.93
190.33	35.47
190.551	77.28
190.772	49
190.993	41.05
191.214	37.76
191.434	31.8
191.655	-11.57
191.876	-11.84
192.097	-52.45
192.318	-34.05
192.538	-22.64
192.759	61.22
192.98	69.65
193.201	81.71
193.421	54.04
193.642	39.88
193.863	22.77
194.083	24.26
194.304	37.45
194.525	41.17
194.745	56.58
194.966	41.73
195.187	13.26
195.407	-12.18
195.628	0.7
195.848	-39.39
196.069	-17.32
196.29	-0.1
196.51	-4.14
196.731	-38.92
196.951	-9.14
197.172	-38.2
197.392	-26.89
197.613	-15.87
197.833	2.22
198.054	-9.27
198.274	16.6
198.495	9.29
198.715	19.22
198.936	19.25
199.156	24.69
199.377	25.43
199.597	35.59
199.817	30.53
200.038	26.18
200.258	21.51
200.479	1.04
200.699	-21.76
200.919	-22.98
201.14	17.34
201.36	25.15
201.58	12.24
201.801	7.16
202.021	9.75
202.241	-66.43
202.461	-174.65
202.682	-72.53
202.902	-58.12
203.122	-34.2
203.342	-11.73
203.563	-17.12
203.783	1.13
204.003	0.23
204.223	-22.52
204.443	-59.08
204.663	-64.34
204.884	-27.07
205.104	-27.94
205.324	-24
205.544	-22.21
205.764	10.33
205.984	-39.29
206.204	-11.31
206.424	-1.99
206.644	3.15
206.864	-15.34
207.084	1.33
207.304	-4.75
207.525	-17.15
207.745	-18.04
207.964	-28.3
208.184	2.14
208.404	13.5
208.624	15.73
208.844	32.52
209.064	36.52
209.284	26.54
209.504	25
209.724	36.79
209.944	35.39
210.164	16.48
210.384	31.55
210.604	57.52
210.823	43.78
211.043	3.28
211.263	35.38
211.483	25.06
211.703	4.69
211.922	-1.61
212.142	20.89
212.362	-2.97
212.582	-18.9
212.801	-16.17
213.021	-21.86
213.241	-80.5
213.461	9.56
213.68	18.62
213.9	-31.94
214.12	-30.47
214.339	-60.29
214.559	-61.38
214.779	-43.63
214.998	-21.97
215.218	-12.07
215.438	3.51
215.657	2.57
215.877	-2.94
216.096	25.88
216.316	15.46
216.535	15.06
216.755	17.93
216.974	17.11
217.194	7.08
217.413	16.47
217.633	7.72
217.852	-12.85
218.072	-10.17
218.291	-17.7
218.511	-12.98
218.73	-34.17
218.95	-40.07
219.169	-37.39
219.389	-22.15
219.608	-47.06
219.827	2.68
220.047	40.85
220.266	44.57
220.485	13.4
220.705	12.57
220.924	-1.7
221.143	-23.51
221.363	-28.74
221.582	1.62
221.801	38.16
222.021	34.82
222.24	42.73
222.459	17.34
222.678	-12.65
222.897	1.21
223.117	13.52
223.336	20.97
223.555	26.93
223.774	33.07
223.993	15.33
224.213	-0.09
224.432	-22.39
224.651	-22.25
224.87	-13.42
225.089	-29.91
225.308	-10.92
225.527	-6.76
225.746	-23.78
225.965	-22.08
226.184	14.09
226.404	-11.26
226.623	-10.12
226.842	-13.42
227.061	-2.95
227.28	-37.99
227.499	-24.14
227.718	-29.59
227.936	-26.24
228.155	-25.33
228.374	-28.09
228.593	-22.43
228.812	-5.14
229.031	2.75
229.25	-6.91
229.469	19.36
229.688	19.58
229.907	1.98
230.125	10.51
230.344	9.25
230.563	-22.72
230.782	-3.14
231.001	0.27
231.22	-5.09
231.438	10.17
231.657	28.72
231.876	18.68
232.095	11.6
232.313	19.26
232.532	17.89
232.751	17.89
232.969	18.24
233.188	33.57
233.407	32.98
233.625	14.7
233.844	26.3
234.063	26.65
234.281	33.96
234.5	19.79
234.719	24.53
234.937	18.61
235.156	10.11
235.374	-19.09
235.593	-13.91
235.811	-21.42
236.03	-68.12
236.249	-128.35
236.467	-50.57
236.686	-36.22
236.904	-33.96
237.123	-3.95
237.341	4.92
237.559	-8.43
237.778	-4.44
237.996	5.53
238.215	-14.3
238.433	-5.48
238.652	5.17
238.87	-1.2
239.088	1.55
239.307	13.17
239.525	5.19
239.743	-4.64
239.962	5.95
240.18	-5.78
240.398	-0.47
240.617	8.69
240.835	4
241.053	-11.89
241.271	-6.06
241.49	-9.97
241.708	-19.14
241.926	-9.41
242.144	4.19
242.363	-8.61
242.581	-12.55
242.799	-5.67
243.017	10.79
243.235	-1.91
243.453	20.03
243.672	33.23
243.89	24.71
244.108	18.65
244.326	27.36
244.544	-2.08
244.762	-19.21
244.98	5.27
245.198	3.07
245.416	13.13
245.634	23.01
245.852	30.64
246.07	28.15
246.288	24.29
246.506	12.99
246.724	49.44
246.942	51.75
247.16	55.04
247.378	64.32
247.596	75.45
247.814	42.03
248.032	31.22
248.25	10.72
248.468	2.03
248.685	21.96
248.903	34.51
249.121	53.24
249.339	74.06
249.557	76.43
249.775	64.77
249.992	59.83
250.21	28.93
250.428	2.76
250.646	-24.04
250.863	-3.45
251.081	-10.13
251.299	-22.73
251.517	-17.01
251.734	-20.67
251.952	-62.06
252.17	-28.84
252.387	-11.99
252.605	-35.86
252.823	3.53
253.04	17.95
253.258	6.25
253.475	3.97
253.693	37.93
253.911	32.7
254.128	25.11
254.346	38.73
254.563	43.52
254.781	18.72
254.998	-3.49
255.216	-2.09
255.433	-24.01
255.651	-19.38
255.868	-24.47
256.086	2.77
256.303	-10.25
256.521	13.03
256.738	3.64
256.956	25.15
257.173	2.53
257.39	-0.68
257.608	-28.46
257.825	25.31
258.043	19.27
258.26	47.51
258.477	53.59
258.695	53.18
258.912	25.15
259.129	28.14
259.346	16.78
259.564	12.14
259.781	5.81
259.998	10.15
260.216	13.58
260.433	0.84
260.65	18.14
260.867	17.55
261.084	31.31
261.302	17.22
261.519	45.55
261.736	40.39
261.953	60.97
262.17	40.12
262.387	30.02
262.604	-16.78
262.822	-56.66
263.039	-98.95
263.256	-82.58
263.473	-90.85
263.69	-50.62
263.907	-18.17
264.124	-25.03
264.341	22.49
264.558	39.28
264.775	50.58
264.992	55.8
265.209	44.09
265.426	2.54
265.643	-0.75
265.86	-20.16
266.077	-7.51
266.294	-3.59
266.51	8.03
266.727	7.28
266.944	23.13
267.161	-4.01
267.378	-3.91
267.595	13.49
267.812	3.95
268.028	4.9
268.245	13.18
268.462	1.83
268.679	-29.73
268.896	-11.96
269.112	-10.28
269.329	-24.34
269.546	-31.95
269.763	-7.19
269.979	-1.69
270.196	-0.32
270.413	21.3
270.629	23.3
270.846	20.55
271.063	-4.66
271.279	-8.23
271.496	-17.8
271.712	-33.11
271.929	-45.31
272.146	-0.73
272.362	-16.91
272.579	-24.67
272.795	-34.04
273.012	8.94
273.228	-0.08
273.445	1.9
273.661	18.48
273.878	26.13
274.094	-1.11
274.311	2.07
274.527	10.77
274.744	-12.36
274.96	-8.85
275.177	-10.32
275.393	-6.14
275.609	-7.14
275.826	18.18
276.042	10.25
276.259	9.35
276.475	13.44
276.691	17.91
276.908	-8.14
277.124	9.62
277.34	1.69
277.557	-11.63
277.773	-17.98
277.989	-14.45
278.205	-34.41
278.422	-25.49
278.638	-6.22
278.854	-6.61
279.07	-3.61
279.286	3.53
279.503	4.24
279.719	-8.36
279.935	-9.02
280.151	13.28
280.367	17.68
280.583	15.8
280.799	38.51
281.016	32.89
281.232	17.5
281.448	21.58
281.664	32.49
281.88	18.39
282.096	15.37
282.312	31.16
282.528	32.15
282.744	15.3
282.96	17.7
283.176	31.58
283.392	22.08
283.608	17.25
283.824	27.6
284.04	26.37
284.256	13.72
284.471	27.51
284.687	33.75
284.903	21.1
285.119	24.71
285.335	-16.69
285.551	5.83
285.767	-10.59
285.982	-2.96
286.198	13.71
286.414	39.05
286.63	31.66
286.846	30.85
287.061	32.98
287.277	29.93
287.493	34.13
287.709	47.13
287.924	54.36
288.14	52.35
288.356	47.9
288.571	45.52
288.787	18.3
289.003	-8.77
289.218	8.37
289.434	14.81
289.65	8.77
289.865	16.39
290.081	37.85
290.296	23.2
290.512	3.41
290.727	-2.65
290.943	-13.02
291.159	-6.5
291.374	-35.5
291.59	-2.58
291.805	-17.27
292.021	-25.74
292.236	-3.6
292.451	8.09
292.667	3.7
292.882	26.33
293.098	40.05
293.313	10.3
293.529	14.43
293.744	-6.22
293.959	-17.09
294.175	-30.1
294.39	-48.18
294.605	-44.14
294.821	-36.58
295.036	-30.48
295.251	-14.03
295.467	13.52
295.682	8.76
295.897	13.75
296.112	20.07
296.328	15.79
296.543	8.07
296.758	18.84
296.973	8.34
297.188	15.21
297.404	16.38
297.619	13.07
297.834	-24.64
298.049	11.33
298.264	-8.71
298.479	-15.34
298.694	-21.8
298.909	-25.1
299.125	-20.99
299.34	-29.44
299.555	5.63
299.77	-0.92
299.985	14.05
300.2	-2.9
300.415	-12.39
300.63	-41.77
300.845	-1.69
301.06	-2.06
301.275	1.19
301.49	-4.3
301.704	2.74
301.919	-31.89
302.134	-42.29
302.349	-32.95
302.564	-31.55
302.779	-18.66
302.994	12.86
303.209	22.71
303.423	18.49
303.638	19.11
303.853	15.14
304.068	-2.35
304.283	-18.21
304.497	-11.36
304.712	-1.24
304.927	-3.2
305.142	-8.51
305.356	4.46
305.571	5.89
305.786	-8.52
306	-6.88
306.215	9.83
306.43	-1.05
306.644	-3.71
306.859	12.51
307.074	15.53
307.288	10.06
307.503	6.57
307.717	14
307.932	3.57
308.147	3.24
308.361	-4.79
308.576	-4.49
308.79	-12.77
309.005	1.31
309.219	-4.75
309.434	2.67
309.648	6.39
309.863	-2.57
310.077	1.99
310.292	-6.84
310.506	-6.53
310.72	2.05
310.935	-12.05
311.149	-14.57
311.364	5.58
311.578	17.58
311.792	21.6
312.007	37.63
312.221	34.5
312.435	25.83
312.649	-8.2
312.864	-10.23
313.078	1.41
313.292	10.92
313.507	10.76
313.721	25.86
313.935	38.39
314.149	18.51
314.363	13.84
314.578	27.31
314.792	14.14
315.006	-3.83
315.22	19.78
315.434	20.25
315.648	-10.49
315.862	-18.09
316.077	-27.77
316.291	-56.38
316.505	-38.21
316.719	-20
316.933	-1.98
317.147	3.55
317.361	9.31
317.575	27.36
317.789	33.88
318.003	32.2
318.217	35.05
318.431	39.1
318.645	25.59
318.859	28.67
319.073	35.15
319.287	32.02
319.5	32.87
319.714	33.55
319.928	36.43
320.142	32.06
320.356	49.27
320.57	34.2
320.784	27.01
320.997	4.81
321.211	16.09
321.425	4.74
321.639	13.14
321.853	22.33
322.066	33.9
322.28	31.66
322.494	27
322.707	21.63
322.921	14.81
323.135	21.64
323.349	8.71
323.562	0.28
323.776	7.44
323.989	13.92
324.203	7.95
324.417	0.62
324.63	1.69
324.844	2.27
325.057	12.49
325.271	7.62
325.485	14.58
325.698	13.5
325.912	19.94
326.125	2.65
326.339	-4.38
326.552	4.45
326.766	9.62
326.979	11
327.193	18.73
327.406	21.06
327.619	19.24
327.833	36.54
328.046	10.51
328.26	-3.42
328.473	-2.41
328.686	-1.75
328.9	-34.64
329.113	-4.25
329.326	21.51
329.54	33.46
329.753	30.96
329.966	46.56
330.179	47.95
330.393	44.98
330.606	13.19
330.819	4.91
331.032	2.66
331.246	-1.23
331.459	-27.42
331.672	6.23
331.885	4.45
332.098	-2.99
332.311	-9.64
332.525	-9.84
332.738	-35.85
332.951	-12.91
333.164	6.64
333.377	0.28
333.59	19.16
333.803	29.76
334.016	28.02
334.229	23.38
334.442	19.01
334.655	23.63
334.868	35.85
335.081	28.48
335.294	28.88
335.507	42.15
335.72	26.87
335.933	-4.77
336.146	3.71
336.359	-4.39
336.572	-39.02
336.785	-26.63
336.997	-23.44
337.21	-24.08
337.423	-21.67
337.636	-0.89
337.849	-2.61
338.062	1.3
338.274	15.39
338.487	-5.18
338.7	-19.71
338.913	-41.5
339.125	-27.44
339.338	-52.5
339.551	-16.25
339.763	-6.39
339.976	11.68
340.189	14.54
340.402	24.58
340.614	14.85
340.827	23.64
341.039	11.49
341.252	7.26
341.465	-2.84
341.677	8.49
341.89	-13.6
342.102	12.33
342.315	15.3
342.527	19.95
342.74	32.02
342.952	51.24
343.165	48.87
343.377	52.28
343.59	42.58
343.802	38.94
344.015	20.09
344.227	10.96
344.44	-2.25
344.652	5.64
344.864	-6.48
345.077	8.27
345.289	1.37
345.502	-0.46
345.714	-0.66
345.926	3.71
346.139	-19.14
346.351	-7.1
346.563	-3.16
346.775	-7.24
346.988	-19.71
347.2	-15.69
347.412	-14.93
347.624	-12.87
347.837	-3.8
348.049	-0.2
348.261	12.51
348.473	17.68
348.685	21.17
348.897	14.7
349.11	14.49
349.322	2.04
349.534	13.88
349.746	24.48
349.958	25.69
350.17	22.04
350.382	31.4
350.594	15.97
350.806	9.18
351.018	8.76
351.23	14.83
351.442	16.03
351.654	17.81
351.866	11.99
352.078	10.04
352.29	4.8
352.502	4.22
352.714	8.72
352.926	-12.9
353.138	-17.75
353.35	-19.89
353.561	-33.14
353.773	-25.13
353.985	0.1
354.197	-12.48
354.409	7
354.621	12.05
354.832	-15.29
355.044	-26.67
355.256	-4.91
355.468	-20.85
355.679	-19.25
355.891	19.06
356.103	35.62
356.314	24.6
356.526	31.15
356.738	22.22
356.949	17.26
357.161	25.39
357.373	24.96
357.584	9.17
357.796	18.2
358.008	-2.33
358.219	-4.19
358.431	-10.34
358.642	6.11
358.854	2.66
359.065	7.89
359.277	-6.48
359.488	3.58
359.7	-5.58
359.911	-1.23
360.123	6.18
360.334	10.15
360.546	7.73
360.757	5.32
360.969	5.64
361.18	4.59
361.391	22.12
361.603	19.34
361.814	24.24
362.025	17.5
362.237	11.84
362.448	4.37
362.659	-5.56
362.871	-9.56
363.082	-13.3
363.293	1.63
363.504	-2.8
363.716	0.08
363.927	-8.63
364.138	-5.83
364.349	-43.57
364.56	-39.12
364.772	-13.71
364.983	-15.34
365.194	-8.82
365.405	-5.51
365.616	-11.58
365.827	-7.34
366.038	-0.36
366.25	4.31
366.461	10.31
366.672	24.6
366.883	22.32
367.094	25.31
367.305	11.62
367.516	14.29
367.727	3.68
367.938	-1.97
368.149	-6.39
368.36	-6.14
368.571	3.94
368.781	9.86
368.992	12.96
369.203	30.8
369.414	24.59
369.625	24.96
369.836	13.8
370.047	10.97
370.258	-7.74
370.468	2.77
370.679	1.15
370.89	12.21
371.101	25.74
371.312	28.29
371.522	30.41
371.733	26.05
371.944	24.38
372.155	25.55
372.365	16.28
372.576	13.37
372.787	5.73
372.997	4.53
373.208	-2.26
373.419	13.94
373.629	-0.48
373.84	9.92
374.05	3.14
374.261	7.97
374.472	-2.67
374.682	24.26
374.893	26.07
375.103	26.79
375.314	18.23
375.524	17.39
375.735	2.91
375.945	-5.8
376.156	-4.39
376.366	-8.73
376.577	12.3
376.787	11.31
376.997	15.45
377.208	24.85
377.418	36.28
377.629	15.72
377.839	20.74
378.049	22.22
378.26	14.05
378.47	9.71
378.68	12.6
378.89	5.91
379.101	11.53
379.311	-7.07
379.521	-11.04
379.732	-1.13
379.942	9
380.152	6.42
380.362	24.42
380.572	26.26
380.783	24.49
380.993	20.39
381.203	16.26
381.413	8.17
381.623	-0.85
381.833	-18.49
382.043	-35.05
382.253	-44.58
382.463	-25.29
382.674	-25.47
382.884	-15.9
383.094	2.88
383.304	4.67
383.514	-4.11
383.724	3.98
383.934	3.26
384.144	-8.28
384.353	-5.17
384.563	-0.32
384.773	-6.33
384.983	-5.1
385.193	0.07
385.403	-1.31
385.613	10.18
385.823	13.14
386.033	4.43
386.242	4.1
386.452	3.55
386.662	-6.55
386.872	-7.32
387.082	-0.55
387.291	-1.3
387.501	0.85
387.711	4.37
387.921	2.54
388.13	3.23
388.34	9.15
388.55	7.79
388.759	6.64
388.969	10.26
389.179	9.15
389.388	5.46
389.598	6.69
389.807	6
390.017	4.63
390.227	3.26
390.436	1.6
390.646	-0.65
390.855	0.77
391.065	0.3
391.274	1.3
391.484	4.99
391.693	7.04
391.903	8.02
392.112	7.81
392.322	6.4
392.531	5.21
392.74	4.36
392.95	-0.15
393.159	0.13
393.369	0.17
393.578	-1.5
393.787	-3.88
393.997	-0.76
394.206	-0.94
394.415	1.16
394.625	2.9
394.834	4.79
395.043	5.63
395.252	6.39
395.462	5.16
395.671	4.98
395.88	4.63
396.089	3.69
396.298	2.96
396.508	3.47
396.717	3.72
396.926	4.62
397.135	3.9
397.344	3.27
397.553	3.07
397.762	2.18
397.971	1.36
398.181	1.66
398.39	2.15
398.599	2.21
398.808	2.41
399.017	2.88
399.226	3.59
399.435	3.58
399.644	3.36
399.853	3.32
400.062	3.08
400.27	2.69
400.479	2.64
400.688	2.96
400.897	3.32
401.106	3.67
401.315	3.46
401.524	3.8
401.733	3.9
401.941	3.65
402.15	3.26
402.359	3.26
402.568	3
402.777	3.04
402.985	2.67
403.194	2.59
403.403	2.71
403.612	2.73
403.82	2.41
404.029	2.99
404.238	3.27
404.446	3.31
404.655	3.44
404.864	3.47
405.072	3.05
405.281	3.06
405.489	3.21
405.698	3.32
405.906	3.44
406.115	3.74
406.324	3.51
406.532	3.13
406.741	2.97
406.949	3.02
407.158	3.01
407.366	3.08
407.574	3.16
407.783	3.18
407.991	2.94
408.2	2.88
408.408	2.8
408.617	2.9
408.825	2.82
409.033	2.98
409.242	3.01
409.45	3.09
409.658	2.97
409.867	3.01
410.075	3
410.283	2.79
410.491	2.71
410.7	2.75
410.908	2.9
411.116	2.83
411.324	2.95
411.533	3.03
411.741	3.04
411.949	2.89
412.157	2.89
412.365	2.81
412.573	2.88
412.781	2.94
412.99	2.87
413.198	2.9
413.406	3.04
413.614	3.01
413.822	3
414.03	3.03
414.238	2.9
414.446	2.88
414.654	2.86
414.862	2.9
415.07	2.78
415.278	2.94
415.486	2.79
415.694	2.81
415.902	2.8
416.109	2.82
416.317	2.86
416.525	2.9
416.733	2.74
416.941	2.85
417.149	2.95
417.357	2.78
417.564	2.8
417.772	2.85
417.98	2.6
418.188	2.6
418.395	2.68
418.603	2.7
418.811	2.72
419.019	2.6
419.226	2.68
419.434	2.67
419.642	2.57
419.849	2.5
420.057	2.6
420.265	2.42
420.472	2.35
420.68	2.31
420.887	2.28
421.095	2.38
421.302	2.46
421.51	2.35
421.717	2.42
421.925	2.38
422.132	2.21
422.34	2.12
422.547	2.29
422.755	2.28
422.962	2.32
423.17	2.46
423.377	2.5
423.585	2.48
423.792	2.35
423.999	2.37
424.207	2.18
424.414	2.07
424.621	2.06
424.829	2.13
425.036	2.08
425.243	2.1
425.451	2.09
425.658	2
425.865	2.13
426.072	2.03
426.28	2.21
426.487	2.21
426.694	2.09
426.901	2.11
427.108	2.25
427.315	2.25
427.523	2.3
427.73	2.54
427.937	2.36
428.144	2.36
428.351	2.26
428.558	2.31
428.765	2.12
428.972	2.33
429.179	2.19
429.386	2.33
429.593	2.23
429.8	2.2
430.007	2.05
430.214	2.21
430.421	1.94
430.628	2.15
430.835	2.26
431.042	2.33
431.249	2.3
431.456	2.43
431.662	2.54
431.869	2.61
432.076	2.62
432.283	2.56
432.49	2.71
432.697	2.47
432.903	2.39
433.11	2.35
433.317	2.4
433.524	2.19
433.73	2.09
433.937	2.17
434.144	2.1
434.35	2.09
434.557	2.07
434.764	2.18
434.97	2.08
435.177	2.19
435.384	2.21
435.59	2.32
435.797	2.44
436.003	2.55
436.21	2.5
436.416	2.45
436.623	2.42
436.829	2.3
437.036	2.31
437.242	2.36
437.449	2.34
437.655	2.44
437.862	2.51
438.068	2.41
438.275	2.44
438.481	2.49
438.687	2.34
438.894	2.4
439.1	2.55
439.307	2.55
439.513	2.58
439.719	2.66
439.926	2.59
440.132	2.64
440.338	2.64
440.544	2.6
440.751	2.67
440.957	2.49
441.163	2.33
441.369	2.4
441.575	2.48
441.782	2.44
441.988	2.62
442.194	2.71
442.4	2.64
442.606	2.54
442.812	2.58
443.018	2.66
443.224	2.66
443.431	2.73
443.637	2.91
443.843	2.89
444.049	2.79
444.255	2.71
444.461	2.73
444.667	2.68
444.873	2.64
445.079	2.68
445.284	2.74
445.49	2.67
445.696	2.58
445.902	2.61
446.108	2.52
446.314	2.46
446.52	2.47
446.726	2.65
446.931	2.66
447.137	2.72
447.343	2.79
447.549	2.91
447.755	2.79
447.96	2.8
448.166	2.91
448.372	3.01
448.578	2.94
448.783	3.03
448.989	3.01
449.195	2.94
449.4	2.91
449.606	2.89
449.812	2.86
450.017	2.88
450.223	2.87
450.428	2.82
450.634	2.78
450.84	2.79
451.045	2.86
451.251	2.87
451.456	2.98
451.662	3.02
451.867	3.05
452.073	3
452.278	2.93
452.483	2.93
452.689	2.93
452.894	2.86
453.1	2.79
453.305	2.89
453.51	2.74
453.716	2.7
453.921	2.67
454.127	2.72
454.332	2.67
454.537	2.74
454.742	2.76
454.948	2.76
455.153	2.73
455.358	2.74
455.563	2.82
455.769	2.85
455.974	2.91
456.179	2.97
456.384	2.96
456.589	2.79
456.795	2.78
457	2.76
457.205	2.63
457.41	2.63
457.615	2.79
457.82	2.81
458.025	2.82
458.23	2.88
458.435	2.85
458.64	2.78
458.845	2.83
459.05	2.82
459.255	2.89
459.46	2.92
459.665	2.86
459.87	2.81
460.075	2.84
460.28	2.82
460.485	2.94
460.69	3.04
460.895	3.03
461.099	3.03
461.304	3.03
461.509	2.99
461.714	3
461.919	3.04
462.123	3.02
462.328	3.03
462.533	3.09
462.738	3.04
462.942	2.93
463.147	2.86
463.352	2.97
463.556	2.97
463.761	3
463.966	3.09
464.17	3.19
464.375	3.06
464.58	2.95
464.784	2.95
464.989	2.96
465.193	2.95
465.398	3.02
465.602	3.14
465.807	3.02
466.011	3.05
466.216	3.06
466.42	3
466.625	3
466.829	3.15
467.034	3.13
467.238	3.11
467.443	3.13
467.647	3.02
467.851	2.91
468.056	2.93
468.26	3.01
468.464	3.03
468.669	3.06
468.873	3.18
469.077	3.14
469.282	3.11
469.486	3.17
469.69	3.31
469.894	3.3
470.099	3.35
470.303	3.4
470.507	3.43
470.711	3.33
470.915	3.31
471.119	3.33
471.324	3.33
471.528	3.3
471.732	3.35
471.936	3.37
472.14	3.39
472.344	3.36
472.548	3.32
472.752	3.41
472.956	3.48
473.16	3.52
473.364	3.59
473.568	3.59
473.772	3.61
473.976	3.57
474.18	3.52
474.384	3.58
474.588	3.61
474.792	3.56
474.995	3.55
475.199	3.6
475.403	3.46
475.607	3.46
475.811	3.46
476.015	3.52
476.218	3.52
476.422	3.56
476.626	3.57
476.83	3.59
477.033	3.57
477.237	3.55
477.441	3.56
477.644	3.64
477.848	3.63
478.052	3.64
478.255	3.68
478.459	3.69
478.663	3.73
478.866	3.8
479.07	3.78
479.273	3.78
479.477	3.78
479.681	3.8
479.884	3.78
480.088	3.8
480.291	3.85
480.495	3.9
480.698	3.82
480.901	3.83
481.105	3.85
481.308	3.88
481.512	3.91
481.715	3.97
481.919	3.95
482.122	3.91
482.325	3.92
482.529	3.95
482.732	3.98
482.935	4.03
483.138	4.08
483.342	4.1
483.545	4.08
483.748	4.02
483.952	4
484.155	4.02
484.358	3.99
484.561	3.96
484.764	3.99
484.967	4.01
485.171	4.07
485.374	4.05
485.577	4.08
485.78	4.1
485.983	4.15
486.186	4.1
486.389	4.16
486.592	4.16
486.795	4.2
486.998	4.18
487.201	4.24
487.404	4.2
487.607	4.3
487.81	4.27
488.013	4.28
488.216	4.24
488.419	4.23
488.622	4.07
488.825	4.04
489.028	4.05
489.231	4.04
489.433	4.1
489.636	4.15
489.839	4.16
490.042	4.12
490.245	4.15
490.447	4.14
490.65	4.15
490.853	4.07
491.056	4.1
491.258	4.09
491.461	4.07
491.664	4.1
491.866	4.23
492.069	4.28
492.272	4.33
492.474	4.3
492.677	4.3
492.879	4.22
493.082	4.19
493.285	4.15
493.487	4.21
493.69	4.25
493.892	4.28
494.095	4.3
494.297	4.27
494.5	4.33
494.702	4.38
494.905	4.44
495.107	4.47
495.309	4.54
495.512	4.5
495.714	4.45
495.917	4.45
496.119	4.49
496.321	4.55
496.524	4.55
496.726	4.53
496.928	4.56
497.13	4.55
497.333	4.47
497.535	4.55
497.737	4.6
497.939	4.62
498.142	4.61
498.344	4.68
498.546	4.67
498.748	4.73
498.95	4.8
499.152	4.85
499.355	4.84
499.557	4.89
499.759	4.9
499.961	4.88
500.163	4.91
500.365	5.01
500.567	5.08
500.769	5.07
500.971	5.1
501.173	5.06
501.375	5.02
501.577	4.99
501.779	5.03
501.981	4.99
502.183	5.04
502.385	5.1
502.587	5.09
502.788	5.12
502.99	5.17
503.192	5.16
503.394	5.08
503.596	5.15
503.798	5.23
503.999	5.27
504.201	5.31
504.403	5.43
504.605	5.44
504.806	5.37
505.008	5.32
505.21	5.35
505.411	5.31
505.613	5.26
505.815	5.29
506.016	5.33
506.218	5.38
506.42	5.43
506.621	5.46
506.823	5.5
507.024	5.52
507.226	5.48
507.427	5.5
507.629	5.53
507.83	5.51
508.032	5.49
508.233	5.54
508.435	5.6
508.636	5.72
508.838	5.74
509.039	5.82
509.24	5.82
509.442	5.73
509.643	5.59
509.845	5.57
510.046	5.64
510.247	5.62
510.448	5.7
510.65	5.8
510.851	5.85
511.052	5.78
511.254	5.82
511.455	5.77
511.656	5.75
511.857	5.75
512.058	5.82
512.26	5.82
512.461	5.94
512.662	5.98
512.863	5.98
513.064	5.95
513.265	6.01
513.466	5.97
513.667	5.99
513.868	6.01
514.069	5.99
514.27	6.03
514.471	6.02
514.672	6
514.873	6.05
515.074	6.11
515.275	5.98
515.476	6
515.677	6.02
515.878	6.03
516.079	6
516.28	6.1
516.481	6.14
516.682	6.14
516.882	6.1
517.083	6.1
517.284	6.07
517.485	6.06
517.686	6.06
517.886	6.07
518.087	6.11
518.288	6.15
518.488	6.19
518.689	6.2
518.89	6.27
519.091	6.32
519.291	6.29
519.492	6.27
519.692	6.37
519.893	6.39
520.094	6.39
520.294	6.46
520.495	6.51
520.695	6.42
520.896	6.38
521.096	6.38
521.297	6.4
521.497	6.35
521.698	6.36
521.898	6.39
522.099	6.41
522.299	6.4
522.499	6.46
522.7	6.51
522.9	6.56
523.101	6.55
523.301	6.53
523.501	6.56
523.702	6.55
523.902	6.58
524.102	6.61
524.302	6.63
524.503	6.63
524.703	6.68
524.903	6.64
525.103	6.65
525.304	6.71
525.504	6.77
525.704	6.73
525.904	6.77
526.104	6.77
526.304	6.78
526.504	6.77
526.705	6.78
526.905	6.8
527.105	6.82
527.305	6.8
527.505	6.82
527.705	6.83
527.905	6.83
528.105	6.83
528.305	6.85
528.505	6.82
528.705	6.88
528.905	6.89
529.105	6.89
529.304	6.91
529.504	7.01
529.704	7.05
529.904	7.1
530.104	7.17
530.304	7.22
530.503	7.17
530.703	7.11
530.903	7.11
531.103	7.14
531.303	7.15
531.502	7.18
531.702	7.24
531.902	7.22
532.101	7.17
532.301	7.22
532.501	7.29
532.7	7.31
532.9	7.39
533.1	7.46
533.299	7.49
533.499	7.48
533.698	7.48
533.898	7.5
534.097	7.51
534.297	7.54
534.496	7.55
534.696	7.58
534.895	7.6
535.095	7.58
535.294	7.58
535.494	7.61
535.693	7.63
535.892	7.7
536.092	7.72
536.291	7.76
536.491	7.8
536.69	7.87
536.889	7.84
537.088	7.89
537.288	7.89
537.487	7.93
537.686	7.96
537.886	8.03
538.085	8.07
538.284	8.1
538.483	8.11
538.682	8.09
538.882	8.12
539.081	8.19
539.28	8.25
539.479	8.26
539.678	8.3
539.877	8.29
540.076	8.36
540.275	8.36
540.474	8.37
540.673	8.38
540.872	8.38
541.071	8.39
541.27	8.44
541.469	8.49
541.668	8.58
541.867	8.71
542.066	8.75
542.265	8.79
542.464	8.87
542.663	8.92
542.862	8.91
543.06	8.91
543.259	8.99
543.458	9.02
543.657	9.03
543.856	9.13
544.054	9.15
544.253	9.14
544.452	9.17
544.651	9.2
544.849	9.21
545.048	9.27
545.247	9.34
545.445	9.37
545.644	9.42
545.843	9.55
546.041	9.64
546.24	9.69
546.438	9.78
546.637	9.87
546.836	9.85
547.034	9.93
547.233	9.98
547.431	9.96
547.63	9.96
547.828	10.05
548.027	10.03
548.225	10.18
548.423	10.41
548.622	10.53
548.82	10.56
549.019	10.66
549.217	10.69
549.415	10.74
549.614	10.88
549.812	10.91
550.01	10.95
550.209	10.95
550.407	11.02
550.605	10.96
550.803	11.05
551.002	11.18
551.2	11.25
551.398	11.25
551.596	11.37
551.794	11.52
551.993	11.57
552.191	11.72
552.389	11.85
552.587	11.91
552.785	11.94
552.983	12.04
553.181	12.15
553.379	12.26
553.577	12.33
553.775	12.46
553.973	12.48
554.171	12.53
554.369	12.62
554.567	12.78
554.765	12.87
554.963	13.08
555.161	13.17
555.359	13.22
555.557	13.3
555.755	13.42
555.952	13.43
556.15	13.49
556.348	13.59
556.546	13.72
556.744	13.8
556.941	13.94
557.139	14.09
557.337	14.25
557.535	14.33
557.732	14.38
557.93	14.5
558.128	14.61
558.325	14.61
558.523	14.69
558.721	14.81
558.918	14.96
559.116	15.05
559.313	15.11
559.511	15.26
559.708	15.29
559.906	15.35
560.104	15.53
560.301	15.77
560.498	15.89
560.696	16.1
560.893	16.23
561.091	16.28
561.288	16.39
561.486	16.45
561.683	16.6
561.88	16.69
562.078	16.83
562.275	16.81
562.473	16.99
562.67	17.1
562.867	17.27
563.064	17.28
563.262	17.46
563.459	17.53
563.656	17.59
563.853	17.63
564.051	17.81
564.248	18.01
564.445	18.13
564.642	18.34
564.839	18.4
565.036	18.6
565.234	18.64
565.431	18.72
565.628	18.75
565.825	18.85
566.022	18.93
566.219	19.01
566.416	19.12
566.613	19.23
566.81	19.4
567.007	19.41
567.204	19.52
567.401	19.64
567.598	19.76
567.795	19.89
567.991	19.97
568.188	20.1
568.385	20.21
568.582	20.32
568.779	20.43
568.976	20.55
569.172	20.65
569.369	20.7
569.566	20.73
569.763	20.78
569.96	20.86
570.156	20.92
570.353	20.97
570.55	21.05
570.746	21.09
570.943	21.2
571.14	21.28
571.336	21.32
571.533	21.37
571.729	21.39
571.926	21.42
572.123	21.44
572.319	21.46
572.516	21.52
572.712	21.6
572.909	21.62
573.105	21.69
573.302	21.84
573.498	21.91
573.695	21.94
573.891	21.99
574.087	21.97
574.284	21.95
574.48	21.94
574.677	22.02
574.873	22.1
575.069	22.21
575.266	22.2
575.462	22.22
575.658	22.18
575.854	22.11
576.051	22.08
576.247	22.21
576.443	22.29
576.639	22.41
576.835	22.54
577.032	22.48
577.228	22.55
577.424	22.56
577.62	22.58
577.816	22.5
578.012	22.62
578.208	22.54
578.404	22.5
578.6	22.49
578.796	22.65
578.993	22.71
579.189	22.73
579.384	22.76
579.58	22.71
579.776	22.61
579.972	22.59
580.168	22.59
580.364	22.57
580.56	22.55
580.756	22.59
580.952	22.55
581.148	22.56
581.343	22.58
581.539	22.61
581.735	22.53
581.931	22.55
582.127	22.49
582.322	22.48
582.518	22.52
582.714	22.51
582.909	22.51
583.105	22.48
583.301	22.47
583.496	22.35
583.692	22.36
583.888	22.26
584.083	22.23
584.279	22.24
584.474	22.17
584.67	22.1
584.866	22.04
585.061	22.08
585.257	21.99
585.452	22.07
585.648	22.04
585.843	22.11
586.039	22.09
586.234	22.07
586.429	22.04
586.625	22.07
586.82	22.03
587.015	22
587.211	22.03
587.406	21.98
587.601	21.99
587.797	21.97
587.992	22
588.187	22.02
588.383	22.11
588.578	22.13
588.773	22.22
588.968	22.31
589.163	22.34
589.359	22.39
589.554	22.37
589.749	22.4
589.944	22.38
590.139	22.48
590.334	22.47
590.529	22.35
590.724	22.39
590.919	22.45
591.114	22.39
591.309	22.36
591.504	22.61
591.699	22.59
591.894	22.57
592.089	22.58
592.284	22.63
592.479	22.58
592.674	22.58
592.869	22.68
593.064	22.8
593.259	22.89
593.454	23.06
593.648	23.16
593.843	23.2
594.038	23.26
594.233	23.36
594.428	23.3
594.622	23.46
594.817	23.54
595.012	23.59
595.206	23.62
595.401	23.75
595.596	23.74
595.79	23.76
595.985	23.85
596.18	24
596.374	24.12
596.569	24.28
596.763	24.36
596.958	24.46
597.153	24.57
597.347	24.62
597.542	24.69
597.736	24.85
597.931	24.92
598.125	24.95
598.319	25.06
598.514	25.12
598.708	25.19
598.903	25.16
599.097	25.26
599.291	25.35
599.486	25.45
599.68	25.47
599.874	25.66
600.069	25.62
600.263	25.63
600.457	25.57
600.651	25.67
600.846	25.66
601.04	25.76
601.234	25.76
601.428	25.92
601.622	25.93
601.817	26.08
602.011	26.12
602.205	26.18
602.399	26.18
602.593	26.23
602.787	26.11
602.981	26.17
603.175	26.31
603.369	26.27
603.563	26.29
603.757	26.34
603.951	26.36
604.145	26.22
604.339	26.24
604.533	26.22
604.727	26.19
604.921	26.17
605.115	26.15
605.309	26.1
605.502	25.99
605.696	25.98
605.89	25.87
606.084	25.83
606.278	25.78
606.471	25.79
606.665	25.71
606.859	25.72
607.053	25.6
607.246	25.52
607.44	25.46
607.634	25.49
607.827	25.3
608.021	25.34
608.214	25.3
608.408	25.2
608.602	25.1
608.795	25.11
608.989	25.04
609.182	25
609.376	25
609.569	24.97
609.763	24.84
609.956	24.77
610.15	24.59
610.343	24.45
610.537	24.25
610.73	24.27
610.923	24.1
611.117	24.09
611.31	24.05
611.504	24.01
611.697	23.84
611.89	23.72
612.083	23.67
612.277	23.5
612.47	23.43
612.663	23.35
612.856	23.34
613.05	23.23
613.243	23.13
613.436	23.02
613.629	22.95
613.822	22.97
614.015	22.87
614.209	22.77
614.402	22.63
614.595	22.58
614.788	22.48
614.981	22.39
615.174	22.4
615.367	22.36
615.56	22.32
615.753	22.19
615.946	22.16
616.139	22.08
616.332	22.11
616.525	22.01
616.718	21.95
616.911	21.91
617.103	21.88
617.296	21.79
617.489	21.69
617.682	21.61
617.875	21.48
618.067	21.41
618.26	21.27
618.453	21.18
618.646	21.08
618.838	20.98
619.031	20.89
619.224	20.89
619.417	20.93
619.609	20.95
619.802	20.99
619.994	20.99
620.187	20.99
620.38	20.94
620.572	20.88
620.765	20.88
620.957	20.93
621.15	20.77
621.342	20.7
621.535	20.6
621.727	20.48
621.92	20.36
622.112	20.44
622.305	20.47
622.497	20.49
622.69	20.53
622.882	20.53
623.074	20.54
623.267	20.47
623.459	20.43
623.651	20.33
623.844	20.27
624.036	20.18
624.228	20.15
624.42	20.18
624.613	20.2
624.805	20.16
624.997	20.17
625.189	20.12
625.381	20.09
625.574	20.01
625.766	19.99
625.958	19.83
626.15	19.78
626.342	19.78
626.534	19.75
626.726	19.75
626.918	19.85
627.11	19.81
627.302	19.71
627.494	19.67
627.686	19.67
627.878	19.62
628.07	19.52
628.262	19.48
628.454	19.49
628.646	19.43
628.838	19.33
629.029	19.32
629.221	19.33
629.413	19.34
629.605	19.27
629.797	19.32
629.989	19.29
630.18	19.24
630.372	19.09
630.564	19.08
630.755	19.06
630.947	19.1
631.139	19.04
631.33	19.01
631.522	19
631.714	18.89
631.905	18.88
632.097	18.84
632.289	18.86
632.48	18.77
632.672	18.69
632.863	18.61
633.055	18.61
633.246	18.6
633.438	18.6
633.629	18.62
633.821	18.56
634.012	18.5
634.203	18.44
634.395	18.46
634.586	18.39
634.777	18.39
634.969	18.37
635.16	18.35
635.351	18.22
635.543	18.3
635.734	18.25
635.925	18.26
636.117	18.24
636.308	18.34
636.499	18.27
636.69	18.27
636.881	18.23
637.073	18.25
637.264	18.11
637.455	18.14
637.646	18.14
637.837	18.14
638.028	18.05
638.219	18.06
638.41	18.08
638.601	18.01
638.792	17.96
638.983	18.01
639.174	18.02
639.365	17.96
639.556	18.02
639.747	18.03
639.938	18
640.129	17.93
640.32	17.88
640.511	17.79
640.701	17.83
640.892	17.72
641.083	17.74
641.274	17.78
641.465	17.77
641.655	17.73
641.846	17.77
642.037	17.72
642.228	17.59
642.418	17.54
642.609	17.56
642.8	17.52
642.99	17.48
643.181	17.56
643.372	17.56
643.562	17.4
643.753	17.35
643.943	17.26
644.134	17.28
644.324	17.22
644.515	17.23
644.705	17.18
644.896	17.24
645.086	17.15
645.277	17.16
645.467	17.09
645.658	17.14
645.848	17.03
646.038	16.97
646.229	16.88
646.419	16.93
646.61	16.82
646.8	16.81
646.99	16.81
647.18	16.82
647.371	16.84
647.561	16.88
647.751	16.87
647.941	16.83
648.132	16.84
648.322	16.71
648.512	16.64
648.702	16.62
648.892	16.57
649.082	16.53
649.272	16.53
649.462	16.62
649.653	16.63
649.843	16.65
650.033	16.55
650.223	16.54
650.413	16.38
650.603	16.43
650.793	16.35
650.983	16.38
651.172	16.31
651.362	16.24
651.552	16.12
651.742	16.01
651.932	16.01
652.122	15.97
652.312	15.93
652.502	15.89
652.691	15.89
652.881	15.76
653.071	15.67
653.261	15.59
653.45	15.47
653.64	15.33
653.83	15.23
654.019	15.14
654.209	15.01
654.399	14.83
654.588	14.77
654.778	14.58
654.968	14.45
655.157	14.39
655.347	14.31
655.536	14.23
655.726	14.13
655.915	13.93
656.105	13.67
656.294	13.52
656.484	13.23
656.673	13.08
656.863	12.93
657.052	12.82
657.241	12.67
657.431	12.57
657.62	12.39
657.809	12.19
657.999	12.09
658.188	11.87
658.377	11.79
658.567	11.68
658.756	11.53
658.945	11.34
659.134	11.26
659.324	11.01
659.513	10.77
659.702	10.68
659.891	10.53
660.08	10.32
660.269	10.13
660.458	10.12
660.648	9.98
660.837	9.76
661.026	9.65
661.215	9.54
661.404	9.3
661.593	9.17
661.782	9.08
661.971	8.89
662.16	8.71
662.349	8.62
662.538	8.4
662.726	8.27
662.915	8.13
663.104	8.06
663.293	7.91
663.482	7.81
663.671	7.78
663.86	7.73
664.048	7.6
664.237	7.49
664.426	7.45
664.615	7.34
664.803	7.26
664.992	7.13
665.181	7.1
665.369	7.06
665.558	6.95
665.747	6.9
665.935	6.97
666.124	6.87
666.312	6.78
666.501	6.75
666.69	6.71
666.878	6.68
667.067	6.67
667.255	6.63
667.444	6.69
667.632	6.58
667.82	6.53
668.009	6.48
668.197	6.47
668.386	6.33
668.574	6.42
668.762	6.28
668.951	6.37
669.139	6.27
669.327	6.31
669.516	6.34
669.704	6.37
669.892	6.25
670.08	6.32
670.269	6.27
670.457	6.23
670.645	6.31
670.833	6.41
671.021	6.49
671.21	6.55
671.398	6.6
671.586	6.61
671.774	6.57
671.962	6.53
672.15	6.56
672.338	6.49
672.526	6.47
672.714	6.52
672.902	6.65
673.09	6.65
673.278	6.74
673.466	6.81
673.654	7.05
673.842	7.02
674.03	7.06
674.218	7.18
674.405	7.33
674.593	7.27
674.781	7.32
674.969	7.54
675.157	7.65
675.344	7.64
675.532	7.66
675.72	7.82
675.908	7.83
676.095	7.76
676.283	7.83
676.471	7.92
676.658	7.91
676.846	8.01
677.033	8.29
677.221	8.41
677.409	8.5
677.596	8.62
677.784	8.62
677.971	8.55
678.159	8.66
678.346	8.71
678.534	8.81
678.721	8.98
678.909	9.11
679.096	9.07
679.283	9.23
679.471	9.26
679.658	9.45
679.846	9.53
680.033	9.86
680.22	10.02
680.408	10.22
680.595	10.18
680.782	10.35
680.969	10.37
681.157	10.54
681.344	10.61
681.531	10.79
681.718	10.94
681.905	11.13
682.093	11.23
682.28	11.34
682.467	11.55
682.654	11.72
682.841	11.91
683.028	12.05
683.215	12.35
683.402	12.53
683.589	12.79
683.776	13.05
683.963	13.21
684.15	13.38
684.337	13.59
684.524	13.72
684.711	13.86
684.898	14.19
685.085	14.64
685.271	15.02
685.458	15.29
685.645	15.45
685.832	15.85
686.019	16.06
686.205	16.34
686.392	16.66
686.579	17.21
686.766	17.43
686.952	17.76
687.139	18.05
687.326	18.58
687.512	18.93
687.699	19.48
687.886	20.01
688.072	20.42
688.259	20.84
688.445	21.28
688.632	21.7
688.818	22.17
689.005	22.87
689.191	23.56
689.378	24.14
689.564	24.75
689.751	25.29
689.937	25.84
690.124	26.27
690.31	26.92
690.496	27.53
690.683	28.41
690.869	29.15
691.055	29.94
691.242	30.59
691.428	31.28
691.614	31.77
691.8	32.44
691.987	33.06
692.173	33.94
692.359	34.85
692.545	35.77
692.731	36.43
692.918	37.26
693.104	37.95
693.29	38.69
693.476	39.29
693.662	40.32
693.848	41.13
694.034	41.87
694.22	42.56
694.406	43.41
694.592	44.01
694.778	44.8
694.964	45.6
695.15	46.48
695.336	47.37
695.522	48.28
695.708	49.06
695.894	49.89
696.08	50.55
696.265	51.24
696.451	52.12
696.637	52.82
696.823	53.57
697.009	54.71
697.194	55.37
697.38	55.82
697.566	56.62
697.751	57.45
697.937	57.74
698.123	58.49
698.308	59.29
698.494	59.86
698.68	60.47
698.865	61.12
699.051	61.69
699.236	62.47
699.422	63.23
699.607	64.11
699.793	64.82
699.978	65.63
700.164	66.18
700.349	66.84
700.535	67.24
700.72	68.17
700.906	68.67
701.091	69.29
701.276	69.95
701.462	70.72
701.647	70.78
701.832	71.32
702.018	71.93
702.203	72.32
702.388	72.51
702.573	73.27
702.759	73.75
702.944	74.1
703.129	74.25
703.314	74.67
703.499	74.98
703.684	75.42
703.87	75.72
704.055	76.45
704.24	76.6
704.425	76.74
704.61	76.94
704.795	77.3
704.98	77.46
705.165	78
705.35	78.15
705.535	78.68
705.72	78.98
705.905	79.22
706.09	79.58
706.275	80.44
706.459	80.17
706.644	80.6
706.829	80.88
707.014	81.2
707.199	80.84
707.384	81.67
707.568	81.64
707.753	81.95
707.938	82.15
708.123	82.69
708.307	82.78
708.492	83.25
708.677	83.54
708.861	83.78
709.046	84.21
709.231	84.46
709.415	84.64
709.6	84.73
709.784	85.07
709.969	85.52
710.153	86.04
710.338	86.3
710.522	86.61
710.707	86.76
710.891	86.65
711.076	86.5
711.26	86.35
711.445	86.29
711.629	86.6
711.813	86.68
711.998	87.16
712.182	87.09
712.366	87.53
712.551	87.3
712.735	86.8
712.919	86.75
713.103	87.32
713.288	87.26
713.472	87.83
713.656	89.15
713.84	89.02
714.024	89.66
714.208	89.94
714.393	89.46
714.577	88.9
714.761	89
714.945	88.64
715.129	88.75
715.313	89.28
715.497	89.74
715.681	90.02
715.865	90.43
716.049	90.5
716.233	90.6
716.417	90.74
716.601	90.69
716.785	90.48
716.968	90.44
717.152	90.24
717.336	90.51
717.52	90.78
717.704	91.3
717.888	92.09
718.071	92.53
718.255	92.34
718.439	92.49
718.622	92.07
718.806	91.42
718.99	91.51
719.174	91.43
719.357	91.49
719.541	91.84
719.724	92.34
719.908	92.33
720.092	92.55
720.275	92.66
720.459	92.59
720.642	92.88
720.826	93.08
721.009	93.01
721.193	93.37
721.376	92.97
721.559	92.42
721.743	91.89
721.926	92.34
722.11	92.03
722.293	92.45
722.476	93.09
722.66	93.26
722.843	93.04
723.026	93.05
723.21	92.9
723.393	92.74
723.576	93.36
723.759	93.45
723.942	94.13
724.126	94.62
724.309	95.37
724.492	95.33
724.675	95.77
724.858	95.04
725.041	95.51
725.224	95.93
725.407	95.81
725.59	95.66
725.774	95.79
725.957	95.74
726.14	94.86
726.322	94.55
726.505	94.59
726.688	95.69
726.871	95.3
727.054	95.06
727.237	95.77
727.42	96.31
727.603	95.61
727.786	95.68
727.968	95.8
728.151	95.84
728.334	95.72
728.517	95.93
728.699	95.89
728.882	96.06
729.065	96.13
729.248	96.47
729.43	96.05
729.613	96.38
729.796	96.56
729.978	96.62
730.161	96.14
730.343	96.06
730.526	96.39
730.708	96.44
730.891	96.55
731.073	96.73
731.256	97.46
731.438	97.25
731.621	97.49
731.803	97.67
731.986	97.37
732.168	97.36
732.35	97.48
732.533	97.44
732.715	97.17
732.898	98
733.08	97.73
733.262	98.17
733.444	98.3
733.627	98.9
733.809	99.12
733.991	100.07
734.173	99.64
734.355	99.78
734.538	99.04
734.72	98.53
734.902	97.99
735.084	98.46
735.266	98.31
735.448	98.12
735.63	98.72
735.812	99.47
735.994	99.57
736.176	100.01
736.358	101.08
736.54	101.3
736.722	101.3
736.904	101.23
737.086	101.18
737.268	100.82
737.45	99.87
737.632	100.21
737.814	99.81
737.995	99.93
738.177	100.31
738.359	100.4
738.541	99.54
738.723	100.38
738.904	100.78
739.086	100.5
739.268	101.37
739.449	102.24
739.631	102.32
739.813	101.3
739.994	101.51
740.176	100.98
740.358	100.41
740.539	99.66
740.721	100.33
740.902	100.52
741.084	100.66
741.265	100.57
741.447	100.54
741.628	100.69
741.81	100.35
741.991	100.14
742.172	100.55
742.354	100.74
742.535	100.87
742.717	101.24
742.898	101.58
743.079	101.58
743.261	102.78
743.442	101.43
743.623	100.78
743.804	99.85
743.986	100.06
744.167	98.99
744.348	99.62
744.529	99.5
744.71	99.91
744.891	99.4
745.073	100.05
745.254	100.96
745.435	101.63
745.616	100.81
745.797	100.28
745.978	98.58
746.159	98.46
746.34	97.37
746.521	98.91
746.702	99.12
746.883	100.11
747.064	99.53
747.245	100.77
747.426	99.48
747.606	99.88
747.787	99.98
747.968	100.1
748.149	100.5
748.33	101.71
748.51	101.74
748.691	101.3
748.872	101.24
749.053	100.3
749.233	101.03
749.414	101.45
749.595	101.82
749.775	101.24
749.956	102.79
750.137	101.54
750.317	101.05
750.498	100.37
750.678	101.09
750.859	100.9
751.04	100.88
751.22	101.44
751.4	103.11
751.581	101.7
751.761	100.92
751.942	100.68
752.122	100.39
752.303	97.48
752.483	98.54
752.663	97.54
752.844	98.46
753.024	98.38
753.204	99.06
753.385	99.28
753.565	99.35
753.745	98.97
753.925	98.92
754.106	99.27
754.286	99.28
754.466	99.41
754.646	98.39
754.826	97.83
755.006	98.26
755.187	96.96
755.367	98.14
755.547	99.05
755.727	98.74
755.907	97.32
756.087	98.32
756.267	97.56
756.447	96.88
756.627	97.76
756.807	99.3
756.987	99.17
757.167	99.52
757.346	99.24
757.526	98.19
757.706	99.02
757.886	99.1
758.066	98.31
758.246	98.15
758.425	98.57
758.605	97.7
758.785	97.88
758.965	97.57
759.144	97.81
759.324	97.99
759.504	99.35
759.683	99.11
759.863	99.08
760.043	99.99
760.222	100.84
760.402	99.72
760.581	100.96
760.761	101.83
760.94	100.27
761.12	99.76
761.299	100.31
761.479	99.18
761.658	98.71
761.838	99.92
762.017	98.72
762.197	97.54
762.376	96.21
762.555	95.07
762.735	93.25
762.914	93.44
763.093	93.03
763.273	94.18
763.452	95.89
763.631	96.45
763.81	97.34
763.99	97.87
764.169	97.66
764.348	97.28
764.527	97.65
764.706	96.18
764.885	97.12
765.064	96.67
765.243	96.24
765.423	96.13
765.602	95.89
765.781	93.41
765.96	93.63
766.139	93.29
766.318	93.8
766.497	94.39
766.676	96
766.854	93.84
767.033	93.34
767.212	92.06
767.391	92.05
767.57	91.35
767.749	93.42
767.928	93.95
768.106	94.37
768.285	93.67
768.464	94.66
768.643	94.96
768.821	96.45
769	97
769.179	98.94
769.357	97.21
769.536	95.63
769.715	94.9
769.893	93.43
770.072	91.8
770.25	91.42
770.429	94.09
770.607	93.61
770.786	94.79
770.964	95.33
771.143	96.62
771.321	95.5
771.5	95.44
771.678	95.34
771.857	95.3
772.035	93.84
772.213	93.48
772.392	92.92
772.57	92.49
772.748	93.64
772.927	96.93
773.105	94.86
773.283	94.32
773.461	92.97
773.64	90.73
773.818	89.61
773.996	89.6
774.174	90.5
774.352	94.19
774.531	93.87
774.709	94.36
774.887	95.26
775.065	94.97
775.243	93
775.421	94.22
775.599	94.73
775.777	93.76
775.955	92.19
776.133	92.42
776.311	91.43
776.489	88.43
776.667	89.98
776.844	90.84
777.022	88.29
777.2	87.07
777.378	88.23
777.556	87.97
777.734	87.39
777.911	89.34
778.089	91.2
778.267	91.87
778.445	89.15
778.622	88.73
778.8	88.58
778.978	89.09
779.155	89.14
779.333	91.14
779.511	93.79
779.688	94.59
779.866	95.95
780.043	93.75
780.221	94.89
780.398	91.38
780.576	91.6
780.753	86.43
780.931	84.48
781.108	82.07
781.286	80.54
781.463	77.72
781.64	77.13
781.818	80.12
781.995	82.03
782.172	84.69
782.35	86.35
782.527	85.32
782.704	84.38
782.882	82.74
783.059	82.38
783.236	81.97
783.413	86.82
783.59	88.7
783.768	90.06
783.945	91.49
784.122	93.58
784.299	93.78
784.476	94.87
784.653	96.03
784.83	97.12
785.007	94.54
785.184	93.59
785.361	91.3
785.538	88.01
785.715	85.45
785.892	84.33
786.069	83.47
786.246	88.04
786.423	88.04
786.6	89.19
786.776	92.91
786.953	91.74
787.13	85.61
787.307	88.27
787.484	86.02
787.66	83.33
787.837	83.67
788.014	85.84
788.191	84.3
788.367	82.91
788.544	82.86
788.721	85.35
788.897	85.03
789.074	82.37
789.25	81.99
789.427	84.62
789.603	85.49
789.78	84.86
789.956	84.78
790.133	90.08
790.309	88.15
790.486	87.54
790.662	84.95
790.839	86.52
791.015	84.5
791.192	81.46
791.368	77.74
791.544	80.88
791.721	87.16
791.897	89.03
792.073	93.32
792.249	93
792.426	89.14
792.602	82.74
792.778	79.58
792.954	80.83
793.13	82.28
793.307	83.8
793.483	85.57
793.659	82.85
793.835	79.88
794.011	83.09
794.187	81.77
794.363	79.77
794.539	80.4
794.715	83.13
794.891	82.67
795.067	87
795.243	88.7
795.419	87.93
795.595	90.52
795.771	87.8
795.947	84.22
796.122	82.74
796.298	84.94
796.474	85.93
796.65	80.17
796.826	81.46
797.001	78.35
797.177	77.62
797.353	73.21
797.529	82.27
797.704	78.46
797.88	83.73
798.056	83.52
798.231	79.43
798.407	75.78
798.582	81.09
798.758	79.16
798.934	84.87
799.109	92.66
799.285	92.62
799.46	91.47
799.636	87.69
799.811	82.14
799.986	82.19
800.162	82.76
800.337	81.7
800.513	83.19
800.688	80.95
800.863	76.5
801.039	77.15
801.214	81.35
801.389	83.62
801.565	86.77
801.74	89.49
801.915	84.73
802.09	75.53
802.265	78.11
802.441	78.82
802.616	78.45
802.791	79.83
802.966	84.82
803.141	77.24
803.316	75.89
803.491	74.86
803.666	74.97
803.841	73.21
804.016	80.83
804.191	84.05
804.366	83.19
804.541	87.97
804.716	86.34
804.891	86.04
805.066	85.06
805.241	93.34
805.416	89.64
805.591	94.78
805.765	95.01
805.94	86.15
806.115	76.91
806.29	71.82
806.464	70.68
806.639	64.46
806.814	71.83
806.989	70.61
807.163	70.51
807.338	69.95
807.512	76.73
807.687	70.94
807.862	74.44
808.036	80.45
808.211	81.29
808.385	82.31
808.56	85.7
808.734	85.08
808.909	83.26
809.083	81.79
809.258	78.54
809.432	75.62
809.606	72.62
809.781	79.45
809.955	80.92
810.13	86.2
810.304	79.15
810.478	84.05
810.652	78.07
810.827	77.11
811.001	72.22
811.175	77.36
811.349	77.64
811.524	78.31
811.698	71.64
811.872	75.92
812.046	79.83
812.22	69.26
812.394	73.92
812.568	75.31
812.742	79.87
812.916	75.68
813.09	87.99
813.264	88.16
813.438	93.73
813.612	86.08
813.786	90.68
813.96	86.43
814.134	80.77
814.308	80.37
814.482	81.29
814.656	80.6
814.83	75.91
815.003	77.92
815.177	79.31
815.351	76.41
815.525	79.56
815.698	79.64
815.872	84.89
816.046	85.92
816.219	96.88
816.393	93.88
816.567	103.96
816.74	92.44
816.914	89.43
817.088	84.28
817.261	77.63
817.435	66.69
817.608	77.16
817.782	76.68
817.955	75.91
818.129	79.7
818.302	82.99
818.475	65.44
818.649	59.48
818.822	48.04
818.996	52.48
819.169	56.94
819.342	67.95
819.516	61.3
819.689	69.63
819.862	62.45
820.035	58.65
820.209	55.27
820.382	74.05
820.555	65.52
820.728	70.87
820.901	69.07
821.075	71.55
821.248	58.41
821.421	68.58
821.594	64.48
821.767	77.98
821.94	75.89
822.113	88.66
822.286	98.63
822.459	109.28
822.632	94.83
822.805	104.14
822.978	92.02
823.151	80.6
823.324	72.01
823.496	69.63
823.669	66.69
823.842	62.59
824.015	57.92
824.188	39.32
824.361	40.12
824.533	34.93
824.706	32.29
824.879	41.61
825.051	71.15
825.224	76.71
825.397	70.5
825.569	60.74
825.742	68.36
825.915	71.51
826.087	78.56
826.26	93.94
826.432	113.44
826.605	103.09
826.777	89.16
826.95	75.94
827.122	62.97
827.295	68.83
827.467	67.46
827.64	77.54
827.812	72.5
827.984	78.23
828.157	63.84
828.329	48.34
828.501	43.01
828.674	59.9
828.846	54.96
829.018	60.5
829.19	64.63
829.363	60.56
829.535	71.37
829.707	71.68
829.879	81.52
830.051	81.45
830.223	80.41
830.395	62.86
830.568	55.93
830.74	44.31
830.912	41.47
831.084	41.24
831.256	33.9
831.428	51.49
831.6	55.72
831.772	57.5
831.943	62.2
832.115	61.3
832.287	45.64
832.459	55.65
832.631	65.01
832.803	50.43
832.975	57.72
833.146	61.22
833.318	50.92
833.49	45.27
833.662	43.24
833.833	30.11
834.005	44.67
834.177	47.46
834.348	61.84
834.52	67.19
834.692	74.76
834.863	71.59
835.035	64.42
835.206	54.99
835.378	57.77
835.549	61.29
835.721	77.54
835.892	102.1
836.064	79.39
836.235	61.97
836.407	70.89
836.578	50.7
836.749	42.06
836.921	36.08
837.092	48.88
837.264	29.98
837.435	38.31
837.606	45.81
837.777	48.59
837.949	33.84
838.12	43.46
838.291	39.65
838.462	34.37
838.633	27.72
838.805	28.81
838.976	29.62
839.147	35.22
839.318	33.35
839.489	40.87
839.66	50.06
839.831	59.19
840.002	60.18
840.173	51.79
840.344	61.82
840.515	77.12
840.686	56.3
840.857	56.28
841.028	80.78
841.199	76.05
841.369	64.38
841.54	64.29
841.711	57.76
841.882	67.39
842.053	65.9
842.223	21.7
842.394	21.66
842.565	42.61
842.736	31.01
842.906	35.71
843.077	98.67
843.248	152.26
843.418	127.47
843.589	114.24
843.759	68.8
843.93	10.68
844.101	16.24
844.271	27.51
844.442	60.97
844.612	103.76
844.783	191.39
844.953	550
845.123	-47600
845.294	93.53
845.464	87.8
845.635	97.9
845.805	58.65
845.975	91.31
846.146	87.63
846.316	64.61
846.486	60.74
846.656	73.05
846.827	58.87
846.997	38.18
847.167	43.16
847.337	47.27
847.507	40.4
847.677	11.61
847.848	58.71
848.018	84.17
848.188	41.59
848.358	25.88
848.528	75.97
848.698	66.1
848.868	82.5
849.038	135.7
849.208	207.24
849.378	122.8
849.548	102.99
849.718	87.32
849.887	67.08
850.057	37.14
850.227	31.56
850.397	43.75
850.567	38.2
850.737	50.77
850.906	52.39
851.076	49.38
851.246	46.38
851.415	38.25
851.585	35.14
851.755	0.25
851.924	18.69
852.094	21.88
852.264	38.29
852.433	25.78
852.603	60.26
852.772	57.05
852.942	54.09
853.111	32.53
853.281	30.83
853.45	23.69
853.62	34.81
853.789	25.67
853.959	29.27
854.128	50.73
854.297	37.96
854.467	29.72
854.636	45.98
854.805	64.71
854.975	10
855.144	30.46
855.313	32.85
855.482	32.46
855.652	31.16
855.821	26.34
855.99	38.32
856.159	47
856.328	69.72
856.497	62.6
856.667	69.41
856.836	94.56
857.005	88.73
857.174	65.5
857.343	61.76
857.512	29.25
857.681	10.29
857.85	-27.87
858.019	24.79
858.188	43.83
858.356	93
858.525	77.92
858.694	90.18
858.863	65.28
859.032	72.23
859.201	-33.75
859.369	9.9
859.538	-60.09
859.707	-48.84
859.876	-5.93
860.044	52.56
860.213	43.42
860.382	74.16
860.55	51.1
860.719	57.9
860.888	40.74
861.056	33.55
861.225	12.76
861.393	47.58
861.562	52.47
861.73	43.5
861.899	25.91
862.067	34.44
862.236	-10.24
862.404	-11.25
862.572	-40.33
862.741	65.38
862.909	63.31
863.078	81.7
863.246	61.73
863.414	44.19
863.582	43.97
863.751	-4.02
863.919	-86.03
864.087	163.87
864.255	-319.18
864.424	174.5
864.592	148
864.76	85.25
864.928	25.51
865.096	31.39
865.264	13.62
865.432	2.02
865.6	31.92
865.768	48.84
865.936	31.08
866.104	43.59
866.272	25.77
866.44	-6.65
866.608	2.27
866.776	1.24
866.944	-66
867.112	-14.9
867.28	8.64
867.448	-35.17
867.615	-9.97
867.783	35.53
867.951	37.79
868.119	14.83
868.286	34.2
868.454	34.54
868.622	39.15
868.789	32.45
868.957	59.19
869.125	68.11
869.292	61.34
869.46	19.64
869.627	24.16
869.795	55.88
869.963	420.45
870.13	203.28
870.298	112.95
870.465	54.82
870.632	-21.58
870.8	37.01
870.967	21.92
871.135	8.09
871.302	31.87
871.469	70.19
871.637	90.48
871.804	59.56
871.971	58.21
872.139	37.06
872.306	16.41
872.473	-26.39
872.64	13.62
872.807	-53.69
872.975	-90.02
873.142	-58.18
873.309	-13.36
873.476	-84.16
873.643	23.58
873.81	36.39
873.977	38.02
874.144	-25.93
874.311	33.8
874.478	26.85
874.645	27.79
874.812	41.33
874.979	36.67
875.146	-5.1
875.313	-6.96
875.48	-37.18
875.647	-63.92
875.813	-19.26
875.98	-2.32
876.147	-8.18
876.314	5.66
876.481	19.29
876.647	26.22
876.814	-14.88
876.981	-16.09
877.147	-350
877.314	28.88
877.481	1790.91
877.647	1272.73
877.814	-23.5
877.98	-20.93
878.147	6.75
878.314	89.08
878.48	65.09
878.647	55.71
878.813	56.26
878.979	50.09
879.146	36.27
879.312	22.41
879.479	17.09
879.645	1.15
879.811	-71.43
879.978	-3.24
880.144	86.36
880.31	46.09
880.477	43.6
880.643	19.5
880.809	13.26
880.975	-36.1
881.142	-55.68
881.308	-390.91
881.474	-1.35
881.64	31.9
881.806	40.55
881.972	102.8
882.138	358.9
882.304	48.44
882.47	60.38
882.636	76.77
882.802	21.34
882.968	281.69
883.134	10.6
883.3	11.98
883.466	28.04
883.632	27.24
883.798	-28.45
883.964	-41.3
884.129	-312.15
884.295	-17.8
884.461	38.85
884.627	80.08
884.793	119.28
884.958	105.08
885.124	136.92
885.29	83.85
885.455	-6.96
885.621	-7.31
885.787	677.22
885.952	-630.12
886.118	-102.29
886.283	-0.19
886.449	3.36
886.614	29.84
886.78	9.62
886.945	12.45
887.111	13.85
887.276	20.66
887.442	10.21
887.607	43.77
887.773	56.31
887.938	39.29
888.103	28.37
888.269	56.95
888.434	-3.92
888.599	-140
888.764	12.4
888.93	6.9
889.095	-5.48
889.26	34.26
889.425	61.49
889.59	48.74
889.756	43.68
889.921	30.93
890.086	15.86
890.251	6.07
890.416	-38.53
890.581	-34.86
890.746	-58
890.911	-123.12
891.076	-145.22
891.241	-31.08
891.406	-3.55
891.571	46.71
891.736	54.62
891.901	55.17
892.065	63.41
892.23	51.39
892.395	51.85
892.56	36.1
892.725	42.71
892.889	29.41
893.054	51.26
893.219	24.78
893.384	11
893.548	274.68
893.713	158.06
893.878	135.59
