Data from Ofra_PS_Phys_6CX18_Reflection_1.txt Node
Date: Tue Jul 20 20:41:00 EDT 2021
User: USUARIO
Spectrometer: FLMT01687
Trigger mode: 0
Integration Time (sec): 1.042999E0
Scans to average: 2
Electric dark correction enabled: true
Nonlinearity correction enabled: false
Boxcar width: 2
XAxis mode: Wavelengths
Number of Pixels in Spectrum: 3648
>>>>>Begin Spectral Data<<<<<
179.494	-55.4
179.716	-28.44
179.937	-46.03
180.158	-46.31
180.38	9.38
180.601	5.82
180.823	10.11
181.044	83.74
181.265	-758.8
181.486	-128.05
181.708	-198.84
181.929	-96.35
182.15	139.27
182.372	51.24
182.593	135.76
182.814	94.68
183.035	78.45
183.257	45.84
183.478	-5.53
183.699	-173.41
183.92	-26.74
184.141	-111.94
184.363	-80.96
184.584	-16.28
184.805	28.97
185.026	39.16
185.247	-2.63
185.468	2.33
185.689	29.59
185.91	19.21
186.132	-43.98
186.353	1.65
186.574	9.85
186.795	-10.97
187.016	3.21
187.237	38.91
187.458	54.58
187.679	40.06
187.9	59.35
188.121	55.98
188.342	46.06
188.563	38.62
188.784	37.36
189.005	33.43
189.226	54.35
189.447	65.55
189.667	51.87
189.888	58.5
190.109	54.71
190.33	37.41
190.551	15.14
190.772	26.03
190.993	43.53
191.214	6.9
191.434	19.9
191.655	39.4
191.876	47.19
192.097	46.33
192.318	65.82
192.538	56.49
192.759	57.18
192.98	40.61
193.201	39.46
193.421	37.2
193.642	52.42
193.863	44.86
194.083	41.57
194.304	32.47
194.525	37.08
194.745	46.36
194.966	38.95
195.187	62.26
195.407	59.54
195.628	27.06
195.848	14.53
196.069	30.83
196.29	26.43
196.51	34.37
196.731	52.9
196.951	38.51
197.172	23.98
197.392	16.49
197.613	23.32
197.833	27.26
198.054	31.02
198.274	48.94
198.495	55.81
198.715	51.86
198.936	57.59
199.156	52.81
199.377	28.75
199.597	36.25
199.817	41.28
200.038	30
200.258	49.31
200.479	45.84
200.699	39.06
200.919	42.77
201.14	49.05
201.36	18.57
201.58	15.66
201.801	37.95
202.021	11.94
202.241	6.74
202.461	4.38
202.682	9.17
202.902	17.76
203.122	43.6
203.342	38.95
203.563	35.67
203.783	66.33
204.003	26.01
204.223	20.38
204.443	19.52
204.663	27.18
204.884	17.76
205.104	39.33
205.324	62.05
205.544	75.64
205.764	73.07
205.984	62.87
206.204	52
206.424	33.64
206.644	20.46
206.864	32.76
207.084	25.16
207.304	32.04
207.525	23.38
207.745	24.49
207.964	6.77
208.184	28.91
208.404	34.72
208.624	42.2
208.844	36.4
209.064	60.12
209.284	48.82
209.504	52.29
209.724	57.93
209.944	84.38
210.164	43.5
210.384	52.02
210.604	65.67
210.823	58.82
211.043	56.11
211.263	53.91
211.483	49.25
211.703	31.18
211.922	23.63
212.142	42.92
212.362	72.63
212.582	44.65
212.801	39.2
213.021	36.18
213.241	11.31
213.461	-5.93
213.68	-12.89
213.9	-31.6
214.12	-35.8
214.339	-38.94
214.559	-0.45
214.779	17.55
214.998	46.33
215.218	42.31
215.438	40.61
215.657	43.59
215.877	38.47
216.096	48.3
216.316	38.88
216.535	57.46
216.755	51.73
216.974	49.77
217.194	22.99
217.413	42.91
217.633	36.31
217.852	44.24
218.072	49.33
218.291	37.04
218.511	38.27
218.73	22.53
218.95	13.96
219.169	8.62
219.389	21.34
219.608	11.07
219.827	28.72
220.047	28.88
220.266	18.29
220.485	18.58
220.705	28.44
220.924	28.27
221.143	33.53
221.363	33.17
221.582	36.82
221.801	30.38
222.021	19.38
222.24	20.14
222.459	37.49
222.678	26.96
222.897	31.45
223.117	32.42
223.336	47.11
223.555	64.69
223.774	53.52
223.993	65.25
224.213	57.19
224.432	44.21
224.651	34.01
224.87	38.27
225.089	4.34
225.308	13.52
225.527	34.68
225.746	40.74
225.965	54.21
226.184	60
226.404	60.31
226.623	56.21
226.842	43.29
227.061	41.26
227.28	16.17
227.499	13.68
227.718	-1.12
227.936	6.71
228.155	1.18
228.374	20.35
228.593	32.75
228.812	36.8
229.031	37.4
229.25	31.63
229.469	30.13
229.688	13.27
229.907	3.93
230.125	-3.43
230.344	7.92
230.563	20.57
230.782	14.55
231.001	28.76
231.22	21.45
231.438	-3.07
231.657	-53.46
231.876	-5.54
232.095	-22.71
232.313	-8.93
232.532	14.58
232.751	47.85
232.969	19.04
233.188	25.85
233.407	38.36
233.625	35.38
233.844	23.99
234.063	31.3
234.281	28.71
234.5	10.33
234.719	16.18
234.937	24.63
235.156	13.28
235.374	32.49
235.593	46.29
235.811	42.93
236.03	48.02
236.249	70.65
236.467	58.69
236.686	58.05
236.904	57.12
237.123	38.03
237.341	35.9
237.559	41.31
237.778	48.29
237.996	27
238.215	34.71
238.433	28.32
238.652	9.19
238.87	-9.84
239.088	4.67
239.307	7.24
239.525	-8.29
239.743	3.2
239.962	35.63
240.18	32.85
240.398	13.12
240.617	32.33
240.835	19.41
241.053	19.21
241.271	28.52
241.49	36.3
241.708	40.68
241.926	53.91
242.144	54.45
242.363	46.32
242.581	57.02
242.799	38.41
243.017	34.19
243.235	23.33
243.453	25.3
243.672	20.83
243.89	25.58
244.108	18.69
244.326	16.87
244.544	10.32
244.762	8.74
244.98	7.5
245.198	21.67
245.416	17.99
245.634	23.32
245.852	27.89
246.07	27.07
246.288	8.26
246.506	24.39
246.724	11.56
246.942	4.08
247.16	16.75
247.378	41.14
247.596	24.97
247.814	26.34
248.032	33.55
248.25	35.36
248.468	19.19
248.685	21.11
248.903	32.53
249.121	48.61
249.339	36.94
249.557	67.2
249.775	68.46
249.992	58.25
250.21	44.5
250.428	46.76
250.646	11.26
250.863	-31.86
251.081	-31.42
251.299	-29.43
251.517	-6.28
251.734	8.39
251.952	-2.74
252.17	17.3
252.387	40.02
252.605	22.94
252.823	32.64
253.04	54.91
253.258	53.78
253.475	36.2
253.693	51.21
253.911	52.35
254.128	13.12
254.346	16.46
254.563	28.71
254.781	-10.73
254.998	7.01
255.216	24.61
255.433	9.52
255.651	47.18
255.868	81.47
256.086	76.79
256.303	36.76
256.521	41.11
256.738	16.79
256.956	11.59
257.173	-3.96
257.39	16.92
257.608	25.94
257.825	38.55
258.043	51.74
258.26	58.17
258.477	61.36
258.695	52.29
258.912	65.28
259.129	54.95
259.346	52.34
259.564	43.13
259.781	43.22
259.998	18.4
260.216	36.95
260.433	31
260.65	48.86
260.867	54.39
261.084	52.53
261.302	32.03
261.519	48.9
261.736	28.93
261.953	38.95
262.17	40.43
262.387	56.64
262.604	37.17
262.822	50.71
263.039	49.92
263.256	39.85
263.473	21.35
263.69	15.07
263.907	13.68
264.124	-5.12
264.341	20.7
264.558	4.52
264.775	4.48
264.992	-7.45
265.209	21.07
265.426	7.11
265.643	34.84
265.86	31.97
266.077	34.96
266.294	25.02
266.51	20.16
266.727	20.81
266.944	33.2
267.161	31.19
267.378	35.14
267.595	37.08
267.812	20.02
268.028	4.03
268.245	10.77
268.462	10.01
268.679	8.16
268.896	6.92
269.112	22.05
269.329	20.27
269.546	21.31
269.763	21.92
269.979	30.76
270.196	28.23
270.413	23.73
270.629	11.71
270.846	20.82
271.063	30.57
271.279	23.43
271.496	27.46
271.712	36.32
271.929	42.92
272.146	24.19
272.362	23.84
272.579	22.71
272.795	23.61
273.012	12.38
273.228	10.6
273.445	24.05
273.661	15.92
273.878	16.77
274.094	32.74
274.311	43.5
274.527	37.86
274.744	42.48
274.96	46.71
275.177	49.65
275.393	42.18
275.609	24.75
275.826	26.09
276.042	29.3
276.259	8.79
276.475	27.44
276.691	56.87
276.908	38.1
277.124	24.93
277.34	25.34
277.557	8.06
277.773	0.16
277.989	20.64
278.205	26.17
278.422	11.78
278.638	25.33
278.854	18.11
279.07	8.49
279.286	11.53
279.503	29.63
279.719	20.02
279.935	47.41
280.151	46.52
280.367	32.83
280.583	38.72
280.799	51.28
281.016	40.01
281.232	35.67
281.448	33.68
281.664	41.85
281.88	30.22
282.096	28.06
282.312	21.66
282.528	53.15
282.744	40.51
282.96	43
283.176	27.92
283.392	21.57
283.608	6.38
283.824	9.64
284.04	15.58
284.256	20.02
284.471	38.81
284.687	45.28
284.903	50.43
285.119	56.79
285.335	75.58
285.551	51.07
285.767	27.45
285.982	20.11
286.198	20.1
286.414	12.35
286.63	23.9
286.846	56.58
287.061	51.21
287.277	30.56
287.493	19.81
287.709	13.85
287.924	-1.39
288.14	14.83
288.356	30.25
288.571	22.52
288.787	30.71
289.003	37.08
289.218	30.85
289.434	20.64
289.65	50.69
289.865	31.97
290.081	39.03
290.296	42.84
290.512	52.35
290.727	43.87
290.943	53.47
291.159	41
291.374	35.69
291.59	16.32
291.805	20.9
292.021	32.96
292.236	52.97
292.451	54.94
292.667	79.28
292.882	65.28
293.098	66.51
293.313	47.39
293.529	53.85
293.744	45.43
293.959	58.28
294.175	58.56
294.39	57.09
294.605	45.09
294.821	39.75
295.036	28.33
295.251	7.04
295.467	8.03
295.682	3.21
295.897	10.67
296.112	6.85
296.328	9.84
296.543	19.89
296.758	19.99
296.973	13.8
297.188	23.68
297.404	21.97
297.619	18.32
297.834	21.52
298.049	30.03
298.264	14.24
298.479	27.2
298.694	26.71
298.909	36.73
299.125	36.28
299.34	40.44
299.555	42.37
299.77	42.08
299.985	37.79
300.2	33.75
300.415	40.43
300.63	39.17
300.845	31.85
301.06	31.93
301.275	25.64
301.49	21.78
301.704	17.38
301.919	32.24
302.134	30.9
302.349	29.12
302.564	34.25
302.779	33.57
302.994	19.22
303.209	29.92
303.423	40.96
303.638	51.9
303.853	38.88
304.068	47.74
304.283	43.09
304.497	24.58
304.712	7.18
304.927	9.28
305.142	7.97
305.356	-6.51
305.571	17.24
305.786	10.38
306	21.05
306.215	21.35
306.43	20.96
306.644	7.59
306.859	16.79
307.074	14.81
307.288	18.92
307.503	29.34
307.717	22.33
307.932	31.3
308.147	18.3
308.361	22.38
308.576	12.44
308.79	21.11
309.005	9.72
309.219	17.12
309.434	4.18
309.648	23.08
309.863	12.7
310.077	21.4
310.292	29.57
310.506	42.16
310.72	40.25
310.935	50.7
311.149	40.49
311.364	29.8
311.578	42.31
311.792	40.17
312.007	36.66
312.221	56.66
312.435	56.26
312.649	33.13
312.864	38.49
313.078	31.37
313.292	24
313.507	23.6
313.721	24.79
313.935	0.02
314.149	17.22
314.363	15.75
314.578	-3.33
314.792	2.53
315.006	27.14
315.22	5.38
315.434	-6.11
315.648	13.73
315.862	0.71
316.077	-11.72
316.291	1.64
316.505	27.97
316.719	56.08
316.933	59.87
317.147	45.26
317.361	31.89
317.575	22.79
317.789	-19.44
318.003	-50.95
318.217	-38.83
318.431	-5.62
318.645	15.93
318.859	17.1
319.073	31.28
319.287	29.15
319.5	23.76
319.714	9.39
319.928	33.6
320.142	35.53
320.356	50.89
320.57	44.29
320.784	36.1
320.997	22.44
321.211	18.21
321.425	8.24
321.639	11.15
321.853	30.8
322.066	33.3
322.28	40.95
322.494	43.88
322.707	38.05
322.921	30.84
323.135	35.32
323.349	27.19
323.562	21.14
323.776	21.94
323.989	35.22
324.203	38.15
324.417	39.08
324.63	48.9
324.844	57.83
325.057	62.88
325.271	41.58
325.485	45.07
325.698	27.18
325.912	30.1
326.125	31.45
326.339	35.02
326.552	38.21
326.766	49.92
326.979	24.25
327.193	10.6
327.406	13.37
327.619	22.57
327.833	7.79
328.046	19.22
328.26	5.74
328.473	20.89
328.686	15.25
328.9	24.51
329.113	26.97
329.326	30.96
329.54	18.3
329.753	18.29
329.966	16.66
330.179	17.54
330.393	30.22
330.606	46.22
330.819	35.57
331.032	35.1
331.246	38.19
331.459	22.87
331.672	-20.82
331.885	0.22
332.098	9.48
332.311	3.31
332.525	34.26
332.738	54.09
332.951	51.11
333.164	67.13
333.377	65.69
333.59	32.31
333.803	23.45
334.016	34.11
334.229	17.44
334.442	5.74
334.655	14.34
334.868	11.24
335.081	0.2
335.294	10.94
335.507	14.49
335.72	27.23
335.933	25.1
336.146	29.94
336.359	31.54
336.572	39.57
336.785	42.84
336.997	47.8
337.21	63.13
337.423	82.89
337.636	77.53
337.849	56.39
338.062	74.31
338.274	50.62
338.487	43.15
338.7	44.87
338.913	43.4
339.125	29.02
339.338	23.03
339.551	16.99
339.763	25.44
339.976	28.51
340.189	16.85
340.402	27.34
340.614	21.29
340.827	5.76
341.039	19.52
341.252	28.49
341.465	26.19
341.677	13.05
341.89	26.73
342.102	14.28
342.315	15
342.527	32.6
342.74	36.87
342.952	24.06
343.165	20.5
343.377	30.49
343.59	20.8
343.802	25.04
344.015	29.04
344.227	28.03
344.44	14.37
344.652	10.26
344.864	8.28
345.077	-12.45
345.289	-4.19
345.502	-6.93
345.714	-30.88
345.926	-30.96
346.139	15.69
346.351	3.43
346.563	19.49
346.775	26.46
346.988	19.48
347.2	17.97
347.412	29.59
347.624	29.35
347.837	29.67
348.049	33.48
348.261	37.25
348.473	11.95
348.685	21.94
348.897	27.26
349.11	31.94
349.322	19.54
349.534	22.87
349.746	11.96
349.958	6.53
350.17	6.11
350.382	8.5
350.594	16.8
350.806	27.94
351.018	28.76
351.23	25.02
351.442	35.13
351.654	32.91
351.866	34.55
352.078	40.2
352.29	41.7
352.502	32.76
352.714	28.24
352.926	29.17
353.138	26.28
353.35	17.53
353.561	35.11
353.773	49.59
353.985	34.68
354.197	24.83
354.409	41.23
354.621	28.72
354.832	27.97
355.044	35.9
355.256	36.23
355.468	13.48
355.679	17.94
355.891	12.11
356.103	11.46
356.314	13.71
356.526	28.17
356.738	26.61
356.949	34.17
357.161	32.64
357.373	43.43
357.584	36.24
357.796	25.48
358.008	25.46
358.219	31.45
358.431	24.98
358.642	21.69
358.854	34.56
359.065	25.86
359.277	18.27
359.488	14.18
359.7	28.82
359.911	25.97
360.123	21.33
360.334	12.19
360.546	21.47
360.757	21.47
360.969	22.36
361.18	36.48
361.391	38.28
361.603	35.15
361.814	27.11
362.025	25.59
362.237	0.38
362.448	8.38
362.659	3.76
362.871	14.88
363.082	9.38
363.293	26.95
363.504	6.51
363.716	14.96
363.927	16.23
364.138	15.88
364.349	13.14
364.56	28.82
364.772	26.44
364.983	16.28
365.194	24.77
365.405	30.09
365.616	33.04
365.827	28.87
366.038	24.17
366.25	9.92
366.461	16.02
366.672	5.2
366.883	-2.41
367.094	13.82
367.305	20.37
367.516	17.08
367.727	31.27
367.938	32.68
368.149	26.4
368.36	27.3
368.571	24.58
368.781	12.52
368.992	4.12
369.203	7.78
369.414	-1.2
369.625	-5.19
369.836	5.22
370.047	21.83
370.258	18.7
370.468	29.52
370.679	31.9
370.89	32.9
371.101	29.76
371.312	30.16
371.522	17.22
371.733	15.58
371.944	19.12
372.155	19.8
372.365	23.16
372.576	35.23
372.787	30.14
372.997	26.36
373.208	27.86
373.419	37.15
373.629	29.76
373.84	28.89
374.05	26.88
374.261	18.17
374.472	12.29
374.682	14.79
374.893	23.1
375.103	17.55
375.314	25.47
375.524	24.73
375.735	25.47
375.945	21.98
376.156	28.38
376.366	25.72
376.577	14.2
376.787	11.01
376.997	9.25
377.208	11.29
377.418	10.83
377.629	13.82
377.839	13.62
378.049	23.32
378.26	20.38
378.47	12.49
378.68	14.52
378.89	19.76
379.101	0.96
379.311	1.2
379.521	17.57
379.732	14.39
379.942	18.93
380.152	22.27
380.362	18.03
380.572	13.55
380.783	13.91
380.993	9.72
381.203	12.89
381.413	8.78
381.623	4.4
381.833	7.25
382.043	0.43
382.253	-10.07
382.463	5.77
382.674	15.59
382.884	15.48
383.094	23.81
383.304	27.25
383.514	22.92
383.724	12.43
383.934	15.46
384.144	11.94
384.353	19.51
384.563	8.67
384.773	17.07
384.983	12.56
385.193	12.68
385.403	8.25
385.613	19.85
385.823	8.55
386.033	12.07
386.242	11.75
386.452	13.45
386.662	11.25
386.872	16.2
387.082	11.12
387.291	16.26
387.501	15.34
387.711	16.22
387.921	16.57
388.13	18.71
388.34	11.87
388.55	5.66
388.759	0.99
388.969	-3.71
389.179	-1.91
389.388	0.1
389.598	5.12
389.807	11.44
390.017	11.44
390.227	4.77
390.436	10.59
390.646	6.81
390.855	4.46
391.065	5.82
391.274	10.09
391.484	6.58
391.693	9.4
391.903	9.49
392.112	8.87
392.322	6.26
392.531	6.68
392.74	4.99
392.95	2.6
393.159	1.52
393.369	3.81
393.578	3.74
393.787	5.18
393.997	6.12
394.206	7.46
394.415	5.96
394.625	6.95
394.834	5.43
395.043	4.93
395.252	5.32
395.462	5.36
395.671	3.17
395.88	3.83
396.089	2.98
396.298	2.8
396.508	2.32
396.717	2.54
396.926	2.9
397.135	4.03
397.344	3.57
397.553	4.58
397.762	5.57
397.971	4.59
398.181	3.81
398.39	3.72
398.599	2.95
398.808	2.04
399.017	2.82
399.226	3.69
399.435	3.49
399.644	4.25
399.853	4.4
400.062	3.78
400.27	3.68
400.479	3.62
400.688	3.23
400.897	3.43
401.106	3.67
401.315	3.36
401.524	3.36
401.733	3.01
401.941	2.27
402.15	1.76
402.359	1.79
402.568	1.96
402.777	1.95
402.985	2.12
403.194	2.51
403.403	2.41
403.612	2.21
403.82	2.22
404.029	2.36
404.238	2.17
404.446	2.14
404.655	1.99
404.864	2.07
405.072	1.85
405.281	2.22
405.489	2.18
405.698	2.21
405.906	2.29
406.115	2.53
406.324	2.14
406.532	2.03
406.741	1.96
406.949	2.04
407.158	2.03
407.366	2.09
407.574	2.17
407.783	2.34
407.991	2.33
408.2	2.33
408.408	2.44
408.617	2.37
408.825	2.41
409.033	2.38
409.242	2.36
409.45	2.28
409.658	2.41
409.867	2.28
410.075	2.16
410.283	2.03
410.491	2
410.7	2.14
410.908	2.14
411.116	2.37
411.324	2.48
411.533	2.59
411.741	2.32
411.949	2.53
412.157	2.26
412.365	2.34
412.573	2.29
412.781	2.23
412.99	2.14
413.198	2.26
413.406	2.13
413.614	2.26
413.822	2.48
414.03	2.44
414.238	2.36
414.446	2.44
414.654	2.36
414.862	2.14
415.07	2.16
415.278	2.21
415.486	2.15
415.694	2.12
415.902	2.22
416.109	2.11
416.317	2.13
416.525	2.09
416.733	2.01
416.941	2.05
417.149	2.17
417.357	2.19
417.564	2.2
417.772	2.23
417.98	2.32
418.188	2.28
418.395	2.18
418.603	2.15
418.811	2.13
419.019	1.99
419.226	1.93
419.434	1.99
419.642	1.97
419.849	1.93
420.057	1.98
420.265	2.1
420.472	1.97
420.68	2.03
420.887	2.13
421.095	2.05
421.302	1.9
421.51	1.97
421.717	2.03
421.925	2.05
422.132	2.07
422.34	2.14
422.547	2.21
422.755	2.24
422.962	2.12
423.17	2.04
423.377	2.13
423.585	2.01
423.792	1.78
423.999	1.94
424.207	2.07
424.414	2.03
424.621	2.17
424.829	2.16
425.036	2.02
425.243	1.97
425.451	1.96
425.658	1.77
425.865	2.08
426.072	2.04
426.28	2.16
426.487	2.2
426.694	2.38
426.901	2.14
427.108	2.28
427.315	2.09
427.523	2.18
427.73	1.98
427.937	1.9
428.144	1.75
428.351	1.82
428.558	1.79
428.765	1.76
428.972	1.89
429.179	1.88
429.386	1.94
429.593	1.99
429.8	2.06
430.007	2.07
430.214	2.2
430.421	2.2
430.628	2.05
430.835	1.99
431.042	1.97
431.249	1.92
431.456	1.78
431.662	1.79
431.869	1.94
432.076	1.91
432.283	1.91
432.49	1.99
432.697	1.89
432.903	1.81
433.11	1.76
433.317	1.7
433.524	1.77
433.73	1.79
433.937	1.77
434.144	1.82
434.35	1.85
434.557	1.76
434.764	1.69
434.97	1.74
435.177	1.82
435.384	1.8
435.59	1.89
435.797	2.11
436.003	2.17
436.21	2.17
436.416	2.05
436.623	1.93
436.829	1.93
437.036	1.84
437.242	1.79
437.449	2.02
437.655	2.1
437.862	2.02
438.068	2.16
438.275	2.17
438.481	2.07
438.687	1.98
438.894	1.96
439.1	1.72
439.307	1.76
439.513	1.86
439.719	1.94
439.926	1.98
440.132	2.2
440.338	2.18
440.544	2.05
440.751	2.07
440.957	2.01
441.163	1.92
441.369	2.06
441.575	2.16
441.782	2.13
441.988	2.28
442.194	2.37
442.4	2.23
442.606	2.23
442.812	2.23
443.018	2.06
443.224	1.96
443.431	1.94
443.637	1.91
443.843	1.9
444.049	1.93
444.255	1.91
444.461	1.91
444.667	1.92
444.873	1.89
445.079	1.98
445.284	1.95
445.49	1.99
445.696	1.98
445.902	2.04
446.108	1.96
446.314	2.02
446.52	2.02
446.726	2
446.931	2.04
447.137	2.11
447.343	2.16
447.549	2.17
447.755	2.16
447.96	2.22
448.166	2.2
448.372	2.21
448.578	2.21
448.783	2.25
448.989	2.11
449.195	2.04
449.4	2.03
449.606	1.95
449.812	1.92
450.017	1.95
450.223	1.99
450.428	1.95
450.634	2.04
450.84	2.12
451.045	2.24
451.251	2.32
451.456	2.33
451.662	2.35
451.867	2.36
452.073	2.29
452.278	2.24
452.483	2.24
452.689	2.15
452.894	2.25
453.1	2.22
453.305	2.27
453.51	2.36
453.716	2.42
453.921	2.41
454.127	2.41
454.332	2.32
454.537	2.26
454.742	2.23
454.948	2.06
455.153	2.14
455.358	2.19
455.563	2.22
455.769	2.15
455.974	2.18
456.179	2.11
456.384	2.04
456.589	1.93
456.795	1.99
457	2.02
457.205	2.01
457.41	2
457.615	2.04
457.82	2.02
458.025	2.02
458.23	1.98
458.435	2.05
458.64	2.09
458.845	2.14
459.05	2.05
459.255	2.1
459.46	2.13
459.665	2.14
459.87	2.19
460.075	2.35
460.28	2.49
460.485	2.48
460.69	2.53
460.895	2.55
461.099	2.5
461.304	2.38
461.509	2.33
461.714	2.27
461.919	2.24
462.123	2.26
462.328	2.24
462.533	2.33
462.738	2.38
462.942	2.35
463.147	2.19
463.352	2.21
463.556	2.12
463.761	2.07
463.966	2.05
464.17	2.14
464.375	2.23
464.58	2.29
464.784	2.36
464.989	2.36
465.193	2.48
465.398	2.41
465.602	2.42
465.807	2.41
466.011	2.42
466.216	2.31
466.42	2.33
466.625	2.36
466.829	2.38
467.034	2.42
467.238	2.53
467.443	2.51
467.647	2.46
467.851	2.43
468.056	2.42
468.26	2.33
468.464	2.27
468.669	2.25
468.873	2.28
469.077	2.21
469.282	2.25
469.486	2.28
469.69	2.31
469.894	2.28
470.099	2.41
470.303	2.44
470.507	2.48
470.711	2.52
470.915	2.58
471.119	2.58
471.324	2.57
471.528	2.6
471.732	2.54
471.936	2.48
472.14	2.53
472.344	2.61
472.548	2.65
472.752	2.69
472.956	2.74
473.16	2.69
473.364	2.58
473.568	2.61
473.772	2.67
473.976	2.75
474.18	2.69
474.384	2.72
474.588	2.68
474.792	2.64
474.995	2.57
475.199	2.63
475.403	2.69
475.607	2.75
475.811	2.77
476.015	2.8
476.218	2.8
476.422	2.78
476.626	2.69
476.83	2.68
477.033	2.69
477.237	2.69
477.441	2.63
477.644	2.7
477.848	2.7
478.052	2.64
478.255	2.62
478.459	2.67
478.663	2.65
478.866	2.71
479.07	2.75
479.273	2.83
479.477	2.89
479.681	2.98
479.884	2.89
480.088	2.87
480.291	2.84
480.495	2.82
480.698	2.76
480.901	2.81
481.105	2.89
481.308	2.79
481.512	2.78
481.715	2.82
481.919	2.85
482.122	2.81
482.325	2.9
482.529	2.9
482.732	2.91
482.935	2.89
483.138	2.88
483.342	2.9
483.545	2.95
483.748	2.94
483.952	3.01
484.155	3.06
484.358	3.04
484.561	3.08
484.764	3.07
484.967	3.08
485.171	3.05
485.374	3.12
485.577	3.07
485.78	3.08
485.983	3
486.186	3
486.389	2.92
486.592	2.88
486.795	2.91
486.998	2.93
487.201	2.97
487.404	2.96
487.607	3
487.81	2.98
488.013	3.01
488.216	2.99
488.419	3.01
488.622	3.02
488.825	3.03
489.028	2.99
489.231	2.98
489.433	2.99
489.636	2.98
489.839	2.91
490.042	2.96
490.245	2.93
490.447	2.94
490.65	2.9
490.853	2.99
491.056	2.97
491.258	2.96
491.461	2.97
491.664	3.01
491.866	2.94
492.069	2.92
492.272	2.96
492.474	2.96
492.677	2.96
492.879	2.97
493.082	2.96
493.285	2.96
493.487	2.97
493.69	2.99
493.892	2.99
494.095	3.01
494.297	3.05
494.5	3.08
494.702	3.09
494.905	3.13
495.107	3.13
495.309	3.13
495.512	3.14
495.714	3.06
495.917	3.09
496.119	3.09
496.321	3.03
496.524	3.02
496.726	3.08
496.928	3.01
497.13	3.1
497.333	3.12
497.535	3.15
497.737	3.17
497.939	3.23
498.142	3.18
498.344	3.17
498.546	3.13
498.748	3.05
498.95	3.04
499.152	2.98
499.355	2.96
499.557	2.97
499.759	3.02
499.961	3.03
500.163	3.09
500.365	3.18
500.567	3.19
500.769	3.22
500.971	3.29
501.173	3.22
501.375	3.19
501.577	3.2
501.779	3.21
501.981	3.19
502.183	3.24
502.385	3.25
502.587	3.27
502.788	3.31
502.99	3.27
503.192	3.31
503.394	3.28
503.596	3.26
503.798	3.27
503.999	3.34
504.201	3.32
504.403	3.38
504.605	3.38
504.806	3.41
505.008	3.34
505.21	3.36
505.411	3.37
505.613	3.43
505.815	3.39
506.016	3.49
506.218	3.48
506.42	3.47
506.621	3.48
506.823	3.49
507.024	3.46
507.226	3.52
507.427	3.59
507.629	3.58
507.83	3.61
508.032	3.6
508.233	3.6
508.435	3.57
508.636	3.57
508.838	3.53
509.039	3.58
509.24	3.53
509.442	3.54
509.643	3.57
509.845	3.58
510.046	3.5
510.247	3.52
510.448	3.54
510.65	3.56
510.851	3.56
511.052	3.63
511.254	3.7
511.455	3.75
511.656	3.69
511.857	3.74
512.058	3.77
512.26	3.74
512.461	3.76
512.662	3.78
512.863	3.77
513.064	3.76
513.265	3.82
513.466	3.78
513.667	3.8
513.868	3.79
514.069	3.78
514.27	3.73
514.471	3.72
514.672	3.72
514.873	3.69
515.074	3.72
515.275	3.73
515.476	3.73
515.677	3.76
515.878	3.82
516.079	3.85
516.28	3.87
516.481	3.85
516.682	3.89
516.882	3.91
517.083	3.85
517.284	3.85
517.485	3.95
517.686	3.91
517.886	3.95
518.087	4.03
518.288	4.06
518.488	4.05
518.689	4.09
518.89	4.05
519.091	4.01
519.291	4.02
519.492	3.94
519.692	3.97
519.893	4.03
520.094	4.05
520.294	4.08
520.495	4.14
520.695	4.11
520.896	4.09
521.096	4.09
521.297	4.08
521.497	4.11
521.698	4.15
521.898	4.2
522.099	4.22
522.299	4.25
522.499	4.22
522.7	4.2
522.9	4.17
523.101	4.19
523.301	4.22
523.501	4.32
523.702	4.33
523.902	4.34
524.102	4.32
524.302	4.32
524.503	4.3
524.703	4.32
524.903	4.34
525.103	4.36
525.304	4.35
525.504	4.39
525.704	4.4
525.904	4.42
526.104	4.4
526.304	4.45
526.504	4.42
526.705	4.44
526.905	4.48
527.105	4.5
527.305	4.45
527.505	4.45
527.705	4.49
527.905	4.46
528.105	4.46
528.305	4.47
528.505	4.46
528.705	4.41
528.905	4.43
529.105	4.47
529.304	4.51
529.504	4.58
529.704	4.57
529.904	4.6
530.104	4.59
530.304	4.6
530.503	4.58
530.703	4.63
530.903	4.69
531.103	4.74
531.303	4.78
531.502	4.79
531.702	4.75
531.902	4.65
532.101	4.67
532.301	4.68
532.501	4.69
532.7	4.77
532.9	4.88
533.1	4.87
533.299	4.89
533.499	4.91
533.698	4.91
533.898	4.86
534.097	4.87
534.297	4.87
534.496	4.89
534.696	4.91
534.895	4.93
535.095	4.97
535.294	4.97
535.494	4.95
535.693	4.97
535.892	4.98
536.092	4.96
536.291	4.97
536.491	4.99
536.69	4.99
536.889	5.03
537.088	5.06
537.288	5.11
537.487	5.16
537.686	5.15
537.886	5.16
538.085	5.2
538.284	5.22
538.483	5.22
538.682	5.29
538.882	5.31
539.081	5.31
539.28	5.24
539.479	5.26
539.678	5.29
539.877	5.31
540.076	5.35
540.275	5.47
540.474	5.47
540.673	5.43
540.872	5.46
541.071	5.47
541.27	5.49
541.469	5.54
541.668	5.62
541.867	5.62
542.066	5.64
542.265	5.66
542.464	5.67
542.663	5.69
542.862	5.72
543.06	5.79
543.259	5.83
543.458	5.9
543.657	6.02
543.856	6.08
544.054	6.07
544.253	6.06
544.452	6.11
544.651	6.04
544.849	6.08
545.048	6.16
545.247	6.18
545.445	6.16
545.644	6.24
545.843	6.27
546.041	6.29
546.24	6.36
546.438	6.47
546.637	6.52
546.836	6.56
547.034	6.64
547.233	6.72
547.431	6.74
547.63	6.74
547.828	6.84
548.027	6.85
548.225	6.88
548.423	6.89
548.622	6.95
548.82	6.94
549.019	7.01
549.217	7.08
549.415	7.15
549.614	7.2
549.812	7.23
550.01	7.27
550.209	7.34
550.407	7.42
550.605	7.44
550.803	7.52
551.002	7.57
551.2	7.66
551.398	7.73
551.596	7.86
551.794	7.94
551.993	8
552.191	8.03
552.389	8.03
552.587	8.11
552.785	8.17
552.983	8.28
553.181	8.36
553.379	8.44
553.577	8.52
553.775	8.63
553.973	8.67
554.171	8.75
554.369	8.8
554.567	8.84
554.765	8.92
554.963	8.97
555.161	9.05
555.359	9.19
555.557	9.24
555.755	9.32
555.952	9.39
556.15	9.53
556.348	9.62
556.546	9.75
556.744	9.87
556.941	10.02
557.139	10.04
557.337	10.12
557.535	10.12
557.732	10.19
557.93	10.19
558.128	10.21
558.325	10.25
558.523	10.4
558.721	10.41
558.918	10.57
559.116	10.77
559.313	10.87
559.511	11
559.708	11.15
559.906	11.25
560.104	11.29
560.301	11.39
560.498	11.48
560.696	11.61
560.893	11.74
561.091	11.92
561.288	12.04
561.486	12.1
561.683	12.2
561.88	12.25
562.078	12.37
562.275	12.5
562.473	12.67
562.67	12.76
562.867	12.82
563.064	12.88
563.262	12.92
563.459	13.07
563.656	13.16
563.853	13.27
564.051	13.35
564.248	13.41
564.445	13.44
564.642	13.56
564.839	13.8
565.036	13.97
565.234	14.08
565.431	14.2
565.628	14.29
565.825	14.35
566.022	14.35
566.219	14.54
566.416	14.58
566.613	14.66
566.81	14.74
567.007	14.91
567.204	14.96
567.401	15.08
567.598	15.16
567.795	15.2
567.991	15.29
568.188	15.41
568.385	15.51
568.582	15.63
568.779	15.75
568.976	15.79
569.172	15.88
569.369	15.98
569.566	16.08
569.763	16.12
569.96	16.18
570.156	16.21
570.353	16.24
570.55	16.31
570.746	16.32
570.943	16.37
571.14	16.5
571.336	16.64
571.533	16.7
571.729	16.71
571.926	16.87
572.123	16.85
572.319	16.8
572.516	16.85
572.712	17.07
572.909	17.09
573.105	17.17
573.302	17.32
573.498	17.38
573.695	17.42
573.891	17.42
574.087	17.45
574.284	17.38
574.48	17.44
574.677	17.42
574.873	17.46
575.069	17.6
575.266	17.66
575.462	17.69
575.658	17.7
575.854	17.73
576.051	17.61
576.247	17.6
576.443	17.62
576.639	17.69
576.835	17.67
577.032	17.69
577.228	17.74
577.424	17.68
577.62	17.68
577.816	17.7
578.012	17.76
578.208	17.82
578.404	17.93
578.6	17.85
578.796	17.85
578.993	17.81
579.189	17.83
579.384	17.79
579.58	17.86
579.776	17.89
579.972	17.96
580.168	17.94
580.364	17.91
580.56	17.86
580.756	17.82
580.952	17.85
581.148	17.83
581.343	17.76
581.539	17.79
581.735	17.83
581.931	17.77
582.127	17.74
582.322	17.79
582.518	17.87
582.714	17.83
582.909	17.79
583.105	17.88
583.301	17.9
583.496	17.82
583.692	17.81
583.888	17.8
584.083	17.75
584.279	17.68
584.474	17.64
584.67	17.74
584.866	17.77
585.061	17.73
585.257	17.85
585.452	17.88
585.648	17.85
585.843	17.82
586.039	17.85
586.234	17.78
586.429	17.69
586.625	17.6
586.82	17.61
587.015	17.65
587.211	17.61
587.406	17.73
587.601	17.79
587.797	17.85
587.992	17.79
588.187	17.73
588.383	17.71
588.578	17.67
588.773	17.7
588.968	17.7
589.163	17.83
589.359	17.83
589.554	17.91
589.749	17.9
589.944	17.97
590.139	18.04
590.334	18.12
590.529	18.11
590.724	18.11
590.919	18.14
591.114	18.14
591.309	18.15
591.504	18.19
591.699	18.32
591.894	18.33
592.089	18.34
592.284	18.34
592.479	18.46
592.674	18.43
592.869	18.43
593.064	18.53
593.259	18.7
593.454	18.64
593.648	18.73
593.843	18.88
594.038	18.93
594.233	18.86
594.428	19.04
594.622	19.16
594.817	19.26
595.012	19.33
595.206	19.45
595.401	19.44
595.596	19.41
595.79	19.45
595.985	19.51
596.18	19.6
596.374	19.76
596.569	19.85
596.763	19.91
596.958	20.08
597.153	20.12
597.347	20.09
597.542	20.2
597.736	20.26
597.931	20.24
598.125	20.33
598.319	20.46
598.514	20.57
598.708	20.65
598.903	20.72
599.097	20.72
599.291	20.83
599.486	20.84
599.68	20.82
599.874	20.81
600.069	20.94
600.263	20.94
600.457	21.01
600.651	21.1
600.846	21.29
601.04	21.21
601.234	21.2
601.428	21.23
601.622	21.25
601.817	21.25
602.011	21.3
602.205	21.36
602.399	21.37
602.593	21.49
602.787	21.46
602.981	21.56
603.175	21.56
603.369	21.58
603.563	21.5
603.757	21.52
603.951	21.52
604.145	21.48
604.339	21.47
604.533	21.47
604.727	21.54
604.921	21.43
605.115	21.45
605.309	21.39
605.502	21.31
605.696	21.2
605.89	21.2
606.084	21.2
606.278	21.14
606.471	21.05
606.665	20.97
606.859	21.04
607.053	20.9
607.246	20.96
607.44	20.96
607.634	20.95
607.827	20.84
608.021	20.8
608.214	20.71
608.408	20.61
608.602	20.6
608.795	20.51
608.989	20.51
609.182	20.31
609.376	20.3
609.569	20.21
609.763	20.08
609.956	20
610.15	19.95
610.343	19.9
610.537	19.73
610.73	19.77
610.923	19.71
611.117	19.67
611.31	19.58
611.504	19.61
611.697	19.51
611.89	19.37
612.083	19.35
612.277	19.25
612.47	19.13
612.663	19.09
612.856	19.07
613.05	18.94
613.243	18.89
613.436	18.76
613.629	18.66
613.822	18.59
614.015	18.58
614.209	18.54
614.402	18.51
614.595	18.37
614.788	18.31
614.981	18.21
615.174	18.13
615.367	18.03
615.56	18.05
615.753	17.93
615.946	17.87
616.139	17.73
616.332	17.73
616.525	17.58
616.718	17.38
616.911	17.31
617.103	17.28
617.296	17.21
617.489	17.19
617.682	17.34
617.875	17.36
618.067	17.38
618.26	17.35
618.453	17.28
618.646	17.13
618.838	16.98
619.031	16.97
619.224	16.92
619.417	16.95
619.609	16.93
619.802	16.92
619.994	16.74
620.187	16.62
620.38	16.55
620.572	16.54
620.765	16.47
620.957	16.53
621.15	16.5
621.342	16.45
621.535	16.44
621.727	16.48
621.92	16.4
622.112	16.41
622.305	16.48
622.497	16.45
622.69	16.36
622.882	16.31
623.074	16.29
623.267	16.23
623.459	16.19
623.651	16.2
623.844	16.22
624.036	16.21
624.228	16.14
624.42	16.11
624.613	16.07
624.805	15.94
624.997	15.95
625.189	15.98
625.381	15.95
625.574	15.97
625.766	16.02
625.958	15.97
626.15	15.89
626.342	15.83
626.534	15.77
626.726	15.67
626.918	15.58
627.11	15.57
627.302	15.46
627.494	15.37
627.686	15.39
627.878	15.45
628.07	15.39
628.262	15.42
628.454	15.42
628.646	15.36
628.838	15.28
629.029	15.32
629.221	15.33
629.413	15.3
629.605	15.32
629.797	15.26
629.989	15.15
630.18	15.06
630.372	15.01
630.564	14.98
630.755	14.91
630.947	14.82
631.139	14.8
631.33	14.72
631.522	14.6
631.714	14.54
631.905	14.52
632.097	14.55
632.289	14.56
632.48	14.6
632.672	14.59
632.863	14.57
633.055	14.56
633.246	14.52
633.438	14.49
633.629	14.5
633.821	14.55
634.012	14.5
634.203	14.57
634.395	14.56
634.586	14.55
634.777	14.48
634.969	14.44
635.16	14.4
635.351	14.41
635.543	14.4
635.734	14.42
635.925	14.45
636.117	14.45
636.308	14.42
636.499	14.38
636.69	14.36
636.881	14.3
637.073	14.19
637.264	14.18
637.455	14.22
637.646	14.3
637.837	14.32
638.028	14.33
638.219	14.36
638.41	14.4
638.601	14.28
638.792	14.33
638.983	14.32
639.174	14.32
639.365	14.22
639.556	14.24
639.747	14.13
639.938	14.19
640.129	14.14
640.32	14.13
640.511	14.11
640.701	14.11
640.892	14
641.083	13.93
641.274	13.9
641.465	13.88
641.655	13.88
641.846	13.9
642.037	13.89
642.228	13.9
642.418	13.8
642.609	13.67
642.8	13.64
642.99	13.55
643.181	13.56
643.372	13.6
643.562	13.68
643.753	13.65
643.943	13.71
644.134	13.65
644.324	13.58
644.515	13.52
644.705	13.51
644.896	13.51
645.086	13.49
645.277	13.45
645.467	13.46
645.658	13.38
645.848	13.32
646.038	13.19
646.229	13.28
646.419	13.26
646.61	13.26
646.8	13.22
646.99	13.27
647.18	13.17
647.371	13.09
647.561	13.08
647.751	13.04
647.941	12.94
648.132	12.87
648.322	12.89
648.512	12.91
648.702	12.99
648.892	13.04
649.082	13.12
649.272	13.17
649.462	13.11
649.653	13
649.843	12.99
650.033	12.9
650.223	12.75
650.413	12.67
650.603	12.64
650.793	12.62
650.983	12.58
651.172	12.58
651.362	12.59
651.552	12.51
651.742	12.39
651.932	12.36
652.122	12.35
652.312	12.3
652.502	12.33
652.691	12.39
652.881	12.37
653.071	12.2
653.261	12.09
653.45	11.97
653.64	11.78
653.83	11.67
654.019	11.59
654.209	11.51
654.399	11.4
654.588	11.34
654.778	11.21
654.968	11.09
655.157	10.97
655.347	10.84
655.536	10.68
655.726	10.54
655.915	10.48
656.105	10.35
656.294	10.28
656.484	10.18
656.673	10.11
656.863	10.02
657.052	9.85
657.241	9.67
657.431	9.52
657.62	9.36
657.809	9.11
657.999	8.99
658.188	8.91
658.377	8.78
658.567	8.59
658.756	8.47
658.945	8.4
659.134	8.24
659.324	8.06
659.513	7.91
659.702	7.79
659.891	7.69
660.08	7.51
660.269	7.42
660.458	7.34
660.648	7.15
660.837	7
661.026	6.94
661.215	6.91
661.404	6.79
661.593	6.63
661.782	6.52
661.971	6.37
662.16	6.22
662.349	6.1
662.538	6.12
662.726	5.93
662.915	5.88
663.104	5.8
663.293	5.75
663.482	5.67
663.671	5.67
663.86	5.51
664.048	5.39
664.237	5.27
664.426	5.18
664.615	5.13
664.803	5.06
664.992	4.98
665.181	4.93
665.369	4.9
665.558	4.78
665.747	4.82
665.935	4.84
666.124	4.88
666.312	4.85
666.501	4.88
666.69	4.81
666.878	4.79
667.067	4.72
667.255	4.68
667.444	4.67
667.632	4.67
667.82	4.62
668.009	4.61
668.197	4.57
668.386	4.52
668.574	4.5
668.762	4.44
668.951	4.4
669.139	4.42
669.327	4.48
669.516	4.44
669.704	4.45
669.892	4.5
670.08	4.48
670.269	4.4
670.457	4.48
670.645	4.5
670.833	4.43
671.021	4.51
671.21	4.63
671.398	4.62
671.586	4.64
671.774	4.78
671.962	4.76
672.15	4.77
672.338	4.84
672.526	4.99
672.714	5.02
672.902	5.1
673.09	5.09
673.278	5.17
673.466	5.16
673.654	5.21
673.842	5.22
674.03	5.41
674.218	5.49
674.405	5.6
674.593	5.66
674.781	5.76
674.969	5.72
675.157	5.62
675.344	5.6
675.532	5.75
675.72	5.85
675.908	5.96
676.095	6.06
676.283	6.15
676.471	6.17
676.658	6.22
676.846	6.21
677.033	6.33
677.221	6.4
677.409	6.25
677.596	6.17
677.784	6.29
677.971	6.32
678.159	6.39
678.346	6.66
678.534	6.89
678.721	6.97
678.909	7.09
679.096	7.26
679.283	7.2
679.471	7.17
679.658	7.19
679.846	7.16
680.033	7.18
680.22	7.36
680.408	7.44
680.595	7.54
680.782	7.65
680.969	7.65
681.157	7.71
681.344	7.83
681.531	7.95
681.718	8.07
681.905	8.18
682.093	8.28
682.28	8.45
682.467	8.57
682.654	8.65
682.841	8.7
683.028	8.85
683.215	9
683.402	8.97
683.589	9.18
683.776	9.47
683.963	9.64
684.15	9.67
684.337	10
684.524	10.24
684.711	10.37
684.898	10.57
685.085	10.86
685.271	11.07
685.458	11.27
685.645	11.52
685.832	11.78
686.019	12.02
686.205	12.36
686.392	12.53
686.579	12.75
686.766	12.91
686.952	13.22
687.139	13.66
687.326	14.2
687.512	14.62
687.699	15.11
687.886	15.57
688.072	15.82
688.259	15.99
688.445	16.33
688.632	16.68
688.818	17.09
689.005	17.45
689.191	18.08
689.378	18.57
689.564	18.99
689.751	19.45
689.937	19.95
690.124	20.41
690.31	20.9
690.496	21.55
690.683	22.26
690.869	22.85
691.055	23.5
691.242	24.29
691.428	24.83
691.614	25.27
691.8	25.89
691.987	26.46
692.173	27.17
692.359	27.94
692.545	28.52
692.731	29.15
692.918	29.71
693.104	30.17
693.29	30.65
693.476	31.41
693.662	32.19
693.848	32.92
694.034	33.58
694.22	34.51
694.406	35.32
694.592	35.99
694.778	36.85
694.964	37.35
695.15	37.72
695.336	38.31
695.522	38.82
695.708	39.31
695.894	39.95
696.08	40.79
696.265	41.33
696.451	42.06
696.637	42.75
696.823	43.56
697.009	44.26
697.194	45.05
697.38	45.78
697.566	46.37
697.751	47.01
697.937	47.58
698.123	48.03
698.308	48.75
698.494	49.47
698.68	50.3
698.865	50.85
699.051	51.48
699.236	51.81
699.422	52.41
699.607	52.76
699.793	53.41
699.978	53.94
700.164	54.54
700.349	54.83
700.535	55.28
700.72	55.72
700.906	56.23
701.091	56.77
701.276	57.25
701.462	57.97
701.647	58.57
701.832	59.27
702.018	59.67
702.203	60.16
702.388	60.67
702.573	61.26
702.759	61.6
702.944	62.2
703.129	62.86
703.314	63.05
703.499	63.13
703.684	63.35
703.87	63.65
704.055	63.97
704.24	64.46
704.425	64.97
704.61	65.33
704.795	65.61
704.98	66.07
705.165	66.45
705.35	67.04
705.535	67.61
705.72	68.23
705.905	68.66
706.09	69.06
706.275	69.26
706.459	69.37
706.644	69.7
706.829	69.99
707.014	70.28
707.199	70.28
707.384	70.67
707.568	70.7
707.753	70.72
707.938	70.63
708.123	70.87
708.307	71.2
708.492	71.69
708.677	71.82
708.861	72.14
709.046	72.64
709.231	72.92
709.415	72.75
709.6	73.47
709.784	73.65
709.969	73.68
710.153	73.55
710.338	74.19
710.522	73.99
710.707	74.29
710.891	74.3
711.076	74.53
711.26	74.52
711.445	74.86
711.629	75.08
711.813	75.38
711.998	75.65
712.182	75.43
712.366	75.35
712.551	75.83
712.735	76.2
712.919	76.31
713.103	77.02
713.288	77.27
713.472	76.76
713.656	77.09
713.84	77.3
714.024	77.55
714.208	77.84
714.393	78.24
714.577	78.24
714.761	78.32
714.945	78.26
715.129	77.94
715.313	78.18
715.497	78.25
715.681	78.27
715.865	78.2
716.049	79.09
716.233	79.4
716.417	79.62
716.601	79.76
716.785	80.13
716.968	79.81
717.152	79.54
717.336	79.5
717.52	79.6
717.704	79.59
717.888	79.89
718.071	80.48
718.255	80.97
718.439	81.43
718.622	81.71
718.806	81.93
718.99	81.61
719.174	81.55
719.357	81.76
719.541	81.56
719.724	81.52
719.908	81.94
720.092	81.86
720.275	81.75
720.459	82.3
720.642	82.07
720.826	81.69
721.009	81.67
721.193	81.75
721.376	81.84
721.559	81.8
721.743	82.4
721.926	83.01
722.11	82.93
722.293	82.76
722.476	82.85
722.66	83
722.843	82.62
723.026	82.48
723.21	82.59
723.393	83.06
723.576	82.52
723.759	82.53
723.942	82.93
724.126	82.8
724.309	82.78
724.492	83.24
724.675	83.58
724.858	83.59
725.041	83.38
725.224	83.75
725.407	83.69
725.59	83.66
725.774	83.85
725.957	84.5
726.14	84.9
726.322	85.23
726.505	85.14
726.688	85.61
726.871	85.72
727.054	85.09
727.237	85.21
727.42	85.85
727.603	86.2
727.786	86.19
727.968	86.78
728.151	86.79
728.334	86.64
728.517	86.11
728.699	85.63
728.882	85.31
729.065	85.27
729.248	85.48
729.43	85.74
729.613	85.99
729.796	86.84
729.978	86.76
730.161	86.46
730.343	86.98
730.526	86.99
730.708	86.37
730.891	86.59
731.073	86.84
731.256	86.8
731.438	87.77
731.621	88.41
731.803	88.76
731.986	89.26
732.168	88.96
732.35	89
732.533	88.46
732.715	88.67
732.898	88.92
733.08	89.46
733.262	89.53
733.444	90.02
733.627	90.06
733.809	89.75
733.991	89.43
734.173	89.09
734.355	89.51
734.538	89.52
734.72	90.09
734.902	90.56
735.084	91.17
735.266	90.99
735.448	91.13
735.63	91.2
735.812	90.9
735.994	91.33
736.176	91.8
736.358	92.89
736.54	92.52
736.722	92.82
736.904	92.02
737.086	92.07
737.268	91.2
737.45	91.32
737.632	90.86
737.814	91.84
737.995	91.98
738.177	91.82
738.359	92.24
738.541	92.53
738.723	92.77
738.904	92.06
739.086	92.68
739.268	92.78
739.449	93.71
739.631	92.84
739.813	94
739.994	93.53
740.176	93.77
740.358	92.13
740.539	92.38
740.721	91.78
740.902	92.21
741.084	92.14
741.265	93.95
741.447	94.53
741.628	94.26
741.81	94.77
741.991	94.37
742.172	93.48
742.354	93.08
742.535	93.61
742.717	93.01
742.898	93
743.079	94.3
743.261	94.17
743.442	93.83
743.623	94.19
743.804	94.4
743.986	92.6
744.167	93.04
744.348	93.1
744.529	92.35
744.71	92.44
744.891	93.25
745.073	93.97
745.254	94.17
745.435	94.77
745.616	94.1
745.797	94.14
745.978	93.84
746.159	93.94
746.34	93.6
746.521	93.61
746.702	93.95
746.883	93.28
747.064	93.44
747.245	93.72
747.426	94.24
747.606	93.72
747.787	93.73
747.968	93.15
748.149	93.13
748.33	93.37
748.51	93.26
748.691	93.96
748.872	94.95
749.053	95.48
749.233	95.86
749.414	96.45
749.595	94.57
749.775	93.32
749.956	93.24
750.137	91.97
750.317	92.64
750.498	94.22
750.678	95.04
750.859	93.47
751.04	94.19
751.22	92.87
751.4	92.88
751.581	91.8
751.761	92.69
751.942	92.77
752.122	93.4
752.303	92.81
752.483	93.55
752.663	93.84
752.844	94.06
753.024	94.2
753.204	93.99
753.385	95.07
753.565	94.74
753.745	95.3
753.925	94.79
754.106	95.42
754.286	93.16
754.466	93.08
754.646	90.8
754.826	90.35
755.006	88.97
755.187	90.15
755.367	90.57
755.547	92.05
755.727	92.17
755.907	92.83
756.087	93
756.267	92.66
756.447	92.02
756.627	91.84
756.807	91.44
756.987	90.7
757.167	91.39
757.346	92.59
757.526	92.99
757.706	93.81
757.886	93.33
758.066	92.31
758.246	90.95
758.425	90.23
758.605	90.12
758.785	91.83
758.965	92.39
759.144	92.86
759.324	91.73
759.504	91.93
759.683	92.26
759.863	91.25
760.043	90.66
760.222	92.38
760.402	92.4
760.581	91.8
760.761	91.66
760.94	92.91
761.12	93.26
761.299	93.59
761.479	91.84
761.658	92.44
761.838	91.39
762.017	91.89
762.197	92.15
762.376	94.74
762.555	94.01
762.735	93.89
762.914	94.57
763.093	94.35
763.273	92.42
763.452	94.06
763.631	94.47
763.81	93.42
763.99	91.42
764.169	91.5
764.348	91.33
764.527	89.86
764.706	90.97
764.885	92.52
765.064	91.94
765.243	91.5
765.423	93.17
765.602	89.24
765.781	88.25
765.96	87.65
766.139	87.94
766.318	88.09
766.497	90.14
766.676	92.06
766.854	94.85
767.033	94.72
767.212	93.95
767.391	94.77
767.57	94.43
767.749	92.4
767.928	91.01
768.106	90.4
768.285	89.39
768.464	88.72
768.643	88.85
768.821	89.66
769	90.84
769.179	92
769.357	90.03
769.536	90.63
769.715	90.9
769.893	91.2
770.072	89.09
770.25	90.91
770.429	89.94
770.607	91.02
770.786	90.19
770.964	90.95
771.143	91.13
771.321	91.66
771.5	90.95
771.678	91.82
771.857	93.62
772.035	91.72
772.213	91.08
772.392	89.21
772.57	88.23
772.748	86.43
772.927	87.33
773.105	89.27
773.283	88.87
773.461	88.83
773.64	88.47
773.818	89.14
773.996	88.77
774.174	90.27
774.352	88.49
774.531	89.04
774.709	89.15
774.887	88.32
775.065	87.27
775.243	90.74
775.421	91.83
775.599	92.43
775.777	94.03
775.955	94.27
776.133	94.09
776.311	92.52
776.489	90.26
776.667	88.82
776.844	90.35
777.022	88.41
777.2	89.45
777.378	90.75
777.556	88.17
777.734	88.06
777.911	87.15
778.089	85.98
778.267	84.86
778.445	88.14
778.622	87.93
778.8	88.88
778.978	91.2
779.155	91.06
779.333	88.76
779.511	89.36
779.688	89.12
779.866	88.51
780.043	89.37
780.221	90.21
780.398	88.89
780.576	89.69
780.753	86.73
780.931	86.76
781.108	85.93
781.286	86.14
781.463	86.15
781.64	88.18
781.818	86.5
781.995	87.72
782.172	87.93
782.35	86.49
782.527	86.71
782.704	89.59
782.882	90.28
783.059	88.55
783.236	89.5
783.413	87.8
783.59	86.71
783.768	88.24
783.945	90.44
784.122	89.81
784.299	89.83
784.476	87.6
784.653	84.98
784.83	84.83
785.007	84.26
785.184	83.98
785.361	86.46
785.538	86.14
785.715	84.98
785.892	86.99
786.069	88.4
786.246	89.42
786.423	90.03
786.6	90
786.776	88.06
786.953	89.88
787.13	87.51
787.307	85.84
787.484	82.98
787.66	85.8
787.837	85.53
788.014	86.55
788.191	88.19
788.367	89.49
788.544	85.62
788.721	81.81
788.897	81.25
789.074	81.75
789.25	82.95
789.427	83.46
789.603	88.3
789.78	85.34
789.956	85.38
790.133	88.02
790.309	88.56
790.486	86.63
790.662	88.96
790.839	86.6
791.015	86.63
791.192	90.72
791.368	87.99
791.544	85.99
791.721	87.48
791.897	85.97
792.073	83.31
792.249	87.25
792.426	85.64
792.602	84.47
792.778	80.38
792.954	80.6
793.13	79.1
793.307	82.23
793.483	80.43
793.659	83.96
793.835	83.98
794.011	81.3
794.187	82.33
794.363	82.68
794.539	80.43
794.715	78.56
794.891	77.66
795.067	75.68
795.243	79.16
795.419	80.3
795.595	81.75
795.771	82.01
795.947	82.22
796.122	78.78
796.298	79.52
796.474	75.57
796.65	78.02
796.826	79.63
797.001	81.17
797.177	80.02
797.353	82.82
797.529	84.6
797.704	80.64
797.88	78.86
798.056	83.54
798.231	87.82
798.407	86.75
798.582	87.35
798.758	90.15
798.934	87.54
799.109	84.67
799.285	84.03
799.46	84.48
799.636	81.94
799.811	81.39
799.986	78.14
800.162	75.09
800.337	79.22
800.513	86.98
800.688	83.73
800.863	88.78
801.039	88.75
801.214	86.16
801.389	81.39
801.565	82.55
801.74	81.41
801.915	82.22
802.09	85.39
802.265	83.99
802.441	86.17
802.616	84.87
802.791	88.26
802.966	85.76
803.141	89.07
803.316	86.85
803.491	87.29
803.666	88.08
803.841	89.26
804.016	86.4
804.191	86.76
804.366	88.64
804.541	85.5
804.716	83.64
804.891	87.61
805.066	89.67
805.241	83.72
805.416	83.53
805.591	82.8
805.765	80.37
805.94	77.96
806.115	81.06
806.29	82.8
806.464	77.12
806.639	74.59
806.814	78.89
806.989	76.65
807.163	77.22
807.338	83.64
807.512	86.52
807.687	87.71
807.862	83.94
808.036	81.05
808.211	83.1
808.385	85.23
808.56	80.67
808.734	76.35
808.909	77.17
809.083	78.65
809.258	78.03
809.432	76.93
809.606	89.96
809.781	92.73
809.955	90.66
810.13	84.41
810.304	87.47
810.478	82.45
810.652	86.91
810.827	86.66
811.001	94.4
811.175	91.3
811.349	97.56
811.524	87.21
811.698	89.8
811.872	90.77
812.046	97.6
812.22	92.06
812.394	96.45
812.568	93.14
812.742	89.74
812.916	81.4
813.09	87.36
813.264	92.17
813.438	84.85
813.612	86.68
813.786	94.42
813.96	91.33
814.134	89.28
814.308	95
814.482	92.96
814.656	83.03
814.83	77.7
815.003	73.31
815.177	75.2
815.351	69.24
815.525	73.63
815.698	75.62
815.872	74.19
816.046	69.54
816.219	73.95
816.393	74.1
816.567	74.39
816.74	75.28
816.914	75.04
817.088	73.38
817.261	74.39
817.435	74.32
817.608	70.1
817.782	80.96
817.955	79.1
818.129	76.26
818.302	75.28
818.475	91.06
818.649	83.88
818.822	93.32
818.996	95.7
819.169	94.39
819.342	79.42
819.516	87.49
819.689	83.05
819.862	78.29
820.035	79.23
820.209	87.58
820.382	79.79
820.555	72.28
820.728	79.37
820.901	77.8
821.075	70.15
821.248	66.15
821.421	74.46
821.594	72.7
821.767	74.91
821.94	76.89
822.113	83.17
822.286	85.09
822.459	84.98
822.632	93.76
822.805	99.28
822.978	106.16
823.151	112.73
823.324	113.07
823.496	107.93
823.669	99.89
823.842	84.82
824.015	77.06
824.188	84.39
824.361	85.49
824.533	82.81
824.706	111.08
824.879	96.42
825.051	88.17
825.224	87.58
825.397	93.99
825.569	85.69
825.742	97.73
825.915	92.08
826.087	91.73
826.26	82.44
826.432	82.71
826.605	61.87
826.777	70.91
826.95	63.28
827.122	67.45
827.295	63.89
827.467	71.67
827.64	69.18
827.812	79.1
827.984	83.45
828.157	77.59
828.329	72.28
828.501	75.42
828.674	69.15
828.846	65.35
829.018	76.15
829.19	82.45
829.363	80.92
829.535	64.67
829.707	64.16
829.879	67.49
830.051	63.81
830.223	78.19
830.395	112.59
830.568	100.15
830.74	80.09
830.912	82.39
831.084	74.83
831.256	71.35
831.428	62.61
831.6	69.92
831.772	66.89
831.943	60.58
832.115	64.52
832.287	71.12
832.459	70.59
832.631	75.8
832.803	85.3
832.975	80.89
833.146	85.44
833.318	93.41
833.49	88.35
833.662	77.79
833.833	95.41
834.005	100.72
834.177	96.3
834.348	89.49
834.52	89.37
834.692	83.06
834.863	68.84
835.035	80.4
835.206	89.14
835.378	93.74
835.549	93.72
835.721	108.21
835.892	91.18
836.064	81.06
836.235	83.09
836.407	76.93
836.578	82.88
836.749	86.84
836.921	97.34
837.092	93.33
837.264	105.35
837.435	77.6
837.606	77.72
837.777	90.36
837.949	77.87
838.12	66.52
838.291	78.92
838.462	83.74
838.633	64.77
838.805	88.62
838.976	84.74
839.147	66.33
839.318	70.92
839.489	85.37
839.66	104.05
839.831	107.88
840.002	120.55
840.173	96.45
840.344	64.45
840.515	25.15
840.686	12.76
840.857	21.9
841.028	61.85
841.199	60.01
841.369	98.6
841.54	102.99
841.711	112.25
841.882	92.25
842.053	95.59
842.223	86.2
842.394	78.08
842.565	69.09
842.736	57.64
842.906	47.6
843.077	67.24
843.248	70.44
843.418	69.68
843.589	78.76
843.759	79.45
843.93	95.38
844.101	79.53
844.271	71.48
844.442	78.67
844.612	67.47
844.783	50.12
844.953	54.82
845.123	67.66
845.294	80.35
845.464	95.56
845.635	78.31
845.805	81.37
845.975	79.58
846.146	57.25
846.316	62.48
846.486	77.28
846.656	73.88
846.827	79.7
846.997	79.77
847.167	60.72
847.337	74.84
847.507	89.73
847.677	108.77
847.848	148.7
848.018	180.25
848.188	157.48
848.358	130.12
848.528	88.53
848.698	69.55
848.868	67.58
849.038	51.08
849.208	68
849.378	69.19
849.548	56.43
849.718	37.62
849.887	53.34
850.057	52.66
850.227	46.24
850.397	44.56
850.567	64.94
850.737	90.69
850.906	72.07
851.076	83.73
851.246	81.45
851.415	95.95
851.585	82.78
851.755	167.23
851.924	132.06
852.094	112.63
852.264	91.58
852.433	73.29
852.603	49.2
852.772	58.66
852.942	82.87
853.111	70.65
853.281	71.16
853.45	58.41
853.62	40.08
853.789	2.94
853.959	20.37
854.128	19.91
854.297	29.47
854.467	24.44
854.636	57.03
854.805	19.35
854.975	47.81
855.144	78.1
855.313	101.37
855.482	82.37
855.652	111
855.821	66.98
855.99	27.41
856.159	17.36
856.328	7.66
856.497	7.86
856.667	33.24
856.836	70.75
857.005	70.91
857.174	99.93
857.343	71.7
857.512	51.09
857.681	68.95
857.85	76.38
858.019	71.42
858.188	69.31
858.356	81.03
858.525	50.26
858.694	51.83
858.863	55.43
859.032	64.24
859.201	56.22
859.369	79.08
859.538	93.84
859.707	77.37
859.876	73.35
860.044	64.57
860.213	59.63
860.382	41.83
860.55	49.84
860.719	69.83
860.888	70.81
861.056	50.56
861.225	30.13
861.393	76.81
861.562	75.29
861.73	124.4
861.899	127.86
862.067	121.03
862.236	93.53
862.404	93.68
862.572	68.98
862.741	72.93
862.909	84.43
863.078	67.39
863.246	60.88
863.414	56.73
863.582	76.13
863.751	66.1
863.919	77.1
864.087	81.74
864.255	94.15
864.424	75.32
864.592	89.25
864.76	135.14
864.928	86.49
865.096	80.97
865.264	80.69
865.432	57.79
865.6	57.56
865.768	95.1
865.936	70.27
866.104	81.74
866.272	90.77
866.44	66.03
866.608	69.03
866.776	73.2
866.944	75.38
867.112	73.06
867.28	110.76
867.448	68.51
867.615	65.43
867.783	47.99
867.951	51.44
868.119	32.35
868.286	66.98
868.454	80.63
868.622	78.03
868.789	74.66
868.957	96.84
869.125	110.27
869.292	93.45
869.46	149.31
869.627	160.36
869.795	112.05
869.963	75.22
870.13	66.37
870.298	88.19
870.465	64.82
870.632	80.13
870.8	60.48
870.967	85.31
871.135	39.41
871.302	26.16
871.469	34.27
871.637	89.51
871.804	69.93
871.971	83.3
872.139	35.17
872.306	-12.04
872.473	36.36
872.64	17.24
872.807	14.64
872.975	65.35
873.142	85.39
873.309	59.15
873.476	67.76
873.643	79.31
873.81	58.44
873.977	80.62
874.144	77.89
874.311	75.29
874.478	86.93
874.645	94.88
874.812	74.49
874.979	89.75
875.146	115.65
875.313	79.38
875.48	89.57
875.647	93.14
875.813	105.74
875.98	81.59
876.147	78.62
876.314	55.34
876.481	47.71
876.647	54.61
876.814	65.41
876.981	82.21
877.147	97
877.314	106.87
877.481	125.59
877.647	169.05
877.814	83.61
877.98	92.6
878.147	60.98
878.314	36.93
878.48	5.72
878.647	80.52
878.813	60.19
878.979	54.08
879.146	65.68
879.312	60.86
879.479	37.76
879.645	22.57
879.811	46.31
879.978	46.3
880.144	56.86
880.31	84.02
880.477	187.11
880.643	179.34
880.809	100.86
880.975	30
881.142	13.16
881.308	28.93
881.474	37.74
881.64	48.29
881.806	99.96
881.972	110.99
882.138	67.29
882.304	49.54
882.47	45.37
882.636	17.75
882.802	34.43
882.968	47.79
883.134	64.77
883.3	84.33
883.466	73.62
883.632	82.92
883.798	117.51
883.964	109.25
884.129	91.12
884.295	95.63
884.461	50.9
884.627	33.11
884.793	19.37
884.958	-31.6
885.124	33.98
885.29	23.34
885.455	78.35
885.621	95.35
885.787	111.06
885.952	103.98
886.118	106.96
886.283	89.56
886.449	101.29
886.614	75.92
886.78	65.64
886.945	59.29
887.111	74.43
887.276	50.75
887.442	64.14
887.607	71.04
887.773	106.26
887.938	66.43
888.103	75.67
888.269	60.48
888.434	77.31
888.599	68.92
888.764	82.74
888.93	115.86
889.095	140.52
889.26	105.32
889.425	107.65
889.59	87.25
889.756	76.38
889.921	67.31
890.086	95.96
890.251	74.43
890.416	127.09
890.581	106.06
890.746	220.48
890.911	331.13
891.076	-154.08
891.241	225.59
891.406	39.71
891.571	99.78
891.736	66.89
891.901	79.31
892.065	99.88
892.23	53.17
892.395	-11.75
892.56	-253.68
892.725	70.98
892.889	90.8
893.054	114.54
893.219	115.17
893.384	99.98
893.548	74.32
893.713	69.66
893.878	60.08
