Data from Ofra_PS_Phys_8HS24_Reflection_1.txt Node
Date: Tue Jul 20 20:38:46 EDT 2021
User: USUARIO
Spectrometer: FLMT01687
Trigger mode: 0
Integration Time (sec): 1.042999E0
Scans to average: 2
Electric dark correction enabled: true
Nonlinearity correction enabled: false
Boxcar width: 2
XAxis mode: Wavelengths
Number of Pixels in Spectrum: 3648
>>>>>Begin Spectral Data<<<<<
179.494	-118.78
179.716	-108.44
179.937	-133.02
180.158	-51.95
180.38	-30.59
180.601	-37.18
180.823	4.49
181.044	40.96
181.265	-204.87
181.486	-46.16
181.708	-32.46
181.929	-35.6
182.15	-117.16
182.372	-31.55
182.593	38.56
182.814	-8.39
183.035	49.38
183.257	40.06
183.478	6.67
183.699	-18.28
183.92	37.46
184.141	85.25
184.363	121.6
184.584	64.27
184.805	49.19
185.026	71.33
185.247	54.35
185.468	35.87
185.689	48.11
185.91	48.58
186.132	1.28
186.353	-0.42
186.574	16.68
186.795	14.17
187.016	9.93
187.237	46.93
187.458	45.23
187.679	46.82
187.9	43.76
188.121	50.52
188.342	43.87
188.563	53.34
188.784	50.93
189.005	59.57
189.226	62.68
189.447	62.03
189.667	55.88
189.888	35.4
190.109	52.36
190.33	29.97
190.551	45.88
190.772	-7.3
190.993	59.63
191.214	22.38
191.434	53.29
191.655	50.51
191.876	73.03
192.097	73.1
192.318	85.27
192.538	73.3
192.759	65.54
192.98	55.46
193.201	36.55
193.421	36.89
193.642	31.8
193.863	35.77
194.083	37.34
194.304	50.24
194.525	51.59
194.745	58.93
194.966	38.58
195.187	46
195.407	18.82
195.628	10.61
195.848	-6.91
196.069	36.7
196.29	38.9
196.51	42.89
196.731	40.77
196.951	54.44
197.172	52.18
197.392	61.98
197.613	65.21
197.833	60.14
198.054	53.21
198.274	59.71
198.495	50.33
198.715	40.17
198.936	39.08
199.156	45.44
199.377	48.05
199.597	49.95
199.817	58.55
200.038	36.97
200.258	47.36
200.479	35.86
200.699	48.44
200.919	51.7
201.14	68.39
201.36	43.11
201.58	149.56
201.801	62.21
202.021	-2.12
202.241	-1.46
202.461	6.88
202.682	-23.68
202.902	-27.01
203.122	15.67
203.342	31.66
203.563	21.23
203.783	52.28
204.003	17.57
204.223	29.86
204.443	24.85
204.663	40.68
204.884	31.99
205.104	58.22
205.324	33
205.544	40.59
205.764	45.27
205.984	41.63
206.204	26.8
206.424	70.41
206.644	46.64
206.864	36.8
207.084	36.86
207.304	40.44
207.525	12.74
207.745	19.19
207.964	14.44
208.184	16.18
208.404	2.74
208.624	22.23
208.844	31.99
209.064	32.06
209.284	28.97
209.504	35.62
209.724	44.76
209.944	38.68
210.164	43.28
210.384	62.95
210.604	64.11
210.823	55.05
211.043	47.41
211.263	45.25
211.483	33.08
211.703	23.25
211.922	34.91
212.142	59.71
212.362	69.79
212.582	43.39
212.801	45.03
213.021	27.03
213.241	29.5
213.461	-6.64
213.68	-17.61
213.9	-19.8
214.12	-4.97
214.339	-35.87
214.559	17.78
214.779	31.49
214.998	40.68
215.218	26.21
215.438	22.15
215.657	23.19
215.877	5.25
216.096	20.78
216.316	24.65
216.535	40.99
216.755	28.36
216.974	58.68
217.194	44.81
217.413	39.36
217.633	40.09
217.852	44.06
218.072	39.89
218.291	28.12
218.511	32.93
218.73	26.63
218.95	33.57
219.169	27.22
219.389	25.48
219.608	36.05
219.827	51.32
220.047	41.59
220.266	37.2
220.485	60.79
220.705	41.97
220.924	24.84
221.143	21.11
221.363	19.37
221.582	-11.81
221.801	7.79
222.021	9.94
222.24	26.82
222.459	35.64
222.678	31.29
222.897	19.14
223.117	18.41
223.336	-1.62
223.555	9.61
223.774	14.44
223.993	41.37
224.213	40.05
224.432	48.54
224.651	28.31
224.87	17.04
225.089	-4.02
225.308	1.52
225.527	3.87
225.746	41.83
225.965	65.2
226.184	63.39
226.404	52.09
226.623	42.37
226.842	30.22
227.061	21.85
227.28	9.62
227.499	16.97
227.718	20.22
227.936	35.43
228.155	49.77
228.374	44.72
228.593	51.09
228.812	48.51
229.031	25.27
229.25	11.4
229.469	13.85
229.688	-7.87
229.907	-1.89
230.125	-5.02
230.344	5.34
230.563	14.95
230.782	38.95
231.001	57.72
231.22	60.57
231.438	55.84
231.657	24.19
231.876	20.21
232.095	3.67
232.313	14.71
232.532	16.73
232.751	63.16
232.969	35.08
233.188	28.89
233.407	47.23
233.625	37.77
233.844	32.22
234.063	28.07
234.281	22.73
234.5	3.5
234.719	7.96
234.937	-5.58
235.156	0.29
235.374	6.26
235.593	20.11
235.811	10.98
236.03	3.68
236.249	6.15
236.467	14.45
236.686	32.5
236.904	45.29
237.123	42.75
237.341	60.05
237.559	56.98
237.778	36.71
237.996	21.21
238.215	25.25
238.433	32.77
238.652	36.12
238.87	30.52
239.088	32.33
239.307	24.05
239.525	5.25
239.743	-9.62
239.962	-12.86
240.18	3.11
240.398	31.85
240.617	27.71
240.835	27.82
241.053	23.13
241.271	36.2
241.49	15.91
241.708	22.23
241.926	23.19
242.144	22.29
242.363	-0.63
242.581	15.7
242.799	14.18
243.017	22.95
243.235	45.71
243.453	51.58
243.672	48.76
243.89	42.86
244.108	52.12
244.326	49.96
244.544	45.74
244.762	37.49
244.98	46.4
245.198	34.64
245.416	21.12
245.634	20.1
245.852	27.65
246.07	15.18
246.288	4.55
246.506	15.12
246.724	7.44
246.942	12.02
247.16	23.01
247.378	25.78
247.596	13.68
247.814	15.96
248.032	17.74
248.25	25.48
248.468	20.82
248.685	26.8
248.903	40.28
249.121	24.16
249.339	10.64
249.557	10.22
249.775	26.85
249.992	26.33
250.21	29.15
250.428	8.53
250.646	26.36
250.863	-16.85
251.081	-43
251.299	-57.49
251.517	-12.54
251.734	-18.18
251.952	-39.62
252.17	-45.97
252.387	-0.7
252.605	11.9
252.823	14.44
253.04	39.96
253.258	53.38
253.475	48.99
253.693	44.94
253.911	55.25
254.128	34.75
254.346	27.48
254.563	13.77
254.781	2.93
254.998	24.73
255.216	39.04
255.433	44.43
255.651	78.7
255.868	118.98
256.086	61.7
256.303	50.07
256.521	46.44
256.738	29.35
256.956	2.87
257.173	18.82
257.39	25.86
257.608	34.69
257.825	48.23
258.043	65.13
258.26	65.93
258.477	58.77
258.695	50.35
258.912	54.76
259.129	67.19
259.346	63.21
259.564	72.33
259.781	81.74
259.998	80.42
260.216	40.54
260.433	40.23
260.65	54.62
260.867	68.08
261.084	63.71
261.302	61.6
261.519	60.68
261.736	37.69
261.953	33.47
262.17	38.89
262.387	59.06
262.604	66.59
262.822	63.55
263.039	48.56
263.256	41.62
263.473	36.77
263.69	21.02
263.907	32.84
264.124	25.39
264.341	19.1
264.558	3.41
264.775	-8.55
264.992	-6.23
265.209	22.54
265.426	32.81
265.643	39.87
265.86	43.61
266.077	29.79
266.294	29.76
266.51	29.92
266.727	40.53
266.944	43.6
267.161	51.19
267.378	43.63
267.595	40.79
267.812	30.18
268.028	24.97
268.245	24.92
268.462	35.17
268.679	28.93
268.896	23.56
269.112	25.89
269.329	24.2
269.546	29.92
269.763	37.57
269.979	47.03
270.196	37.95
270.413	36.72
270.629	21.41
270.846	19.84
271.063	16.8
271.279	19.31
271.496	33.38
271.712	39.85
271.929	40.6
272.146	44.65
272.362	28.42
272.579	23.09
272.795	21.78
273.012	3.92
273.228	-2.52
273.445	-3.99
273.661	-20.68
273.878	-10.51
274.094	21.69
274.311	18.84
274.527	35.94
274.744	42.92
274.96	39.36
275.177	28.95
275.393	19.34
275.609	-17.69
275.826	-21.02
276.042	-24.23
276.259	-26.16
276.475	0.56
276.691	9.97
276.908	-3.41
277.124	4.35
277.34	30.06
277.557	31.77
277.773	44.05
277.989	49.38
278.205	43.64
278.422	27.38
278.638	35.21
278.854	28.03
279.07	30.19
279.286	47.09
279.503	47.5
279.719	22.97
279.935	28.23
280.151	33.43
280.367	29.12
280.583	34.73
280.799	45.51
281.016	34.8
281.232	19.91
281.448	12.08
281.664	26.4
281.88	23.03
282.096	29.28
282.312	28.45
282.528	29
282.744	16.6
282.96	28.15
283.176	28.61
283.392	24.87
283.608	36.13
283.824	27.65
284.04	25.44
284.256	33.73
284.471	42.56
284.687	37.05
284.903	35.88
285.119	40.2
285.335	42.63
285.551	28.78
285.767	13.79
285.982	13.33
286.198	21.32
286.414	17.39
286.63	42.41
286.846	54.41
287.061	40.81
287.277	19.79
287.493	15.47
287.709	-18.04
287.924	-8.46
288.14	12.88
288.356	27.03
288.571	26.41
288.787	30.59
289.003	24.61
289.218	16.93
289.434	19.87
289.65	29.75
289.865	36.16
290.081	45.06
290.296	54.06
290.512	43.68
290.727	36.91
290.943	27.75
291.159	28.66
291.374	24.17
291.59	20.82
291.805	10.33
292.021	24.43
292.236	14.97
292.451	34.95
292.667	32.59
292.882	31.94
293.098	35.99
293.313	46.41
293.529	27.81
293.744	31.14
293.959	47.73
294.175	40.85
294.39	36.07
294.605	38.28
294.821	60.31
295.036	39.79
295.251	27.92
295.467	24.26
295.682	14.58
295.897	-1.02
296.112	8.25
296.328	7.6
296.543	12.94
296.758	20.02
296.973	29.53
297.188	36.88
297.404	40.6
297.619	53.51
297.834	55.8
298.049	47.63
298.264	36.06
298.479	49.45
298.694	38.01
298.909	43.54
299.125	46.58
299.34	54.35
299.555	55.41
299.77	49.19
299.985	35.94
300.2	23.11
300.415	26.44
300.63	31.73
300.845	28.61
301.06	44.74
301.275	56.69
301.49	53.69
301.704	41.04
301.919	34.38
302.134	20.81
302.349	24.43
302.564	23.25
302.779	28.53
302.994	24.77
303.209	31
303.423	31.3
303.638	40.62
303.853	36.41
304.068	50.68
304.283	50.84
304.497	43.78
304.712	36.64
304.927	36.42
305.142	38.3
305.356	23.58
305.571	29.39
305.786	21.21
306	21.84
306.215	19.69
306.43	25.35
306.644	29.25
306.859	44.61
307.074	39.72
307.288	32.54
307.503	39.3
307.717	23.77
307.932	25.54
308.147	27.24
308.361	29.35
308.576	18.69
308.79	16.61
309.005	-1.15
309.219	-10.39
309.434	-19.77
309.648	-3.7
309.863	7.87
310.077	22.02
310.292	37.54
310.506	46.98
310.72	29.52
310.935	31.54
311.149	29.37
311.364	26.02
311.578	35.1
311.792	40.21
312.007	27.42
312.221	31.22
312.435	22.1
312.649	9.43
312.864	14.65
313.078	13.27
313.292	13.59
313.507	22.54
313.721	17.78
313.935	16.21
314.149	29.4
314.363	12.53
314.578	0.71
314.792	18.08
315.006	17.66
315.22	-7.83
315.434	12.55
315.648	24.14
315.862	13.48
316.077	8.19
316.291	24.3
316.505	6.86
316.719	14.19
316.933	14.51
317.147	-1.48
317.361	-0.6
317.575	12.95
317.789	-4.08
318.003	-1.95
318.217	29.85
318.431	32.39
318.645	14.35
318.859	17.8
319.073	17.47
319.287	14.38
319.5	11.93
319.714	28.34
319.928	38.57
320.142	34.84
320.356	26.45
320.57	32.89
320.784	37.05
320.997	27.75
321.211	32.85
321.425	40.76
321.639	33.97
321.853	29.11
322.066	32.19
322.28	31.23
322.494	35.69
322.707	32.34
322.921	20.83
323.135	18
323.349	18.22
323.562	5.52
323.776	13.58
323.989	31.33
324.203	23.76
324.417	22.03
324.63	35.17
324.844	41.78
325.057	41.68
325.271	47.62
325.485	45.11
325.698	29.4
325.912	29.74
326.125	22.7
326.339	36.74
326.552	45.26
326.766	42.51
326.979	48.85
327.193	57.99
327.406	54.44
327.619	54.95
327.833	63.71
328.046	42.64
328.26	38.53
328.473	36.33
328.686	39.16
328.9	42.25
329.113	43.57
329.326	48.36
329.54	41.92
329.753	38.95
329.966	36.6
330.179	36.66
330.393	41.37
330.606	47.68
330.819	40.94
331.032	28.06
331.246	50.56
331.459	39.23
331.672	16.82
331.885	19.34
332.098	44.79
332.311	26.66
332.525	42.86
332.738	42.96
332.951	37.03
333.164	31.21
333.377	44.33
333.59	22.43
333.803	19.85
334.016	28.01
334.229	3.17
334.442	-24.04
334.655	-24.47
334.868	-13.15
335.081	-18.73
335.294	8.63
335.507	25.71
335.72	26.11
335.933	32.48
336.146	44.37
336.359	38.88
336.572	31.16
336.785	49.39
336.997	52.26
337.21	44.66
337.423	54.99
337.636	50.06
337.849	38.53
338.062	42.08
338.274	58.31
338.487	52.71
338.7	53.82
338.913	51.31
339.125	35.32
339.338	15.15
339.551	6.39
339.763	17.12
339.976	19
340.189	19
340.402	20.17
340.614	26.69
340.827	19.91
341.039	25.02
341.252	33.03
341.465	44.75
341.677	32.17
341.89	12.67
342.102	3.65
342.315	-5.1
342.527	-0.85
342.74	7.53
342.952	20.15
343.165	19.26
343.377	46.87
343.59	41.23
343.802	45.35
344.015	45.75
344.227	48.1
344.44	31.11
344.652	31.03
344.864	26.01
345.077	11.88
345.289	11.69
345.502	13.23
345.714	-18.91
345.926	-33.07
346.139	0.73
346.351	7.42
346.563	24.65
346.775	34.01
346.988	34.78
347.2	39.36
347.412	50.52
347.624	37.91
347.837	50.05
348.049	64.37
348.261	67.07
348.473	47.11
348.685	48.93
348.897	40.82
349.11	43.34
349.322	25.68
349.534	29.18
349.746	24.43
349.958	22.96
350.17	17.93
350.382	33.53
350.594	33.62
350.806	33
351.018	43.26
351.23	33.95
351.442	39.82
351.654	30
351.866	16.89
352.078	8.38
352.29	14.62
352.502	8.31
352.714	12.72
352.926	32.1
353.138	30.45
353.35	26.63
353.561	30.85
353.773	33.5
353.985	26.73
354.197	22.44
354.409	33.58
354.621	36.72
354.832	28.98
355.044	22.48
355.256	23.72
355.468	25.38
355.679	13.27
355.891	22.23
356.103	30.6
356.314	38.53
356.526	43.9
356.738	37.72
356.949	30.64
357.161	34.91
357.373	27.93
357.584	16.74
357.796	8.55
358.008	21.44
358.219	14.55
358.431	10.87
358.642	8.57
358.854	13.19
359.065	4.49
359.277	10.13
359.488	33.23
359.7	27.58
359.911	45.46
360.123	50.31
360.334	39.86
360.546	35.8
360.757	44.36
360.969	35.55
361.18	37.24
361.391	38.76
361.603	37.94
361.814	25.98
362.025	23.18
362.237	9.65
362.448	10.7
362.659	6.07
362.871	24.22
363.082	32.81
363.293	38.27
363.504	44.84
363.716	47.07
363.927	33.29
364.138	30.56
364.349	32.77
364.56	25.79
364.772	19.05
364.983	19.27
365.194	22.35
365.405	25.97
365.616	41.53
365.827	33.16
366.038	29.74
366.25	23.05
366.461	21.26
366.672	5.88
366.883	3.16
367.094	8.66
367.305	9.28
367.516	7.54
367.727	14.99
367.938	20.51
368.149	28.73
368.36	31.5
368.571	26.36
368.781	29.85
368.992	21.6
369.203	11.48
369.414	9.89
369.625	6.63
369.836	2.59
370.047	14.26
370.258	19.15
370.468	19.15
370.679	20.39
370.89	23.65
371.101	23.84
371.312	26.19
371.522	26.39
371.733	30.07
371.944	36.71
372.155	44.52
372.365	38.46
372.576	42.15
372.787	37.83
372.997	29.7
373.208	14.3
373.419	22.28
373.629	6.62
373.84	-0.63
374.05	1.01
374.261	14.87
374.472	7.59
374.682	18.73
374.893	20.96
375.103	17.46
375.314	11.28
375.524	26.08
375.735	24.12
375.945	27.79
376.156	26.54
376.366	35.17
376.577	22.44
376.787	28.95
376.997	32.28
377.208	28.69
377.418	21.44
377.629	24.8
377.839	22.94
378.049	35.35
378.26	41.51
378.47	45.67
378.68	41.16
378.89	40.67
379.101	27.55
379.311	21.47
379.521	21.69
379.732	18.54
379.942	19.2
380.152	11.92
380.362	17.36
380.572	19.38
380.783	17.14
380.993	17.1
381.203	15.36
381.413	10.4
381.623	7.32
381.833	11.5
382.043	10.23
382.253	11.74
382.463	18.87
382.674	20.46
382.884	20.43
383.094	22.66
383.304	25.75
383.514	21.67
383.724	13.91
383.934	12.05
384.144	7.75
384.353	11.82
384.563	8.42
384.773	24.03
384.983	30.4
385.193	28.24
385.403	20
385.613	28.52
385.823	14.36
386.033	9.2
386.242	6.5
386.452	14.32
386.662	6.43
386.872	9.65
387.082	9.77
387.291	16.08
387.501	13.53
387.711	14.88
387.921	18.19
388.13	22.09
388.34	18.97
388.55	16.33
388.759	12.98
388.969	9.92
389.179	11.3
389.388	11.71
389.598	11.66
389.807	17.66
390.017	13.97
390.227	8.05
390.436	10.23
390.646	11.83
390.855	10.88
391.065	12.4
391.274	12.04
391.484	10.02
391.693	11.44
391.903	8.47
392.112	7.7
392.322	6.33
392.531	7.74
392.74	6.39
392.95	4.84
393.159	5.13
393.369	8.37
393.578	6.55
393.787	6.09
393.997	8.75
394.206	8.19
394.415	7.13
394.625	8.11
394.834	6.93
395.043	6.43
395.252	8.08
395.462	7
395.671	6.06
395.88	6.8
396.089	6.65
396.298	5.61
396.508	4.93
396.717	5.2
396.926	4.64
397.135	3.7
397.344	3.57
397.553	4.87
397.762	4.58
397.971	4.29
398.181	4.84
398.39	4.75
398.599	4.49
398.808	4.41
399.017	5.59
399.226	6.18
399.435	6.16
399.644	6.62
399.853	6.66
400.062	6.07
400.27	5.69
400.479	6.03
400.688	5.87
400.897	5.87
401.106	5.94
401.315	5.84
401.524	5.67
401.733	5.25
401.941	4.85
402.15	4.35
402.359	4.32
402.568	4.03
402.777	3.91
402.985	4.11
403.194	4.4
403.403	4.25
403.612	4.26
403.82	4.33
404.029	4.39
404.238	4.41
404.446	4.38
404.655	4.14
404.864	4.25
405.072	4.21
405.281	4.47
405.489	4.44
405.698	4.7
405.906	4.58
406.115	4.76
406.324	4.45
406.532	4.49
406.741	4.42
406.949	4.6
407.158	4.51
407.366	4.44
407.574	4.34
407.783	4.28
407.991	4.14
408.2	4.17
408.408	4.11
408.617	4.13
408.825	4.18
409.033	4.27
409.242	4.19
409.45	4.21
409.658	4.25
409.867	4.17
410.075	3.93
410.283	3.83
410.491	3.88
410.7	4
410.908	4.01
411.116	4.38
411.324	4.49
411.533	4.46
411.741	4.45
411.949	4.52
412.157	4.32
412.365	4.51
412.573	4.52
412.781	4.31
412.99	4.32
413.198	4.26
413.406	4.05
413.614	4.14
413.822	4.18
414.03	4.13
414.238	4.2
414.446	4.19
414.654	4.23
414.862	4.21
415.07	4.2
415.278	4.14
415.486	4.1
415.694	4.02
415.902	4.16
416.109	4.12
416.317	4.22
416.525	4.22
416.733	4
416.941	3.92
417.149	4
417.357	3.79
417.564	3.66
417.772	3.7
417.98	3.87
418.188	3.79
418.395	4
418.603	4.08
418.811	4.23
419.019	3.93
419.226	3.96
419.434	3.66
419.642	3.51
419.849	3.35
420.057	3.43
420.265	3.38
420.472	3.6
420.68	3.78
420.887	3.98
421.095	3.85
421.302	3.82
421.51	3.77
421.717	3.64
421.925	3.67
422.132	3.81
422.34	3.88
422.547	3.68
422.755	3.81
422.962	3.69
423.17	3.57
423.377	3.66
423.585	3.84
423.792	3.66
423.999	3.68
424.207	3.77
424.414	3.64
424.621	3.49
424.829	3.44
425.036	3.32
425.243	3.33
425.451	3.44
425.658	3.47
425.865	3.64
426.072	3.62
426.28	3.57
426.487	3.66
426.694	3.71
426.901	3.65
427.108	3.64
427.315	3.67
427.523	3.48
427.73	3.47
427.937	3.5
428.144	3.53
428.351	3.46
428.558	3.47
428.765	3.46
428.972	3.44
429.179	3.4
429.386	3.5
429.593	3.55
429.8	3.54
430.007	3.49
430.214	3.57
430.421	3.51
430.628	3.51
430.835	3.45
431.042	3.44
431.249	3.47
431.456	3.43
431.662	3.48
431.869	3.61
432.076	3.81
432.283	3.73
432.49	3.72
432.697	3.7
432.903	3.73
433.11	3.55
433.317	3.61
433.524	3.66
433.73	3.59
433.937	3.55
434.144	3.56
434.35	3.76
434.557	3.77
434.764	3.71
434.97	3.64
435.177	3.7
435.384	3.43
435.59	3.49
435.797	3.61
436.003	3.7
436.21	3.77
436.416	3.74
436.623	3.66
436.829	3.61
437.036	3.5
437.242	3.45
437.449	3.61
437.655	3.66
437.862	3.68
438.068	3.8
438.275	3.79
438.481	3.85
438.687	3.75
438.894	3.71
439.1	3.55
439.307	3.63
439.513	3.59
439.719	3.71
439.926	3.78
440.132	3.9
440.338	3.8
440.544	3.69
440.751	3.64
440.957	3.55
441.163	3.57
441.369	3.65
441.575	3.7
441.782	3.7
441.988	3.76
442.194	3.77
442.4	3.76
442.606	3.74
442.812	3.75
443.018	3.79
443.224	3.73
443.431	3.8
443.637	3.75
443.843	3.77
444.049	3.68
444.255	3.75
444.461	3.68
444.667	3.79
444.873	3.74
445.079	3.87
445.284	3.78
445.49	3.76
445.696	3.72
445.902	3.82
446.108	3.79
446.314	3.87
446.52	3.97
446.726	4.01
446.931	4.03
447.137	4.03
447.343	4.04
447.549	3.97
447.755	3.93
447.96	3.89
448.166	3.87
448.372	3.9
448.578	4.04
448.783	4.1
448.989	4.07
449.195	4.03
449.4	4.05
449.606	3.86
449.812	3.87
450.017	3.95
450.223	3.97
450.428	3.95
450.634	4.06
450.84	4.06
451.045	4.07
451.251	4.11
451.456	4.05
451.662	3.99
451.867	4.06
452.073	3.97
452.278	3.91
452.483	3.97
452.689	3.96
452.894	3.96
453.1	3.98
453.305	4.03
453.51	4.06
453.716	4.08
453.921	3.97
454.127	4.06
454.332	4.1
454.537	4.09
454.742	4.1
454.948	4.11
455.153	4.09
455.358	4.04
455.563	4.06
455.769	4.04
455.974	4.07
456.179	4.01
456.384	3.96
456.589	3.9
456.795	3.91
457	3.92
457.205	3.98
457.41	4.02
457.615	4
457.82	4.01
458.025	3.92
458.23	3.86
458.435	3.84
458.64	3.91
458.845	3.94
459.05	3.93
459.255	3.93
459.46	3.99
459.665	3.94
459.87	3.89
460.075	3.94
460.28	3.98
460.485	3.93
460.69	3.99
460.895	4.05
461.099	4.05
461.304	4.08
461.509	4.08
461.714	4.01
461.919	3.98
462.123	4
462.328	3.91
462.533	4
462.738	4.01
462.942	4.04
463.147	4.05
463.352	4.15
463.556	4.11
463.761	4.1
463.966	4.06
464.17	4.01
464.375	4.01
464.58	4.05
464.784	4.15
464.989	4.17
465.193	4.29
465.398	4.23
465.602	4.21
465.807	4.14
466.011	4.18
466.216	4.06
466.42	4.08
466.625	4.11
466.829	4.09
467.034	4.12
467.238	4.25
467.443	4.31
467.647	4.28
467.851	4.3
468.056	4.28
468.26	4.23
468.464	4.2
468.669	4.16
468.873	4.16
469.077	4.13
469.282	4.15
469.486	4.1
469.69	4.19
469.894	4.21
470.099	4.24
470.303	4.32
470.507	4.42
470.711	4.5
470.915	4.59
471.119	4.7
471.324	4.69
471.528	4.72
471.732	4.62
471.936	4.57
472.14	4.57
472.344	4.57
472.548	4.53
472.752	4.66
472.956	4.72
473.16	4.72
473.364	4.75
473.568	4.83
473.772	4.79
473.976	4.88
474.18	4.88
474.384	4.78
474.588	4.77
474.792	4.78
474.995	4.71
475.199	4.75
475.403	4.86
475.607	4.81
475.811	4.78
476.015	4.76
476.218	4.77
476.422	4.77
476.626	4.8
476.83	4.81
477.033	4.84
477.237	4.85
477.441	4.8
477.644	4.82
477.848	4.81
478.052	4.79
478.255	4.79
478.459	4.8
478.663	4.84
478.866	4.93
479.07	5.02
479.273	5.01
479.477	5.1
479.681	5.15
479.884	5.1
480.088	5.06
480.291	5.13
480.495	5.12
480.698	5.08
480.901	5.15
481.105	5.2
481.308	5.06
481.512	5.11
481.715	5.1
481.919	5.14
482.122	5.11
482.325	5.2
482.529	5.16
482.732	5.23
482.935	5.18
483.138	5.17
483.342	5.22
483.545	5.27
483.748	5.22
483.952	5.25
484.155	5.27
484.358	5.22
484.561	5.23
484.764	5.22
484.967	5.27
485.171	5.3
485.374	5.42
485.577	5.43
485.78	5.5
485.983	5.48
486.186	5.4
486.389	5.34
486.592	5.3
486.795	5.25
486.998	5.25
487.201	5.33
487.404	5.32
487.607	5.33
487.81	5.32
488.013	5.34
488.216	5.28
488.419	5.24
488.622	5.21
488.825	5.22
489.028	5.15
489.231	5.2
489.433	5.2
489.636	5.24
489.839	5.19
490.042	5.27
490.245	5.27
490.447	5.28
490.65	5.25
490.853	5.33
491.056	5.28
491.258	5.26
491.461	5.25
491.664	5.28
491.866	5.27
492.069	5.27
492.272	5.3
492.474	5.34
492.677	5.38
492.879	5.39
493.082	5.37
493.285	5.42
493.487	5.46
493.69	5.43
493.892	5.39
494.095	5.44
494.297	5.32
494.5	5.32
494.702	5.33
494.905	5.42
495.107	5.4
495.309	5.5
495.512	5.55
495.714	5.55
495.917	5.53
496.119	5.58
496.321	5.49
496.524	5.44
496.726	5.45
496.928	5.38
497.13	5.44
497.333	5.54
497.535	5.59
497.737	5.6
497.939	5.7
498.142	5.71
498.344	5.71
498.546	5.76
498.748	5.75
498.95	5.77
499.152	5.68
499.355	5.64
499.557	5.6
499.759	5.67
499.961	5.64
500.163	5.74
500.365	5.78
500.567	5.79
500.769	5.78
500.971	5.82
501.173	5.77
501.375	5.8
501.577	5.82
501.779	5.85
501.981	5.85
502.183	5.88
502.385	5.96
502.587	5.97
502.788	5.99
502.99	6.03
503.192	6.12
503.394	6.12
503.596	6.15
503.798	6.19
503.999	6.26
504.201	6.26
504.403	6.24
504.605	6.21
504.806	6.22
505.008	6.11
505.21	6.07
505.411	6.12
505.613	6.21
505.815	6.22
506.016	6.34
506.218	6.34
506.42	6.29
506.621	6.31
506.823	6.31
507.024	6.33
507.226	6.44
507.427	6.53
507.629	6.5
507.83	6.56
508.032	6.55
508.233	6.51
508.435	6.5
508.636	6.57
508.838	6.59
509.039	6.63
509.24	6.65
509.442	6.71
509.643	6.69
509.845	6.65
510.046	6.65
510.247	6.68
510.448	6.64
510.65	6.68
510.851	6.72
511.052	6.8
511.254	6.87
511.455	6.92
511.656	6.89
511.857	6.93
512.058	6.91
512.26	6.89
512.461	6.95
512.662	6.98
512.863	7.01
513.064	7.05
513.265	7.06
513.466	7.06
513.667	7.19
513.868	7.15
514.069	7.13
514.27	7.11
514.471	7.06
514.672	6.96
514.873	7.02
515.074	7
515.275	7.03
515.476	7.06
515.677	7.09
515.878	7.1
516.079	7.15
516.28	7.2
516.481	7.24
516.682	7.26
516.882	7.3
517.083	7.28
517.284	7.29
517.485	7.35
517.686	7.37
517.886	7.35
518.087	7.38
518.288	7.41
518.488	7.38
518.689	7.37
518.89	7.37
519.091	7.37
519.291	7.36
519.492	7.32
519.692	7.35
519.893	7.45
520.094	7.45
520.294	7.4
520.495	7.46
520.695	7.46
520.896	7.41
521.096	7.46
521.297	7.52
521.497	7.52
521.698	7.54
521.898	7.59
522.099	7.59
522.299	7.68
522.499	7.71
522.7	7.74
522.9	7.74
523.101	7.74
523.301	7.71
523.501	7.71
523.702	7.69
523.902	7.71
524.102	7.74
524.302	7.74
524.503	7.72
524.703	7.76
524.903	7.75
525.103	7.82
525.304	7.81
525.504	7.84
525.704	7.91
525.904	7.91
526.104	7.84
526.304	7.91
526.504	7.91
526.705	7.89
526.905	7.92
527.105	7.99
527.305	7.97
527.505	8
527.705	7.99
527.905	7.99
528.105	8.01
528.305	7.98
528.505	7.98
528.705	8.02
528.905	8.07
529.105	8.05
529.304	8.07
529.504	8.11
529.704	8.07
529.904	8.08
530.104	8.08
530.304	8.13
530.503	8.15
530.703	8.2
530.903	8.18
531.103	8.23
531.303	8.22
531.502	8.24
531.702	8.24
531.902	8.26
532.101	8.25
532.301	8.3
532.501	8.34
532.7	8.36
532.9	8.39
533.1	8.4
533.299	8.45
533.499	8.44
533.698	8.45
533.898	8.47
534.097	8.49
534.297	8.43
534.496	8.47
534.696	8.55
534.895	8.56
535.095	8.62
535.294	8.7
535.494	8.68
535.693	8.7
535.892	8.7
536.092	8.69
536.291	8.67
536.491	8.71
536.69	8.7
536.889	8.76
537.088	8.78
537.288	8.79
537.487	8.77
537.686	8.76
537.886	8.83
538.085	8.91
538.284	8.98
538.483	9.05
538.682	9.1
538.882	9.08
539.081	9.12
539.28	9.11
539.479	9.16
539.678	9.24
539.877	9.23
540.076	9.28
540.275	9.36
540.474	9.36
540.673	9.31
540.872	9.33
541.071	9.29
541.27	9.32
541.469	9.37
541.668	9.45
541.867	9.5
542.066	9.59
542.265	9.62
542.464	9.64
542.663	9.66
542.862	9.74
543.06	9.8
543.259	9.82
543.458	9.89
543.657	9.96
543.856	10.04
544.054	10.06
544.253	10.09
544.452	10.14
544.651	10.13
544.849	10.14
545.048	10.15
545.247	10.19
545.445	10.21
545.644	10.27
545.843	10.31
546.041	10.38
546.24	10.41
546.438	10.49
546.637	10.62
546.836	10.68
547.034	10.8
547.233	10.88
547.431	10.96
547.63	10.94
547.828	11.04
548.027	11
548.225	11.11
548.423	11.13
548.622	11.25
548.82	11.24
549.019	11.31
549.217	11.27
549.415	11.3
549.614	11.39
549.812	11.44
550.01	11.53
550.209	11.71
550.407	11.77
550.605	11.71
550.803	11.76
551.002	11.8
551.2	11.83
551.398	11.93
551.596	12.07
551.794	12.19
551.993	12.3
552.191	12.34
552.389	12.38
552.587	12.46
552.785	12.5
552.983	12.52
553.181	12.61
553.379	12.69
553.577	12.75
553.775	12.83
553.973	12.97
554.171	13.03
554.369	13.13
554.567	13.19
554.765	13.29
554.963	13.35
555.161	13.5
555.359	13.61
555.557	13.72
555.755	13.92
555.952	13.99
556.15	14.07
556.348	14.17
556.546	14.29
556.744	14.27
556.941	14.36
557.139	14.43
557.337	14.52
557.535	14.59
557.732	14.74
557.93	14.84
558.128	14.92
558.325	14.98
558.523	15.07
558.721	15.07
558.918	15.2
559.116	15.36
559.313	15.49
559.511	15.64
559.708	15.83
559.906	15.97
560.104	16.01
560.301	16.11
560.498	16.19
560.696	16.24
560.893	16.32
561.091	16.43
561.288	16.57
561.486	16.67
561.683	16.82
561.88	16.84
562.078	17
562.275	17.11
562.473	17.18
562.67	17.25
562.867	17.44
563.064	17.52
563.262	17.57
563.459	17.73
563.656	17.84
563.853	17.96
564.051	18.11
564.248	18.22
564.445	18.36
564.642	18.49
564.839	18.57
565.036	18.72
565.234	18.82
565.431	18.97
565.628	19.14
565.825	19.25
566.022	19.2
566.219	19.32
566.416	19.37
566.613	19.35
566.81	19.45
567.007	19.62
567.204	19.73
567.401	19.73
567.598	19.89
567.795	19.96
567.991	20.03
568.188	20.12
568.385	20.22
568.582	20.32
568.779	20.43
568.976	20.43
569.172	20.49
569.369	20.57
569.566	20.62
569.763	20.68
569.96	20.84
570.156	20.92
570.353	20.99
570.55	21.02
570.746	20.99
570.943	21.05
571.14	21.09
571.336	21.15
571.533	21.19
571.729	21.41
571.926	21.47
572.123	21.5
572.319	21.57
572.516	21.69
572.712	21.67
572.909	21.7
573.105	21.83
573.302	21.83
573.498	21.82
573.695	21.83
573.891	21.79
574.087	21.67
574.284	21.68
574.48	21.75
574.677	21.73
574.873	21.83
575.069	22.01
575.266	22.03
575.462	22.06
575.658	22.1
575.854	22.1
576.051	22.04
576.247	22.05
576.443	22.11
576.639	22.13
576.835	22.12
577.032	22.15
577.228	22.15
577.424	22.08
577.62	22.18
577.816	22.16
578.012	22.2
578.208	22.21
578.404	22.27
578.6	22.19
578.796	22.18
578.993	22.17
579.189	22.2
579.384	22.2
579.58	22.18
579.776	22.27
579.972	22.29
580.168	22.26
580.364	22.31
580.56	22.31
580.756	22.26
580.952	22.21
581.148	22.26
581.343	22.21
581.539	22.28
581.735	22.21
581.931	22.2
582.127	22.1
582.322	22.03
582.518	21.92
582.714	22.02
582.909	22.02
583.105	22.08
583.301	22.13
583.496	22.16
583.692	22.08
583.888	22.08
584.083	22.06
584.279	22.02
584.474	21.98
584.67	22.04
584.866	22.02
585.061	21.97
585.257	21.94
585.452	21.93
585.648	21.91
585.843	21.93
586.039	22.05
586.234	22.01
586.429	22.02
586.625	22
586.82	22.03
587.015	21.93
587.211	21.94
587.406	22.03
587.601	22.02
587.797	21.94
587.992	21.92
588.187	21.92
588.383	21.89
588.578	21.9
588.773	21.93
588.968	22.01
589.163	22.12
589.359	22.07
589.554	22
589.749	22
589.944	21.94
590.139	21.84
590.334	21.91
590.529	22.04
590.724	22.19
590.919	22.23
591.114	22.38
591.309	22.49
591.504	22.49
591.699	22.35
591.894	22.38
592.089	22.38
592.284	22.37
592.479	22.45
592.674	22.58
592.869	22.65
593.064	22.73
593.259	22.77
593.454	22.7
593.648	22.73
593.843	22.82
594.038	22.83
594.233	22.92
594.428	23.11
594.622	23.3
594.817	23.44
595.012	23.53
595.206	23.59
595.401	23.63
595.596	23.53
595.79	23.56
595.985	23.58
596.18	23.67
596.374	23.81
596.569	23.99
596.763	24.03
596.958	24.21
597.153	24.23
597.347	24.26
597.542	24.26
597.736	24.33
597.931	24.33
598.125	24.48
598.319	24.57
598.514	24.67
598.708	24.72
598.903	24.85
599.097	24.72
599.291	24.78
599.486	24.82
599.68	24.9
599.874	24.88
600.069	25.13
600.263	25.11
600.457	25.15
600.651	25.19
600.846	25.22
601.04	25.13
601.234	25.25
601.428	25.32
601.622	25.34
601.817	25.42
602.011	25.41
602.205	25.4
602.399	25.42
602.593	25.52
602.787	25.52
602.981	25.59
603.175	25.6
603.369	25.58
603.563	25.48
603.757	25.53
603.951	25.63
604.145	25.56
604.339	25.54
604.533	25.55
604.727	25.49
604.921	25.32
605.115	25.31
605.309	25.31
605.502	25.29
605.696	25.31
605.89	25.3
606.084	25.3
606.278	25.22
606.471	25.15
606.665	25.04
606.859	25.02
607.053	24.93
607.246	24.91
607.44	24.82
607.634	24.78
607.827	24.83
608.021	24.7
608.214	24.66
608.408	24.63
608.602	24.57
608.795	24.36
608.989	24.37
609.182	24.21
609.376	24.29
609.569	24.2
609.763	24.13
609.956	24.02
610.15	24.04
610.343	23.9
610.537	23.85
610.73	23.94
610.923	23.95
611.117	23.86
611.31	23.76
611.504	23.69
611.697	23.56
611.89	23.47
612.083	23.38
612.277	23.25
612.47	23.21
612.663	23.14
612.856	23.03
613.05	22.91
613.243	22.91
613.436	22.8
613.629	22.71
613.822	22.7
614.015	22.62
614.209	22.5
614.402	22.49
614.595	22.43
614.788	22.35
614.981	22.26
615.174	22.16
615.367	22.02
615.56	21.92
615.753	21.82
615.946	21.82
616.139	21.77
616.332	21.63
616.525	21.53
616.718	21.42
616.911	21.38
617.103	21.36
617.296	21.44
617.489	21.36
617.682	21.39
617.875	21.46
618.067	21.42
618.26	21.37
618.453	21.37
618.646	21.36
618.838	21.14
619.031	21.05
619.224	21.01
619.417	21
619.609	20.81
619.802	20.82
619.994	20.78
620.187	20.72
620.38	20.62
620.572	20.72
620.765	20.72
620.957	20.7
621.15	20.62
621.342	20.58
621.535	20.5
621.727	20.36
621.92	20.39
622.112	20.4
622.305	20.4
622.497	20.33
622.69	20.35
622.882	20.18
623.074	20.15
623.267	20.14
623.459	20.2
623.651	20.17
623.844	20.21
624.036	20.22
624.228	20.16
624.42	20.08
624.613	20.12
624.805	20.13
624.997	20.04
625.189	20.05
625.381	20.03
625.574	19.95
625.766	19.87
625.958	19.82
626.15	19.8
626.342	19.77
626.534	19.68
626.726	19.66
626.918	19.63
627.11	19.56
627.302	19.5
627.494	19.52
627.686	19.54
627.878	19.53
628.07	19.45
628.262	19.35
628.454	19.25
628.646	19.18
628.838	19.06
629.029	19.1
629.221	19.18
629.413	19.18
629.605	19.14
629.797	19.1
629.989	19.01
630.18	18.87
630.372	18.86
630.564	18.8
630.755	18.8
630.947	18.8
631.139	18.78
631.33	18.7
631.522	18.71
631.714	18.64
631.905	18.62
632.097	18.59
632.289	18.58
632.48	18.57
632.672	18.54
632.863	18.49
633.055	18.53
633.246	18.4
633.438	18.27
633.629	18.24
633.821	18.24
634.012	18.12
634.203	18.27
634.395	18.29
634.586	18.27
634.777	18.27
634.969	18.25
635.16	18.16
635.351	18.17
635.543	18.22
635.734	18.15
635.925	18.16
636.117	18.11
636.308	18.14
636.499	18.01
636.69	18.01
636.881	18.05
637.073	18.09
637.264	18.01
637.455	18.05
637.646	18.05
637.837	17.95
638.028	17.93
638.219	17.92
638.41	17.87
638.601	17.84
638.792	17.79
638.983	17.76
639.174	17.76
639.365	17.79
639.556	17.77
639.747	17.83
639.938	17.83
640.129	17.86
640.32	17.84
640.511	17.91
640.701	17.89
640.892	17.81
641.083	17.71
641.274	17.62
641.465	17.48
641.655	17.54
641.846	17.6
642.037	17.52
642.228	17.59
642.418	17.61
642.609	17.5
642.8	17.37
642.99	17.35
643.181	17.38
643.372	17.3
643.562	17.28
643.753	17.29
643.943	17.32
644.134	17.21
644.324	17.12
644.515	17.11
644.705	17.08
644.896	17.04
645.086	16.95
645.277	16.98
645.467	17.02
645.658	17.01
645.848	16.99
646.038	17.01
646.229	17.07
646.419	16.94
646.61	16.84
646.8	16.85
646.99	16.86
647.18	16.77
647.371	16.7
647.561	16.74
647.751	16.68
647.941	16.62
648.132	16.59
648.322	16.56
648.512	16.53
648.702	16.49
648.892	16.44
649.082	16.47
649.272	16.51
649.462	16.5
649.653	16.51
649.843	16.55
650.033	16.52
650.223	16.5
650.413	16.51
650.603	16.48
650.793	16.34
650.983	16.26
651.172	16.25
651.362	16.09
651.552	16.07
651.742	16.08
651.932	16.06
652.122	15.96
652.312	16.04
652.502	15.93
652.691	15.79
652.881	15.73
653.071	15.62
653.261	15.49
653.45	15.42
653.64	15.46
653.83	15.36
654.019	15.29
654.209	15.14
654.399	15.06
654.588	15.03
654.778	14.92
654.968	14.79
655.157	14.72
655.347	14.52
655.536	14.25
655.726	14.07
655.915	14.08
656.105	13.91
656.294	13.85
656.484	13.75
656.673	13.62
656.863	13.43
657.052	13.34
657.241	13.22
657.431	13.06
657.62	13.03
657.809	12.75
657.999	12.57
658.188	12.41
658.377	12.3
658.567	12.05
658.756	11.86
658.945	11.8
659.134	11.62
659.324	11.45
659.513	11.26
659.702	11.19
659.891	11.01
660.08	10.84
660.269	10.61
660.458	10.49
660.648	10.36
660.837	10.17
661.026	10.1
661.215	10.05
661.404	9.93
661.593	9.79
661.782	9.65
661.971	9.43
662.16	9.24
662.349	9.02
662.538	8.84
662.726	8.61
662.915	8.53
663.104	8.4
663.293	8.45
663.482	8.42
663.671	8.45
663.86	8.34
664.048	8.24
664.237	8.02
664.426	7.97
664.615	7.88
664.803	7.75
664.992	7.63
665.181	7.62
665.369	7.51
665.558	7.41
665.747	7.4
665.935	7.42
666.124	7.4
666.312	7.28
666.501	7.15
666.69	7.09
666.878	6.99
667.067	6.83
667.255	6.81
667.444	6.82
667.632	6.82
667.82	6.81
668.009	6.85
668.197	6.84
668.386	6.85
668.574	6.77
668.762	6.71
668.951	6.66
669.139	6.62
669.327	6.54
669.516	6.54
669.704	6.52
669.892	6.53
670.08	6.49
670.269	6.49
670.457	6.45
670.645	6.47
670.833	6.44
671.021	6.49
671.21	6.59
671.398	6.63
671.586	6.66
671.774	6.71
671.962	6.74
672.15	6.71
672.338	6.74
672.526	6.8
672.714	6.8
672.902	6.77
673.09	6.78
673.278	6.78
673.466	6.78
673.654	6.87
673.842	6.97
674.03	7.11
674.218	7.21
674.405	7.28
674.593	7.28
674.781	7.29
674.969	7.26
675.157	7.24
675.344	7.24
675.532	7.42
675.72	7.56
675.908	7.59
676.095	7.66
676.283	7.84
676.471	7.83
676.658	7.91
676.846	8.04
677.033	8.13
677.221	8.14
677.409	8.16
677.596	8.12
677.784	8.13
677.971	8.25
678.159	8.27
678.346	8.38
678.534	8.55
678.721	8.62
678.909	8.69
679.096	8.87
679.283	8.75
679.471	8.77
679.658	8.83
679.846	8.93
680.033	8.96
680.22	9.26
680.408	9.34
680.595	9.48
680.782	9.48
680.969	9.51
681.157	9.64
681.344	9.76
681.531	9.92
681.718	10.06
681.905	10.18
682.093	10.45
682.28	10.69
682.467	10.72
682.654	11.01
682.841	11.23
683.028	11.19
683.215	11.27
683.402	11.5
683.589	11.61
683.776	11.93
683.963	12.14
684.15	12.39
684.337	12.69
684.524	13.08
684.711	13.14
684.898	13.39
685.085	13.67
685.271	13.87
685.458	13.92
685.645	14.32
685.832	14.53
686.019	14.75
686.205	15.04
686.392	15.21
686.579	15.45
686.766	15.67
686.952	15.97
687.139	16.4
687.326	16.92
687.512	17.26
687.699	17.87
687.886	18.29
688.072	18.51
688.259	18.87
688.445	19.27
688.632	19.64
688.818	20.21
689.005	20.7
689.191	21.17
689.378	21.72
689.564	22.12
689.751	22.61
689.937	23.15
690.124	23.73
690.31	24.23
690.496	24.86
690.683	25.33
690.869	25.95
691.055	26.54
691.242	27.1
691.428	27.62
691.614	28.16
691.8	28.79
691.987	29.45
692.173	29.97
692.359	30.76
692.545	31.27
692.731	31.85
692.918	32.38
693.104	33.23
693.29	33.71
693.476	34.48
693.662	35.04
693.848	35.54
694.034	35.97
694.22	36.59
694.406	37.15
694.592	37.74
694.778	38.73
694.964	39.48
695.15	40.02
695.336	40.5
695.522	41.16
695.708	41.65
695.894	42.01
696.08	42.66
696.265	43.37
696.451	43.81
696.637	44.1
696.823	44.83
697.009	45.57
697.194	46.14
697.38	46.79
697.566	47.58
697.751	48.04
697.937	48.61
698.123	49.35
698.308	50.11
698.494	50.6
698.68	51.25
698.865	51.57
699.051	51.85
699.236	52.14
699.422	52.6
699.607	53.08
699.793	53.6
699.978	54.11
700.164	54.67
700.349	54.74
700.535	55.28
700.72	55.43
700.906	55.89
701.091	56.04
701.276	56.8
701.462	57.2
701.647	57.97
701.832	58.49
702.018	59.06
702.203	59.61
702.388	59.94
702.573	60.29
702.759	60.11
702.944	60.7
703.129	61.01
703.314	61.21
703.499	61.48
703.684	61.94
703.87	62.13
704.055	62.38
704.24	62.58
704.425	62.78
704.61	63.34
704.795	63.5
704.98	63.83
705.165	64.37
705.35	64.73
705.535	64.91
705.72	65.14
705.905	65.39
706.09	65.58
706.275	65.89
706.459	66.21
706.644	66.62
706.829	67.17
707.014	67.51
707.199	67.81
707.384	67.97
707.568	68.24
707.753	68.33
707.938	68.29
708.123	68.31
708.307	68.78
708.492	69
708.677	68.73
708.861	69.35
709.046	69.59
709.231	69.81
709.415	69.75
709.6	70.26
709.784	70.49
709.969	70.65
710.153	70.67
710.338	71.06
710.522	71.11
710.707	71
710.891	71.17
711.076	71.27
711.26	71.42
711.445	71.65
711.629	71.67
711.813	71.58
711.998	71.61
712.182	72.11
712.366	72.16
712.551	72.51
712.735	72.89
712.919	73.16
713.103	72.88
713.288	72.97
713.472	72.89
713.656	73.3
713.84	73.5
714.024	73.97
714.208	74.1
714.393	74.41
714.577	74.54
714.761	74.97
714.945	74.88
715.129	75
715.313	75.22
715.497	75
715.681	74.64
715.865	74.71
716.049	75.35
716.233	75.38
716.417	75.63
716.601	75.69
716.785	75.58
716.968	75.03
717.152	74.79
717.336	74.5
717.52	74.77
717.704	74.95
717.888	75.28
718.071	75.69
718.255	76.09
718.439	75.92
718.622	75.55
718.806	75.57
718.99	75.42
719.174	75.38
719.357	75.66
719.541	76.5
719.724	76.71
719.908	76.79
720.092	76.82
720.275	76.62
720.459	76.39
720.642	75.99
720.826	75.71
721.009	76.1
721.193	76.22
721.376	76.23
721.559	76.27
721.743	76.93
721.926	76.98
722.11	77.34
722.293	77.81
722.476	78.06
722.66	77.75
722.843	77.76
723.026	77.57
723.21	77.23
723.393	77.34
723.576	77.83
723.759	77.67
723.942	77.74
724.126	77.89
724.309	78.44
724.492	78.28
724.675	78.77
724.858	78.84
725.041	78.18
725.224	78.14
725.407	78.62
725.59	78.24
725.774	78.23
725.957	79.06
726.14	79
726.322	78.98
726.505	79.5
726.688	79.78
726.871	79.54
727.054	79.41
727.237	79.12
727.42	79.1
727.603	79.18
727.786	79.45
727.968	79.47
728.151	80.02
728.334	79.88
728.517	80.37
728.699	79.99
728.882	80.2
729.065	79.79
729.248	79.84
729.43	79.3
729.613	79.55
729.796	79.86
729.978	79.95
730.161	79.97
730.343	80.63
730.526	80.49
730.708	79.69
730.891	79.71
731.073	79.68
731.256	79.53
731.438	80.08
731.621	80.89
731.803	80.76
731.986	81.06
732.168	80.88
732.35	80.5
732.533	80.13
732.715	80.73
732.898	80.6
733.08	80.56
733.262	81.01
733.444	81.6
733.627	81.38
733.809	81.5
733.991	81.95
734.173	81.3
734.355	81.05
734.538	81.1
734.72	81.49
734.902	81.16
735.084	82.03
735.266	82.52
735.448	81.95
735.63	82.05
735.812	82.06
735.994	82.4
736.176	82.45
736.358	83.7
736.54	83.47
736.722	83.62
736.904	83.15
737.086	83.27
737.268	82.51
737.45	82.06
737.632	81.55
737.814	81.19
737.995	81.23
738.177	81.33
738.359	82.27
738.541	82.66
738.723	84.07
738.904	82.91
739.086	82.87
739.268	82.53
739.449	82.67
739.631	82.25
739.813	83.45
739.994	84.53
740.176	84.75
740.358	84.76
740.539	84.72
740.721	84.09
740.902	83
741.084	82.9
741.265	83.79
741.447	83.36
741.628	83.38
741.81	85.13
741.991	85.13
742.172	84.91
742.354	85.26
742.535	85.58
742.717	84.17
742.898	84.35
743.079	84.33
743.261	84.04
743.442	84.36
743.623	84.41
743.804	83.91
743.986	84.42
744.167	84.94
744.348	84.32
744.529	83.96
744.71	84.28
744.891	83.18
745.073	82.93
745.254	82.93
745.435	83.39
745.616	82.99
745.797	83.06
745.978	82.95
746.159	83.12
746.34	83.01
746.521	83.21
746.702	83.59
746.883	83.77
747.064	84.01
747.245	84.35
747.426	84.53
747.606	84.29
747.787	84.28
747.968	83.66
748.149	83.9
748.33	83.97
748.51	84.47
748.691	85.12
748.872	86.23
749.053	85.35
749.233	85.07
749.414	84.43
749.595	82.44
749.775	82.62
749.956	83.76
750.137	84.2
750.317	84.26
750.498	85.17
750.678	84.53
750.859	83.69
751.04	83.55
751.22	82.96
751.4	83.27
751.581	82.7
751.761	82.11
751.942	82.14
752.122	82.55
752.303	82.56
752.483	83.27
752.663	84.1
752.844	84.57
753.024	85
753.204	84.96
753.385	84.77
753.565	83.69
753.745	83.46
753.925	82.88
754.106	82.79
754.286	81.31
754.466	81.51
754.646	80.52
754.826	80.35
755.006	80.4
755.187	81.27
755.367	81.45
755.547	81.51
755.727	81.19
755.907	81.51
756.087	82.29
756.267	82.89
756.447	82.69
756.627	83.27
756.807	82.38
756.987	81.91
757.167	82.23
757.346	83.51
757.526	83.01
757.706	83.53
757.886	82.81
758.066	81
758.246	79.87
758.425	80.45
758.605	80.75
758.785	81.73
758.965	83.13
759.144	82.88
759.324	81.78
759.504	80.99
759.683	80.47
759.863	79.91
760.043	80.4
760.222	81.06
760.402	82.44
760.581	82.68
760.761	83.12
760.94	82.5
761.12	83.08
761.299	82.75
761.479	82.46
761.658	82.39
761.838	82.1
762.017	82.05
762.197	82.12
762.376	83.24
762.555	82.03
762.735	81.85
762.914	81.72
763.093	80.67
763.273	79.34
763.452	80.11
763.631	81.32
763.81	82.77
763.99	82.99
764.169	82.92
764.348	83.04
764.527	81.67
764.706	79.19
764.885	79.85
765.064	79.56
765.243	79.69
765.423	81.65
765.602	81.74
765.781	79.61
765.96	78.62
766.139	79.96
766.318	79.05
766.497	78.87
766.676	80.78
766.854	83.17
767.033	81.3
767.212	80.93
767.391	81.79
767.57	81.13
767.749	79.69
767.928	79.7
768.106	79.08
768.285	78.97
768.464	78.2
768.643	78.17
768.821	78.47
769	79.78
769.179	79.68
769.357	79.09
769.536	79.9
769.715	79.32
769.893	79.35
770.072	79.54
770.25	80.78
770.429	80.14
770.607	80.78
770.786	79.75
770.964	78.89
771.143	78.59
771.321	79.05
771.5	78.63
771.678	79.4
771.857	79.39
772.035	79.39
772.213	77.73
772.392	76.85
772.57	76.67
772.748	77.5
772.927	76.63
773.105	77.69
773.283	79.38
773.461	79.53
773.64	78.75
773.818	80.22
773.996	79.35
774.174	78.95
774.352	77.95
774.531	77.19
774.709	77.26
774.887	78.25
775.065	76.54
775.243	77.03
775.421	78.27
775.599	78.13
775.777	77.99
775.955	79.61
776.133	79.61
776.311	79.32
776.489	79.52
776.667	80.62
776.844	81.17
777.022	80.82
777.2	80.04
777.378	78.14
777.556	77.05
777.734	77.46
777.911	77.36
778.089	77.23
778.267	78.33
778.445	79.98
778.622	78.56
778.8	77.44
778.978	80.42
779.155	79.96
779.333	77.93
779.511	78.24
779.688	79.06
779.866	77.94
780.043	76.98
780.221	77.71
780.398	78.32
780.576	77.96
780.753	76.14
780.931	78.57
781.108	77.15
781.286	77.4
781.463	78.44
781.64	80.82
781.818	79.12
781.995	80.43
782.172	78.82
782.35	80.46
782.527	78.37
782.704	78.04
782.882	77.91
783.059	75.82
783.236	73.58
783.413	75.02
783.59	75.94
783.768	78.65
783.945	83.08
784.122	82.71
784.299	81.83
784.476	82.33
784.653	77.09
784.83	75.48
785.007	74.66
785.184	74.29
785.361	74.49
785.538	75.53
785.715	76.11
785.892	78.79
786.069	78.31
786.246	78.09
786.423	75.97
786.6	75.42
786.776	73.02
786.953	71.35
787.13	72.45
787.307	74.99
787.484	72.49
787.66	75.17
787.837	80.02
788.014	80.22
788.191	80.56
788.367	82.54
788.544	78.54
788.721	77.15
788.897	71.88
789.074	73.02
789.25	72.15
789.427	76.12
789.603	76.51
789.78	78.4
789.956	74.66
790.133	76.37
790.309	74.52
790.486	73.74
790.662	76.03
790.839	78.46
791.015	78.84
791.192	83.1
791.368	81.45
791.544	80.3
791.721	79.97
791.897	79.54
792.073	76.22
792.249	78.8
792.426	75.17
792.602	74.74
792.778	73.83
792.954	70.8
793.13	68.17
793.307	71.83
793.483	71.58
793.659	70.06
793.835	71.51
794.011	70.55
794.187	72.74
794.363	72.39
794.539	72.3
794.715	71.71
794.891	69.55
795.067	65.83
795.243	67.76
795.419	70.96
795.595	71.01
795.771	72.25
795.947	74.68
796.122	76.03
796.298	72.94
796.474	69.64
796.65	70.63
796.826	69.38
797.001	63.93
797.177	65.72
797.353	71.88
797.529	75.39
797.704	74.07
797.88	77.6
798.056	74.93
798.231	76.21
798.407	75.2
798.582	73.85
798.758	69.9
798.934	75.99
799.109	73.73
799.285	73.79
799.46	77.18
799.636	77.53
799.811	76.61
799.986	76.29
800.162	73.43
800.337	71.51
800.513	77.91
800.688	76.46
800.863	77.86
801.039	79.04
801.214	80.75
801.389	76.75
801.565	74.86
801.74	74.32
801.915	70.28
802.09	70.66
802.265	71.24
802.441	75.09
802.616	74.11
802.791	79.64
802.966	76.81
803.141	74.78
803.316	67.71
803.491	66.09
803.666	66.82
803.841	67.46
804.016	68.4
804.191	73.79
804.366	72.13
804.541	73.04
804.716	71.33
804.891	70.77
805.066	67.81
805.241	73.85
805.416	70.18
805.591	71.81
805.765	70.86
805.94	69.72
806.115	69.78
806.29	67.4
806.464	64.3
806.639	66.1
806.814	66.56
806.989	65.93
807.163	69.61
807.338	74.2
807.512	76.78
807.687	83.61
807.862	81.97
808.036	82.15
808.211	83.6
808.385	86.16
808.56	81.22
808.734	70.9
808.909	72.59
809.083	74.32
809.258	66.24
809.432	66.13
809.606	73.01
809.781	69.13
809.955	65.86
810.13	70.71
810.304	67.39
810.478	72.62
810.652	75.08
810.827	74.78
811.001	74.48
811.175	71.38
811.349	75.63
811.524	74.29
811.698	71.39
811.872	71.59
812.046	79.61
812.22	73.65
812.394	81.1
812.568	89.54
812.742	91.67
812.916	86.48
813.09	92.28
813.264	86.1
813.438	83.87
813.612	77.12
813.786	77.89
813.96	75.82
814.134	73.09
814.308	72.96
814.482	76.18
814.656	72.86
814.83	70.19
815.003	65.79
815.177	67.12
815.351	63.58
815.525	63.43
815.698	60.59
815.872	68.9
816.046	63.01
816.219	61.59
816.393	64.4
816.567	71.1
816.74	68.22
816.914	74.41
817.088	79.14
817.261	88.13
817.435	85.72
817.608	90.28
817.782	93.54
817.955	88.71
818.129	78.99
818.302	75.66
818.475	73.43
818.649	64.29
818.822	71.74
818.996	80.13
819.169	79.61
819.342	83.6
819.516	85.99
819.689	88.5
819.862	81.88
820.035	89.59
820.209	82.6
820.382	84.06
820.555	84.22
820.728	84.29
820.901	70.22
821.075	78.83
821.248	72.51
821.421	69.45
821.594	71.73
821.767	78.25
821.94	70.12
822.113	78.84
822.286	76
822.459	78.11
822.632	82.92
822.805	93.08
822.978	89.19
823.151	88.7
823.324	85.5
823.496	73.55
823.669	65.96
823.842	60.18
824.015	63.48
824.188	67.04
824.361	85.66
824.533	96.12
824.706	105.72
824.879	89.3
825.051	91.16
825.224	80.55
825.397	82.79
825.569	82.73
825.742	95.88
825.915	84.56
826.087	87.77
826.26	76.16
826.432	63.49
826.605	47.12
826.777	55.2
826.95	54.5
827.122	57.53
827.295	60.94
827.467	64
827.64	58.03
827.812	58.97
827.984	60.43
828.157	58.97
828.329	61.23
828.501	66.5
828.674	68.23
828.846	73.49
829.018	71.06
829.19	73.21
829.363	68.24
829.535	48.02
829.707	39.07
829.879	61.86
830.051	59.84
830.223	71.1
830.395	102.42
830.568	92.39
830.74	80.88
830.912	75.53
831.084	64.27
831.256	53.1
831.428	55.77
831.6	64.83
831.772	75.1
831.943	79.29
832.115	83.16
832.287	93.23
832.459	90.18
832.631	81.75
832.803	90.9
832.975	91.63
833.146	71.5
833.318	65.24
833.49	67.92
833.662	69.34
833.833	67.36
834.005	83.19
834.177	89.59
834.348	78.18
834.52	66.71
834.692	72.41
834.863	61.75
835.035	66.7
835.206	78.02
835.378	82.81
835.549	79.84
835.721	77.48
835.892	76.19
836.064	75.9
836.235	75.06
836.407	75.74
836.578	85.77
836.749	74.89
836.921	69.83
837.092	72.43
837.264	76.78
837.435	71.96
837.606	77.56
837.777	82.26
837.949	82.57
838.12	82.43
838.291	85.06
838.462	115.35
838.633	111.08
838.805	85.85
838.976	100.47
839.147	76.74
839.318	66.06
839.489	84.67
839.66	100.56
839.831	89.76
840.002	101.25
840.173	118.56
840.344	97.16
840.515	75.9
840.686	65.68
840.857	82.28
841.028	61.06
841.199	40.93
841.369	54.55
841.54	70.89
841.711	74.16
841.882	81.17
842.053	86.68
842.223	83.2
842.394	81.78
842.565	83.65
842.736	67.96
842.906	65.52
843.077	71.91
843.248	40.37
843.418	40.66
843.589	52.86
843.759	43.7
843.93	44.08
844.101	88.98
844.271	70.73
844.442	67.75
844.612	71.13
844.783	68.79
844.953	49.1
845.123	54.42
845.294	81.97
845.464	65.12
845.635	70.58
845.805	68.89
845.975	76.62
846.146	48.82
846.316	70.63
846.486	54.92
846.656	49.35
846.827	30.9
846.997	36.02
847.167	23.98
847.337	36.43
847.507	46.41
847.677	79.61
847.848	95.94
848.018	120.52
848.188	114.28
848.358	113.62
848.528	73.37
848.698	48.88
848.868	38.49
849.038	47.05
849.208	54.42
849.378	64.39
849.548	83.35
849.718	57.75
849.887	61.41
850.057	58.34
850.227	58.67
850.397	55.49
850.567	76.6
850.737	105.93
850.906	88.58
851.076	96.99
851.246	116
851.415	100.47
851.585	72.84
851.755	172.72
851.924	114.86
852.094	81.07
852.264	70.21
852.433	55.76
852.603	34.82
852.772	44.1
852.942	64.89
853.111	72.01
853.281	88.98
853.45	79.32
853.62	83.97
853.789	61.8
853.959	61.45
854.128	53.71
854.297	56.23
854.467	44.17
854.636	53.38
854.805	-3.34
854.975	-11.75
855.144	16.04
855.313	29.84
855.482	70.26
855.652	100.4
855.821	88.74
855.99	76.72
856.159	75.35
856.328	48.78
856.497	52.9
856.667	86.34
856.836	128.89
857.005	127.6
857.174	191.08
857.343	143.44
857.512	133.51
857.681	117.41
857.85	117.75
858.019	81.24
858.188	72.49
858.356	40.46
858.525	14.06
858.694	-1.99
858.863	30.14
859.032	51.75
859.201	33.44
859.369	76.47
859.538	125.33
859.707	92.53
859.876	79.6
860.044	123.35
860.213	99.31
860.382	49.71
860.55	78.22
860.719	93.96
860.888	116.41
861.056	122.38
861.225	142.95
861.393	163.64
861.562	151.23
861.73	131.82
861.899	100.52
862.067	86.54
862.236	54.92
862.404	65.55
862.572	45.84
862.741	43.44
862.909	60.88
863.078	52
863.246	50.76
863.414	62.6
863.582	84.21
863.751	75.68
863.919	83.55
864.087	97.05
864.255	93.37
864.424	84.73
864.592	101.61
864.76	137.86
864.928	92.93
865.096	93.37
865.264	97.84
865.432	72.05
865.6	91.1
865.768	70.4
865.936	89.28
866.104	111.53
866.272	107.41
866.44	84.13
866.608	86.92
866.776	68.83
866.944	50.84
867.112	40.08
867.28	77.05
867.448	67.13
867.615	62.73
867.783	45.63
867.951	53.84
868.119	40.07
868.286	41.35
868.454	54.99
868.622	69.43
868.789	73.9
868.957	106.85
869.125	105.52
869.292	121.79
869.46	109.74
869.627	124.81
869.795	83.4
869.963	111.28
870.13	100.96
870.298	108.19
870.465	83.16
870.632	90.14
870.8	84.43
870.967	76.15
871.135	66.52
871.302	21.28
871.469	28.98
871.637	28.33
871.804	-17.35
871.971	-2.71
872.139	6.79
872.306	-9.4
872.473	25.45
872.64	44.67
872.807	50.4
872.975	52.12
873.142	35.33
873.309	21.19
873.476	56.43
873.643	28.25
873.81	21.32
873.977	45.57
874.144	38.52
874.311	34.14
874.478	63.59
874.645	69.54
874.812	67.83
874.979	104.98
875.146	85.11
875.313	74.52
875.48	95.89
875.647	102.33
875.813	78.92
875.98	79.26
876.147	73.34
876.314	54.39
876.481	45.61
876.647	38.95
876.814	56.77
876.981	71.17
877.147	97.08
877.314	91.91
877.481	165.78
877.647	169.23
877.814	116.43
877.98	77.44
878.147	101.93
878.314	29.78
878.48	-0.81
878.647	26.68
878.813	42.2
878.979	44.19
879.146	57.95
879.312	56.79
879.479	48.55
879.645	37.35
879.811	23.33
879.978	27.04
880.144	47.71
880.31	25.2
880.477	43.18
880.643	43.02
880.809	-47.61
880.975	-1.39
881.142	19.79
881.308	44.15
881.474	47.43
881.64	48.35
881.806	61.28
881.972	33.33
882.138	-20.12
882.304	86.63
882.47	85.95
882.636	69.58
882.802	87.93
882.968	33.04
883.134	-9.68
883.3	23.8
883.466	38.82
883.632	31.8
883.798	68.58
883.964	86.14
884.129	75.76
884.295	55.6
884.461	62.29
884.627	51.15
884.793	-8.77
884.958	-68.58
885.124	29.97
885.29	-1.23
885.455	25.35
885.621	67.33
885.787	62.34
885.952	42.29
886.118	84.52
886.283	73.34
886.449	106.86
886.614	71.47
886.78	78.95
886.945	82.1
887.111	87.7
887.276	51.31
887.442	68.29
887.607	56.5
887.773	30.3
887.938	21.46
888.103	14.97
888.269	11.91
888.434	14.64
888.599	61.91
888.764	94.7
888.93	186.05
889.095	206.04
889.26	173.65
889.425	114.99
889.59	99.69
889.756	51.14
889.921	56.82
890.086	74.9
890.251	59.96
890.416	56.15
890.581	106.17
890.746	102.51
890.911	193.11
891.076	-308.39
891.241	-324.92
891.406	22.19
891.571	306.97
891.736	89.53
891.901	78.5
892.065	74.61
892.23	106.4
892.395	70.86
892.56	433.33
892.725	72.37
892.889	47.73
893.054	14.76
893.219	29.24
893.384	25.35
893.548	30.95
893.713	42.75
893.878	53.42
