Data from Ofra_PS_Phys_1GT43_Reflection_1.txt Node
Date: Tue Jul 20 17:52:23 EDT 2021
User: USUARIO
Spectrometer: FLMT01687
Trigger mode: 0
Integration Time (sec): 1.042999E0
Scans to average: 2
Electric dark correction enabled: true
Nonlinearity correction enabled: false
Boxcar width: 2
XAxis mode: Wavelengths
Number of Pixels in Spectrum: 3648
>>>>>Begin Spectral Data<<<<<
179.494	40.32
179.716	29.39
179.937	8.42
180.158	-426.09
180.38	-470.41
180.601	57.28
180.823	6.15
181.044	-273.2
181.265	-1676.74
181.486	-122.18
181.708	-38.68
181.929	-57.54
182.15	60.71
182.372	-277.46
182.593	-44.41
182.814	-23.48
183.035	2.22
183.257	36.02
183.478	25.32
183.699	47.5
183.92	51.54
184.141	36.66
184.363	25.26
184.584	51.46
184.805	60.34
185.026	73.38
185.247	88.62
185.468	86.99
185.689	69.93
185.91	62.06
186.132	48.64
186.353	35.79
186.574	56.53
186.795	89.65
187.016	98.66
187.237	79.66
187.458	39.83
187.679	22.57
187.9	8.26
188.121	-26.29
188.342	-175.95
188.563	77.38
188.784	66.62
189.005	44.35
189.226	44.52
189.447	71.83
189.667	59.92
189.888	67.85
190.109	86.45
190.33	105.81
190.551	102.63
190.772	95.82
190.993	74.96
191.214	92.45
191.434	72.49
191.655	58.04
191.876	44.27
192.097	59.22
192.318	31.63
192.538	53.42
192.759	84.64
192.98	83.84
193.201	92.24
193.421	74.64
193.642	84.73
193.863	63.92
194.083	82.11
194.304	40.87
194.525	48.36
194.745	41.13
194.966	55.3
195.187	37.46
195.407	65.16
195.628	70.2
195.848	82.15
196.069	71.67
196.29	59.62
196.51	56.47
196.731	54.43
196.951	37.03
197.172	37.06
197.392	45.6
197.613	45.27
197.833	45.68
198.054	52.98
198.274	47.6
198.495	45.02
198.715	54.52
198.936	60.39
199.156	56.19
199.377	60.07
199.597	81.44
199.817	81.9
200.038	61.12
200.258	59.61
200.479	52.27
200.699	39.73
200.919	31.64
201.14	72.91
201.36	86.97
201.58	120.35
201.801	87.3
202.021	122.2
202.241	47.58
202.461	45.77
202.682	31.03
202.902	56.5
203.122	25.68
203.342	55.81
203.563	48.85
203.783	54.17
204.003	29.7
204.223	42.08
204.443	29.3
204.663	-17.83
204.884	22.02
205.104	49.26
205.324	56.47
205.544	51.17
205.764	77.11
205.984	46.9
206.204	45.48
206.424	37.52
206.644	46.46
206.864	29.95
207.084	48.95
207.304	53.35
207.525	62.34
207.745	40.22
207.964	74.75
208.184	86.74
208.404	67.52
208.624	55.77
208.844	64.88
209.064	60.96
209.284	59.56
209.504	50.72
209.724	46.99
209.944	55.43
210.164	29.95
210.384	17.73
210.604	61.58
210.823	73.03
211.043	39.71
211.263	65.81
211.483	55.15
211.703	46.64
211.922	42.48
212.142	59.18
212.362	53.2
212.582	55.23
212.801	54.79
213.021	75.48
213.241	120.61
213.461	102.06
213.68	89.56
213.9	112.36
214.12	122.82
214.339	65.7
214.559	60.88
214.779	80.09
214.998	72.21
215.218	52.39
215.438	79.11
215.657	73.36
215.877	67.76
216.096	69.35
216.316	57.54
216.535	45.64
216.755	50
216.974	39.21
217.194	27.4
217.413	40.5
217.633	23.44
217.852	12.42
218.072	17.5
218.291	31.5
218.511	26.7
218.73	21.35
218.95	18.07
219.169	34.37
219.389	7.45
219.608	2.89
219.827	34.97
220.047	49.29
220.266	50
220.485	44.63
220.705	43.37
220.924	32.54
221.143	8.34
221.363	-19.11
221.582	18.06
221.801	20.23
222.021	19.14
222.24	19.7
222.459	42.52
222.678	-3.78
222.897	25.3
223.117	39.11
223.336	54.19
223.555	49.08
223.774	68.51
223.993	72.99
224.213	88.2
224.432	74.96
224.651	91.16
224.87	67.94
225.089	45.79
225.308	19.84
225.527	47.95
225.746	48.4
225.965	38.07
226.184	61.6
226.404	77.81
226.623	32.36
226.842	14.75
227.061	32.12
227.28	8.73
227.499	-4.49
227.718	26.16
227.936	28.64
228.155	41.08
228.374	38.63
228.593	44.78
228.812	35.28
229.031	49.8
229.25	28.51
229.469	47.81
229.688	55.99
229.907	58.46
230.125	47.95
230.344	62.71
230.563	44.65
230.782	47.45
231.001	40.53
231.22	60.9
231.438	49.16
231.657	44.28
231.876	40.13
232.095	41
232.313	52.66
232.532	51.13
232.751	66.24
232.969	76.25
233.188	85.26
233.407	61.21
233.625	74.82
233.844	67.08
234.063	48.72
234.281	50.54
234.5	42.75
234.719	54.66
234.937	59.13
235.156	86.86
235.374	69.61
235.593	87.78
235.811	73.68
236.03	52.52
236.249	-23.11
236.467	30.32
236.686	20.16
236.904	31.12
237.123	44.58
237.341	64.19
237.559	65.28
237.778	77.52
237.996	62.28
238.215	59.15
238.433	53.88
238.652	35.09
238.87	19.54
239.088	25.7
239.307	30.58
239.525	25.8
239.743	44.32
239.962	44.28
240.18	37.35
240.398	22.28
240.617	26.83
240.835	31.76
241.053	32.68
241.271	47.47
241.49	59.91
241.708	56.55
241.926	41.02
242.144	43.42
242.363	34.9
242.581	47.5
242.799	42.47
243.017	57.11
243.235	50
243.453	55.7
243.672	42.84
243.89	37.52
244.108	26.56
244.326	40.27
244.544	32.62
244.762	12.7
244.98	22.1
245.198	24.59
245.416	26.27
245.634	36.3
245.852	49.17
246.07	73.86
246.288	82.37
246.506	81.77
246.724	95.13
246.942	95.52
247.16	83.36
247.378	75.2
247.596	96.22
247.814	80.42
248.032	88.27
248.25	52.77
248.468	54.56
248.685	54.25
248.903	59.37
249.121	58.6
249.339	67.23
249.557	80.76
249.775	67.88
249.992	62.91
250.21	68.46
250.428	34.2
250.646	-2.34
250.863	26.37
251.081	11.21
251.299	23.8
251.517	41.68
251.734	75.98
251.952	52.62
252.17	92.32
252.387	42.49
252.605	29.61
252.823	32.47
253.04	33
253.258	27.5
253.475	33.63
253.693	58.62
253.911	66.83
254.128	87.98
254.346	78.15
254.563	69.03
254.781	60.98
254.998	49.89
255.216	38.83
255.433	33.11
255.651	45.12
255.868	42.09
256.086	37.22
256.303	31.59
256.521	37.54
256.738	18.46
256.956	19.32
257.173	2.75
257.39	-6
257.608	-41.76
257.825	16.35
258.043	24.81
258.26	42.16
258.477	71.86
258.695	77.94
258.912	62.23
259.129	64.54
259.346	66.83
259.564	61.11
259.781	64.58
259.998	62.84
260.216	63.36
260.433	50.91
260.65	53.24
260.867	55.03
261.084	60.35
261.302	47.19
261.519	54.96
261.736	5.91
261.953	3.81
262.17	-1.46
262.387	20.98
262.604	-22.15
262.822	13.02
263.039	-15.57
263.256	-19.57
263.473	-15.29
263.69	0.69
263.907	25.62
264.124	27.08
264.341	34.13
264.558	31.5
264.775	51.34
264.992	22.69
265.209	13.41
265.426	-2.8
265.643	0.75
265.86	-14.06
266.077	-12.27
266.294	12.39
266.51	40.15
266.727	51.65
266.944	69.22
267.161	63.12
267.378	60.48
267.595	40.9
267.812	36.91
268.028	24.49
268.245	32.71
268.462	15.99
268.679	1.62
268.896	3.14
269.112	9.46
269.329	9.74
269.546	11.93
269.763	36.2
269.979	51.07
270.196	71.7
270.413	61.99
270.629	54.46
270.846	56.2
271.063	42.51
271.279	38.05
271.496	49.23
271.712	65.65
271.929	54.96
272.146	58.89
272.362	52.23
272.579	41.66
272.795	17.07
273.012	31.04
273.228	41.7
273.445	36.76
273.661	51.1
273.878	53.93
274.094	48.85
274.311	31.36
274.527	34.39
274.744	14.72
274.96	20.74
275.177	19.14
275.393	20.73
275.609	20.49
275.826	43.62
276.042	34.75
276.259	35.34
276.475	48.95
276.691	53.11
276.908	40.45
277.124	51.25
277.34	36.2
277.557	26.26
277.773	20.04
277.989	13.93
278.205	7.81
278.422	35.48
278.638	32.23
278.854	31.11
279.07	42.18
279.286	49.2
279.503	34.79
279.719	42.13
279.935	35.02
280.151	54.38
280.367	44.7
280.583	41.08
280.799	53.86
281.016	40.46
281.232	21.87
281.448	1.96
281.664	23.69
281.88	4.59
282.096	10.57
282.312	24.08
282.528	48.98
282.744	44.77
282.96	61.24
283.176	60.5
283.392	49.82
283.608	36.76
283.824	29.04
284.04	23.57
284.256	28.76
284.471	12.63
284.687	31.81
284.903	48.95
285.119	55.26
285.335	42.57
285.551	80.98
285.767	62.87
285.982	76.85
286.198	72.57
286.414	56.07
286.63	43.59
286.846	50.77
287.061	29.14
287.277	38.61
287.493	46.01
287.709	55.16
287.924	73.77
288.14	103.95
288.356	88.45
288.571	88.33
288.787	81.34
289.003	70.93
289.218	75.41
289.434	67.93
289.65	63.77
289.865	44.77
290.081	61.43
290.296	45.27
290.512	51.98
290.727	54.24
290.943	53.24
291.159	29.91
291.374	-12.26
291.59	-18.8
291.805	-22.86
292.021	-7.79
292.236	34.75
292.451	44.26
292.667	58.07
292.882	65.87
293.098	67.31
293.313	66.34
293.529	90.06
293.744	67.99
293.959	32.87
294.175	9.85
294.39	-23.67
294.605	-19.27
294.821	-12.79
295.036	0.37
295.251	42.38
295.467	40.01
295.682	43.38
295.897	46.5
296.112	35.86
296.328	29.62
296.543	45.02
296.758	37.87
296.973	37.3
297.188	53.77
297.404	58.56
297.619	53.84
297.834	68.05
298.049	72.74
298.264	50.48
298.479	44.56
298.694	49.75
298.909	21.32
299.125	44.15
299.34	57.99
299.555	48.7
299.77	43.27
299.985	55.27
300.2	13.98
300.415	6.54
300.63	-5.83
300.845	8.86
301.06	32.82
301.275	33.36
301.49	30.54
301.704	35.89
301.919	37.03
302.134	23.9
302.349	26.38
302.564	25.89
302.779	30.94
302.994	40.04
303.209	29.79
303.423	40.01
303.638	39.02
303.853	44.52
304.068	40.58
304.283	55.12
304.497	28.84
304.712	31.09
304.927	26.85
305.142	15.37
305.356	22.96
305.571	26.82
305.786	33.83
306	41.17
306.215	45.39
306.43	32.4
306.644	38.39
306.859	42.3
307.074	27.98
307.288	37.09
307.503	50.51
307.717	44.45
307.932	29.26
308.147	37.59
308.361	36.25
308.576	43.96
308.79	48.57
309.005	46.42
309.219	45.51
309.434	23.72
309.648	-9.17
309.863	-15.95
310.077	1.18
310.292	4.58
310.506	16.75
310.72	35.93
310.935	46.16
311.149	48.21
311.364	38.74
311.578	41.63
311.792	29.09
312.007	31.24
312.221	20.51
312.435	37.7
312.649	29.36
312.864	48.55
313.078	54.38
313.292	55.57
313.507	41.46
313.721	61.07
313.935	57.72
314.149	53.99
314.363	59.17
314.578	64.05
314.792	38.2
315.006	32.42
315.22	36.6
315.434	45.29
315.648	40.81
315.862	54.98
316.077	49.3
316.291	25.05
316.505	0.07
316.719	0.06
316.933	-6.65
317.147	8.53
317.361	11.55
317.575	32.86
317.789	32.59
318.003	41.08
318.217	37.18
318.431	34.71
318.645	32.51
318.859	38.99
319.073	41.89
319.287	36.97
319.5	39.65
319.714	22.55
319.928	15.31
320.142	9.16
320.356	7.06
320.57	16.1
320.784	26.48
320.997	32.83
321.211	36.22
321.425	54.6
321.639	61.14
321.853	65.79
322.066	57.71
322.28	53.9
322.494	50.89
322.707	58.21
322.921	53.95
323.135	44.65
323.349	52
323.562	46.11
323.776	31.58
323.989	33.59
324.203	30.63
324.417	8.52
324.63	4.35
324.844	4.73
325.057	0.28
325.271	24.29
325.485	24.79
325.698	26.77
325.912	40.73
326.125	47.73
326.339	32.05
326.552	51.21
326.766	37.8
326.979	33.58
327.193	37.77
327.406	37.97
327.619	25.1
327.833	45.55
328.046	46.7
328.26	32.62
328.473	49.68
328.686	62.03
328.9	42.55
329.113	41.73
329.326	59
329.54	60.87
329.753	58.32
329.966	55.86
330.179	70.98
330.393	68.58
330.606	71.81
330.819	69.2
331.032	89.23
331.246	78.6
331.459	77.13
331.672	51.08
331.885	42.2
332.098	23.89
332.311	1.24
332.525	-6.52
332.738	-12.78
332.951	29.27
333.164	35.69
333.377	34.96
333.59	42.48
333.803	59.52
334.016	54.89
334.229	50
334.442	51.15
334.655	57.66
334.868	61
335.081	59.97
335.294	75.92
335.507	80.33
335.72	80.06
335.933	52.77
336.146	35.51
336.359	22.77
336.572	29.09
336.785	35.93
336.997	53.4
337.21	70.82
337.423	70.73
337.636	40.63
337.849	35.36
338.062	22.11
338.274	25.41
338.487	25.41
338.7	52.6
338.913	41.5
339.125	43.28
339.338	34.59
339.551	28.88
339.763	19.87
339.976	29.44
340.189	41.47
340.402	40.43
340.614	47.8
340.827	49.7
341.039	55.85
341.252	47.09
341.465	54.54
341.677	55.67
341.89	49.25
342.102	39.61
342.315	31.81
342.527	24.44
342.74	37.12
342.952	47.08
343.165	52.29
343.377	67.72
343.59	59.75
343.802	42.86
344.015	48.22
344.227	37.76
344.44	24.2
344.652	32.13
344.864	41.43
345.077	35.39
345.289	46.5
345.502	41.19
345.714	24.09
345.926	26.67
346.139	27.5
346.351	39.49
346.563	39.95
346.775	57.84
346.988	43.23
347.2	30.05
347.412	5.46
347.624	21.65
347.837	18
348.049	21.93
348.261	23.23
348.473	34.42
348.685	38.02
348.897	43.35
349.11	37.67
349.322	27.12
349.534	27.89
349.746	36.7
349.958	35.61
350.17	46.93
350.382	62.64
350.594	67.58
350.806	58.49
351.018	57.62
351.23	45.51
351.442	35.22
351.654	33.92
351.866	20.06
352.078	30.46
352.29	38.24
352.502	33.53
352.714	28.92
352.926	27.96
353.138	26.5
353.35	22.51
353.561	29.88
353.773	35.68
353.985	39.4
354.197	33.92
354.409	41.61
354.621	46.44
354.832	29.74
355.044	25.57
355.256	5.54
355.468	-15.02
355.679	-10.47
355.891	11.46
356.103	26.42
356.314	50.48
356.526	63.04
356.738	59.04
356.949	63.29
357.161	76.05
357.373	79.49
357.584	58.43
357.796	42.1
358.008	25.9
358.219	12.78
358.431	3.89
358.642	20.02
358.854	31.74
359.065	35.44
359.277	31.24
359.488	31.9
359.7	20.29
359.911	17.15
360.123	29.66
360.334	35.38
360.546	47.79
360.757	48.85
360.969	46.52
361.18	48.28
361.391	43.56
361.603	37.97
361.814	50.06
362.025	38.52
362.237	32.36
362.448	29.31
362.659	28.7
362.871	17.16
363.082	30.34
363.293	37
363.504	49.31
363.716	47.94
363.927	48.74
364.138	47.45
364.349	35.86
364.56	35.57
364.772	19.71
364.983	36.54
365.194	45.7
365.405	35.94
365.616	20.47
365.827	30.46
366.038	18.34
366.25	10.3
366.461	29.11
366.672	42
366.883	40.46
367.094	30.21
367.305	21.22
367.516	10.79
367.727	5.17
367.938	6.22
368.149	17.05
368.36	26.85
368.571	31.38
368.781	35.75
368.992	36.13
369.203	38.53
369.414	26.33
369.625	34.47
369.836	29.22
370.047	28.29
370.258	14.44
370.468	19.79
370.679	12.24
370.89	9.42
371.101	12.45
371.312	23.63
371.522	24.91
371.733	22.35
371.944	31.56
372.155	35.94
372.365	37.14
372.576	40.87
372.787	43.45
372.997	35.34
373.208	36.74
373.419	38.18
373.629	35.59
373.84	38.55
374.05	25.4
374.261	28.87
374.472	24.22
374.682	31.13
374.893	33.81
375.103	48.81
375.314	41.69
375.524	33.23
375.735	30
375.945	23.82
376.156	21.62
376.366	21.87
376.577	42.43
376.787	52.59
376.997	59.99
377.208	59.33
377.418	56.52
377.629	38.6
377.839	24.67
378.049	17.48
378.26	15.19
378.47	21.45
378.68	17.45
378.89	15.04
379.101	15.04
379.311	13.4
379.521	8.92
379.732	34.25
379.942	31.97
380.152	42.01
380.362	49.45
380.572	41.88
380.783	30.15
380.993	37.03
381.203	31.52
381.413	33.23
381.623	35.36
381.833	31.56
382.043	26.88
382.253	18.17
382.463	3.38
382.674	4.97
382.884	5.17
383.094	22.91
383.304	28.64
383.514	36.76
383.724	45.23
383.934	46.11
384.144	31.13
384.353	34.63
384.563	35.13
384.773	29.11
384.983	26.05
385.193	30.33
385.403	16.98
385.613	14.83
385.823	11.68
386.033	14.78
386.242	19.61
386.452	23.52
386.662	19.97
386.872	17.8
387.082	19.38
387.291	10.21
387.501	10.77
387.711	14.33
387.921	19.32
388.13	18.71
388.34	25.48
388.55	23.55
388.759	23.81
388.969	21.8
389.179	18.92
389.388	14.68
389.598	15
389.807	14.6
390.017	14.71
390.227	12.95
390.436	11.67
390.646	11.69
390.855	10.28
391.065	9.33
391.274	12.13
391.484	13.59
391.693	15.42
391.903	18.66
392.112	17.27
392.322	15.2
392.531	16.13
392.74	12.21
392.95	7.78
393.159	8.07
393.369	9.09
393.578	6.01
393.787	7.29
393.997	9.08
394.206	9.35
394.415	10.4
394.625	13.51
394.834	14.17
395.043	13.97
395.252	14.65
395.462	13.64
395.671	12.07
395.88	11.77
396.089	11.34
396.298	10.23
396.508	9.44
396.717	9.81
396.926	10.13
397.135	10.54
397.344	10.78
397.553	11.57
397.762	10.96
397.971	10.27
398.181	9.67
398.39	9.67
398.599	8.84
398.808	8.7
399.017	9.49
399.226	9.86
399.435	10.11
399.644	10.37
399.853	11.13
400.062	10.48
400.27	10.63
400.479	10.52
400.688	10.31
400.897	9.7
401.106	9.71
401.315	9.29
401.524	9.22
401.733	9.49
401.941	9.48
402.15	9.64
402.359	9.49
402.568	9.18
402.777	9.24
402.985	8.98
403.194	8.79
403.403	8.96
403.612	9.18
403.82	9.01
404.029	9.32
404.238	9.43
404.446	9.23
404.655	9.22
404.864	9.06
405.072	8.78
405.281	8.87
405.489	8.95
405.698	8.97
405.906	9.05
406.115	9.19
406.324	8.91
406.532	8.92
406.741	8.82
406.949	8.75
407.158	8.76
407.366	8.76
407.574	8.58
407.783	8.52
407.991	8.45
408.2	8.52
408.408	8.49
408.617	8.5
408.825	8.4
409.033	8.35
409.242	8.26
409.45	8.31
409.658	8.29
409.867	8.45
410.075	8.52
410.283	8.32
410.491	8.26
410.7	8.31
410.908	8.12
411.116	8.05
411.324	8.18
411.533	8.09
411.741	8.13
411.949	8.18
412.157	8.35
412.365	8.3
412.573	8.33
412.781	8.29
412.99	8.34
413.198	8.22
413.406	8.27
413.614	8.24
413.822	8.26
414.03	8.11
414.238	7.9
414.446	7.8
414.654	7.84
414.862	7.78
415.07	7.77
415.278	7.92
415.486	7.75
415.694	7.68
415.902	7.65
416.109	7.5
416.317	7.5
416.525	7.54
416.733	7.55
416.941	7.57
417.149	7.76
417.357	7.63
417.564	7.84
417.772	7.7
417.98	7.61
418.188	7.45
418.395	7.4
418.603	7.35
418.811	7.4
419.019	7.22
419.226	7.4
419.434	7.3
419.642	7.11
419.849	7.22
420.057	7.46
420.265	7.32
420.472	7.48
420.68	7.62
420.887	7.56
421.095	7.46
421.302	7.6
421.51	7.44
421.717	7.37
421.925	7.29
422.132	7.08
422.34	7
422.547	7.14
422.755	7.06
422.962	6.91
423.17	7.04
423.377	7
423.585	7.05
423.792	7.19
423.999	7.25
424.207	7.18
424.414	7.03
424.621	7.04
424.829	6.74
425.036	6.84
425.243	6.98
425.451	7.17
425.658	6.88
425.865	7.15
426.072	7.02
426.28	6.89
426.487	6.67
426.694	6.92
426.901	6.94
427.108	7.09
427.315	7.25
427.523	7.53
427.73	7.51
427.937	7.51
428.144	7.45
428.351	7.4
428.558	7.21
428.765	7.11
428.972	7.04
429.179	7.17
429.386	7.23
429.593	7.11
429.8	7.13
430.007	7.24
430.214	7.07
430.421	6.82
430.628	6.96
430.835	7.1
431.042	7.04
431.249	7.26
431.456	7.47
431.662	7.59
431.869	7.56
432.076	7.45
432.283	7.45
432.49	7.42
432.697	7.31
432.903	7.29
433.11	7.35
433.317	7.25
433.524	7.3
433.73	7.23
433.937	7.22
434.144	7.11
434.35	7.13
434.557	7.09
434.764	7.23
434.97	7.14
435.177	7.35
435.384	7.41
435.59	7.51
435.797	7.6
436.003	7.72
436.21	7.69
436.416	7.7
436.623	7.53
436.829	7.43
437.036	7.57
437.242	7.53
437.449	7.49
437.655	7.59
437.862	7.6
438.068	7.43
438.275	7.43
438.481	7.51
438.687	7.46
438.894	7.55
439.1	7.69
439.307	7.75
439.513	7.81
439.719	7.92
439.926	7.85
440.132	7.93
440.338	7.94
440.544	7.87
440.751	7.91
440.957	7.92
441.163	7.8
441.369	7.85
441.575	7.8
441.782	7.71
441.988	7.73
442.194	7.76
442.4	7.67
442.606	7.58
442.812	7.66
443.018	7.76
443.224	7.81
443.431	7.9
443.637	8.01
443.843	8.02
444.049	7.97
444.255	7.92
444.461	7.91
444.667	7.93
444.873	7.9
445.079	7.92
445.284	7.96
445.49	7.93
445.696	7.9
445.902	7.96
446.108	7.88
446.314	7.8
446.52	7.93
446.726	8.07
446.931	8.08
447.137	7.99
447.343	8.08
447.549	8.13
447.755	8.04
447.96	7.99
448.166	8.28
448.372	8.32
448.578	8.28
448.783	8.38
448.989	8.39
449.195	8.31
449.4	8.28
449.606	8.2
449.812	8.1
450.017	8.12
450.223	8.16
450.428	8.17
450.634	8.18
450.84	8.26
451.045	8.33
451.251	8.2
451.456	8.21
451.662	8.26
451.867	8.33
452.073	8.25
452.278	8.28
452.483	8.36
452.689	8.24
452.894	8.21
453.1	8.2
453.305	8.23
453.51	8.14
453.716	8.21
453.921	8.09
454.127	8.1
454.332	8.12
454.537	8.12
454.742	8.06
454.948	8.19
455.153	8.27
455.358	8.28
455.563	8.31
455.769	8.32
455.974	8.17
456.179	8.12
456.384	8.04
456.589	8.06
456.795	8.08
457	8.13
457.205	8.08
457.41	8.04
457.615	8.06
457.82	8.15
458.025	8.14
458.23	8.13
458.435	8.2
458.64	8.13
458.845	8.04
459.05	8.04
459.255	8.13
459.46	8.24
459.665	8.19
459.87	8.21
460.075	8.3
460.28	8.25
460.485	8.25
460.69	8.27
460.895	8.3
461.099	8.28
461.304	8.32
461.509	8.26
461.714	8.36
461.919	8.4
462.123	8.4
462.328	8.4
462.533	8.45
462.738	8.52
462.942	8.42
463.147	8.43
463.352	8.55
463.556	8.65
463.761	8.61
463.966	8.64
464.17	8.71
464.375	8.59
464.58	8.47
464.784	8.54
464.989	8.55
465.193	8.56
465.398	8.56
465.602	8.66
465.807	8.61
466.011	8.66
466.216	8.61
466.42	8.78
466.625	8.79
466.829	8.83
467.034	8.83
467.238	8.87
467.443	8.76
467.647	8.72
467.851	8.7
468.056	8.77
468.26	8.83
468.464	8.82
468.669	8.76
468.873	8.76
469.077	8.62
469.282	8.6
469.486	8.73
469.69	8.9
469.894	8.91
470.099	9.09
470.303	9.11
470.507	9.18
470.711	9.1
470.915	9.14
471.119	9.1
471.324	9.08
471.528	8.92
471.732	8.92
471.936	8.91
472.14	9
472.344	8.99
472.548	9.08
472.752	9.2
472.956	9.32
473.16	9.32
473.364	9.43
473.568	9.41
473.772	9.4
473.976	9.39
474.18	9.4
474.384	9.42
474.588	9.42
474.792	9.42
474.995	9.39
475.199	9.53
475.403	9.48
475.607	9.61
475.811	9.64
476.015	9.75
476.218	9.67
476.422	9.74
476.626	9.76
476.83	9.75
477.033	9.7
477.237	9.74
477.441	9.73
477.644	9.69
477.848	9.68
478.052	9.73
478.255	9.74
478.459	9.82
478.663	9.87
478.866	9.98
479.07	9.99
479.273	10.04
479.477	10.04
479.681	10.08
479.884	10.05
480.088	10.05
480.291	10.05
480.495	10.07
480.698	9.98
480.901	10.04
481.105	10.06
481.308	10.03
481.512	10.04
481.715	10.1
481.919	10.05
482.122	10.08
482.325	10.13
482.529	10.06
482.732	10.09
482.935	10.16
483.138	10.14
483.342	10.1
483.545	10.19
483.748	10.17
483.952	10.16
484.155	10.19
484.358	10.26
484.561	10.2
484.764	10.2
484.967	10.23
485.171	10.33
485.374	10.29
485.577	10.34
485.78	10.34
485.983	10.29
486.186	10.17
486.389	10.18
486.592	10.16
486.795	10.23
486.998	10.2
487.201	10.25
487.404	10.27
487.607	10.31
487.81	10.23
488.013	10.33
488.216	10.32
488.419	10.27
488.622	10.25
488.825	10.34
489.028	10.3
489.231	10.34
489.433	10.33
489.636	10.32
489.839	10.23
490.042	10.2
490.245	10.18
490.447	10.18
490.65	10.18
490.853	10.2
491.056	10.19
491.258	10.18
491.461	10.21
491.664	10.19
491.866	10.18
492.069	10.27
492.272	10.26
492.474	10.22
492.677	10.2
492.879	10.23
493.082	10.23
493.285	10.25
493.487	10.28
493.69	10.39
493.892	10.45
494.095	10.43
494.297	10.44
494.5	10.56
494.702	10.6
494.905	10.6
495.107	10.57
495.309	10.63
495.512	10.51
495.714	10.49
495.917	10.46
496.119	10.53
496.321	10.53
496.524	10.49
496.726	10.43
496.928	10.39
497.13	10.35
497.333	10.24
497.535	10.42
497.737	10.55
497.939	10.59
498.142	10.68
498.344	10.72
498.546	10.63
498.748	10.61
498.95	10.69
499.152	10.66
499.355	10.72
499.557	10.72
499.759	10.76
499.961	10.82
500.163	10.87
500.365	10.94
500.567	11.06
500.769	11.04
500.971	11.03
501.173	11.07
501.375	11.07
501.577	11.1
501.779	11.12
501.981	11.12
502.183	11.18
502.385	11.21
502.587	11.22
502.788	11.29
502.99	11.33
503.192	11.32
503.394	11.31
503.596	11.35
503.798	11.35
503.999	11.33
504.201	11.3
504.403	11.32
504.605	11.3
504.806	11.39
505.008	11.5
505.21	11.6
505.411	11.6
505.613	11.59
505.815	11.57
506.016	11.58
506.218	11.59
506.42	11.7
506.621	11.82
506.823	11.83
507.024	11.89
507.226	11.96
507.427	11.94
507.629	11.92
507.83	11.99
508.032	11.96
508.233	12
508.435	12.09
508.636	12.16
508.838	12.15
509.039	12.24
509.24	12.2
509.442	12.17
509.643	12.16
509.845	12.21
510.046	12.2
510.247	12.24
510.448	12.31
510.65	12.4
510.851	12.41
511.052	12.46
511.254	12.46
511.455	12.46
511.656	12.39
511.857	12.4
512.058	12.44
512.26	12.48
512.461	12.5
512.662	12.63
512.863	12.65
513.064	12.63
513.265	12.65
513.466	12.64
513.667	12.63
513.868	12.69
514.069	12.74
514.27	12.82
514.471	12.89
514.672	12.87
514.873	12.9
515.074	12.94
515.275	12.93
515.476	12.94
515.677	12.94
515.878	13
516.079	13.02
516.28	13.03
516.481	13.02
516.682	13.1
516.882	13.07
517.083	13.04
517.284	13.07
517.485	13.1
517.686	13.08
517.886	13.07
518.087	13.1
518.288	13.15
518.488	13.16
518.689	13.16
518.89	13.24
519.091	13.26
519.291	13.22
519.492	13.29
519.692	13.39
519.893	13.32
520.094	13.35
520.294	13.4
520.495	13.35
520.695	13.31
520.896	13.4
521.096	13.41
521.297	13.45
521.497	13.54
521.698	13.55
521.898	13.52
522.099	13.52
522.299	13.48
522.499	13.49
522.7	13.53
522.9	13.59
523.101	13.59
523.301	13.62
523.501	13.6
523.702	13.64
523.902	13.63
524.102	13.72
524.302	13.7
524.503	13.73
524.703	13.7
524.903	13.67
525.103	13.65
525.304	13.73
525.504	13.8
525.704	13.85
525.904	13.86
526.104	13.91
526.304	13.97
526.504	13.92
526.705	13.97
526.905	14.05
527.105	14.04
527.305	14.08
527.505	14.15
527.705	14.1
527.905	14.17
528.105	14.04
528.305	13.99
528.505	13.98
528.705	14.04
528.905	14.03
529.105	14.19
529.304	14.2
529.504	14.22
529.704	14.18
529.904	14.19
530.104	14.24
530.304	14.3
530.503	14.32
530.703	14.42
530.903	14.42
531.103	14.41
531.303	14.41
531.502	14.47
531.702	14.51
531.902	14.48
532.101	14.49
532.301	14.61
532.501	14.6
532.7	14.61
532.9	14.72
533.1	14.78
533.299	14.74
533.499	14.73
533.698	14.73
533.898	14.76
534.097	14.8
534.297	14.83
534.496	14.88
534.696	14.97
534.895	14.93
535.095	14.93
535.294	14.99
535.494	15.05
535.693	15.04
535.892	15.13
536.092	15.19
536.291	15.19
536.491	15.21
536.69	15.24
536.889	15.25
537.088	15.25
537.288	15.24
537.487	15.3
537.686	15.36
537.886	15.4
538.085	15.47
538.284	15.54
538.483	15.55
538.682	15.54
538.882	15.58
539.081	15.59
539.28	15.65
539.479	15.71
539.678	15.81
539.877	15.84
540.076	15.91
540.275	15.97
540.474	15.95
540.673	15.95
540.872	15.94
541.071	15.98
541.27	16
541.469	16.06
541.668	16.17
541.867	16.3
542.066	16.36
542.265	16.4
542.464	16.42
542.663	16.43
542.862	16.45
543.06	16.47
543.259	16.5
543.458	16.53
543.657	16.57
543.856	16.65
544.054	16.74
544.253	16.79
544.452	16.86
544.651	16.9
544.849	16.94
545.048	16.94
545.247	17.02
545.445	17.09
545.644	17.12
545.843	17.17
546.041	17.24
546.24	17.27
546.438	17.35
546.637	17.45
546.836	17.55
547.034	17.66
547.233	17.71
547.431	17.73
547.63	17.83
547.828	17.88
548.027	17.93
548.225	18.06
548.423	18.19
548.622	18.26
548.82	18.29
549.019	18.3
549.217	18.38
549.415	18.51
549.614	18.6
549.812	18.64
550.01	18.77
550.209	18.8
550.407	18.83
550.605	18.93
550.803	19.07
551.002	19.15
551.2	19.27
551.398	19.41
551.596	19.44
551.794	19.54
551.993	19.61
552.191	19.74
552.389	19.79
552.587	19.86
552.785	19.92
552.983	20.09
553.181	20.16
553.379	20.23
553.577	20.34
553.775	20.51
553.973	20.57
554.171	20.63
554.369	20.77
554.567	20.95
554.765	21.02
554.963	21.18
555.161	21.26
555.359	21.33
555.557	21.43
555.755	21.57
555.952	21.64
556.15	21.8
556.348	21.88
556.546	21.93
556.744	21.98
556.941	22.05
557.139	22.17
557.337	22.35
557.535	22.46
557.732	22.68
557.93	22.83
558.128	22.89
558.325	23
558.523	23.01
558.721	23.04
558.918	23.1
559.116	23.3
559.313	23.4
559.511	23.59
559.708	23.68
559.906	23.8
560.104	23.93
560.301	24.08
560.498	24.23
560.696	24.36
560.893	24.52
561.091	24.59
561.288	24.72
561.486	24.84
561.683	24.96
561.88	25.09
562.078	25.19
562.275	25.25
562.473	25.31
562.67	25.4
562.867	25.46
563.064	25.58
563.262	25.71
563.459	25.86
563.656	26.01
563.853	26.21
564.051	26.41
564.248	26.57
564.445	26.7
564.642	26.84
564.839	26.95
565.036	26.94
565.234	26.98
565.431	27.06
565.628	27.09
565.825	27.09
566.022	27.31
566.219	27.42
566.416	27.58
566.613	27.73
566.81	27.98
567.007	28
567.204	28.09
567.401	28.11
567.598	28.19
567.795	28.16
567.991	28.22
568.188	28.39
568.385	28.48
568.582	28.54
568.779	28.61
568.976	28.76
569.172	28.79
569.369	28.86
569.566	28.92
569.763	28.97
569.96	28.92
570.156	28.95
570.353	28.97
570.55	29.08
570.746	29.17
570.943	29.36
571.14	29.38
571.336	29.6
571.533	29.61
571.729	29.65
571.926	29.61
572.123	29.67
572.319	29.58
572.516	29.65
572.712	29.79
572.909	29.86
573.105	29.89
573.302	29.92
573.498	29.95
573.695	29.93
573.891	29.92
574.087	30
574.284	30.16
574.48	30.27
574.677	30.23
574.873	30.34
575.069	30.29
575.266	30.28
575.462	30.24
575.658	30.31
575.854	30.31
576.051	30.34
576.247	30.24
576.443	30.23
576.639	30.27
576.835	30.31
577.032	30.3
577.228	30.36
577.424	30.3
577.62	30.23
577.816	30.18
578.012	30.21
578.208	30.24
578.404	30.32
578.6	30.35
578.796	30.35
578.993	30.31
579.189	30.25
579.384	30.27
579.58	30.27
579.776	30.29
579.972	30.36
580.168	30.42
580.364	30.38
580.56	30.27
580.756	30.2
580.952	30.21
581.148	30.21
581.343	30.16
581.539	30.26
581.735	30.32
581.931	30.33
582.127	30.28
582.322	30.21
582.518	30.22
582.714	30.18
582.909	30.12
583.105	30.08
583.301	30.07
583.496	29.91
583.692	29.82
583.888	29.7
584.083	29.6
584.279	29.67
584.474	29.62
584.67	29.63
584.866	29.66
585.061	29.71
585.257	29.54
585.452	29.67
585.648	29.66
585.843	29.61
586.039	29.69
586.234	29.77
586.429	29.73
586.625	29.72
586.82	29.83
587.015	29.73
587.211	29.74
587.406	29.68
587.601	29.76
587.797	29.63
587.992	29.61
588.187	29.69
588.383	29.75
588.578	29.74
588.773	29.81
588.968	29.86
589.163	29.82
589.359	29.82
589.554	29.78
589.749	29.73
589.944	29.71
590.139	29.81
590.334	29.95
590.529	30.05
590.724	30.19
590.919	30.3
591.114	30.31
591.309	30.25
591.504	30.19
591.699	30.21
591.894	30.12
592.089	30.08
592.284	30.12
592.479	30.23
592.674	30.14
592.869	30.26
593.064	30.44
593.259	30.6
593.454	30.71
593.648	30.81
593.843	30.82
594.038	30.78
594.233	30.81
594.428	30.67
594.622	30.95
594.817	31.03
595.012	31.08
595.206	31.06
595.401	31.27
595.596	31.18
595.79	31.34
595.985	31.46
596.18	31.54
596.374	31.61
596.569	31.79
596.763	31.89
596.958	31.98
597.153	31.96
597.347	32.02
597.542	32.08
597.736	32.06
597.931	32.11
598.125	32.28
598.319	32.33
598.514	32.35
598.708	32.47
598.903	32.5
599.097	32.6
599.291	32.75
599.486	32.79
599.68	32.71
599.874	32.81
600.069	32.82
600.263	32.85
600.457	32.94
600.651	33.12
600.846	33.2
601.04	33.28
601.234	33.28
601.428	33.35
601.622	33.29
601.817	33.33
602.011	33.31
602.205	33.33
602.399	33.35
602.593	33.4
602.787	33.28
602.981	33.21
603.175	33.28
603.369	33.28
603.563	33.33
603.757	33.39
603.951	33.53
604.145	33.4
604.339	33.43
604.533	33.47
604.727	33.49
604.921	33.43
605.115	33.41
605.309	33.25
605.502	33.19
605.696	33.2
605.89	33.12
606.084	33.11
606.278	33.17
606.471	33.13
606.665	32.98
606.859	32.96
607.053	32.93
607.246	32.82
607.44	32.79
607.634	32.76
607.827	32.6
608.021	32.65
608.214	32.57
608.408	32.52
608.602	32.51
608.795	32.48
608.989	32.34
609.182	32.24
609.376	32.12
609.569	31.99
609.763	32
609.956	31.92
610.15	31.96
610.343	31.85
610.537	31.84
610.73	31.79
610.923	31.73
611.117	31.62
611.31	31.58
611.504	31.53
611.697	31.36
611.89	31.29
612.083	31.12
612.277	31
612.47	30.82
612.663	30.82
612.856	30.68
613.05	30.6
613.243	30.49
613.436	30.41
613.629	30.29
613.822	30.26
614.015	30.26
614.209	30.19
614.402	30.13
614.595	30.05
614.788	30.02
614.981	29.95
615.174	29.82
615.367	29.75
615.56	29.63
615.753	29.43
615.946	29.23
616.139	29.33
616.332	29.14
616.525	29.13
616.718	29.11
616.911	29.16
617.103	28.97
617.296	29.07
617.489	29
617.682	28.91
617.875	28.92
618.067	28.93
618.26	28.82
618.453	28.78
618.646	28.76
618.838	28.61
619.031	28.55
619.224	28.48
619.417	28.46
619.609	28.46
619.802	28.42
619.994	28.36
620.187	28.28
620.38	28.24
620.572	28.14
620.765	28.06
620.957	27.96
621.15	28.01
621.342	27.95
621.535	27.89
621.727	27.87
621.92	27.85
622.112	27.71
622.305	27.76
622.497	27.71
622.69	27.71
622.882	27.67
623.074	27.71
623.267	27.55
623.459	27.61
623.651	27.61
623.844	27.64
624.036	27.53
624.228	27.59
624.42	27.57
624.613	27.56
624.805	27.49
624.997	27.49
625.189	27.47
625.381	27.45
625.574	27.32
625.766	27.28
625.958	27.22
626.15	27.1
626.342	27.03
626.534	27.07
626.726	27.09
626.918	27.06
627.11	27.06
627.302	27.06
627.494	26.95
627.686	26.92
627.878	26.93
628.07	26.85
628.262	26.7
628.454	26.68
628.646	26.68
628.838	26.71
629.029	26.67
629.221	26.69
629.413	26.61
629.605	26.46
629.797	26.35
629.989	26.33
630.18	26.19
630.372	26.22
630.564	26.21
630.755	26.14
630.947	26.15
631.139	26.19
631.33	26.06
631.522	26.11
631.714	26.08
631.905	26.02
632.097	25.99
632.289	26.05
632.48	25.92
632.672	25.9
632.863	25.85
633.055	25.86
633.246	25.86
633.438	25.83
633.629	25.73
633.821	25.68
634.012	25.58
634.203	25.49
634.395	25.52
634.586	25.61
634.777	25.64
634.969	25.57
635.16	25.56
635.351	25.48
635.543	25.48
635.734	25.4
635.925	25.47
636.117	25.51
636.308	25.54
636.499	25.48
636.69	25.45
636.881	25.41
637.073	25.42
637.264	25.42
637.455	25.4
637.646	25.45
637.837	25.51
638.028	25.37
638.219	25.35
638.41	25.22
638.601	25.19
638.792	25.07
638.983	25.1
639.174	25.02
639.365	25.2
639.556	25.12
639.747	25.13
639.938	25.15
640.129	25.17
640.32	25.08
640.511	25.14
640.701	25.18
640.892	25.15
641.083	25.06
641.274	25.01
641.465	24.91
641.655	24.83
641.846	24.78
642.037	24.82
642.228	24.74
642.418	24.89
642.609	24.87
642.8	24.88
642.99	24.74
643.181	24.75
643.372	24.62
643.562	24.62
643.753	24.57
643.943	24.61
644.134	24.6
644.324	24.52
644.515	24.41
644.705	24.28
644.896	24.27
645.086	24.35
645.277	24.35
645.467	24.37
645.658	24.39
645.848	24.35
646.038	24.18
646.229	24.11
646.419	24.11
646.61	24.03
646.8	24.07
646.99	24.03
647.18	24.13
647.371	24.07
647.561	24.12
647.751	24.09
647.941	24.11
648.132	23.93
648.322	23.9
648.512	23.8
648.702	23.69
648.892	23.69
649.082	23.68
649.272	23.58
649.462	23.59
649.653	23.58
649.843	23.57
650.033	23.6
650.223	23.61
650.413	23.59
650.603	23.56
650.793	23.48
650.983	23.4
651.172	23.34
651.362	23.32
651.552	23.27
651.742	23.14
651.932	23.03
652.122	22.96
652.312	22.75
652.502	22.67
652.691	22.65
652.881	22.59
653.071	22.49
653.261	22.54
653.45	22.4
653.64	22.27
653.83	22.15
654.019	22.06
654.209	21.89
654.399	21.65
654.588	21.66
654.778	21.57
654.968	21.45
655.157	21.33
655.347	21.32
655.536	21.02
655.726	20.83
655.915	20.64
656.105	20.47
656.294	20.27
656.484	20.15
656.673	20.01
656.863	19.8
657.052	19.55
657.241	19.45
657.431	19.31
657.62	19.18
657.809	18.92
657.999	18.82
658.188	18.56
658.377	18.31
658.567	18.07
658.756	18.04
658.945	17.97
659.134	17.87
659.324	17.67
659.513	17.45
659.702	17.24
659.891	16.99
660.08	16.71
660.269	16.45
660.458	16.38
660.648	16.2
660.837	15.95
661.026	15.8
661.215	15.61
661.404	15.39
661.593	15.24
661.782	15.09
661.971	14.9
662.16	14.82
662.349	14.61
662.538	14.35
662.726	14.24
662.915	14.06
663.104	13.97
663.293	13.84
663.482	13.75
663.671	13.62
663.86	13.53
664.048	13.31
664.237	13.12
664.426	13.02
664.615	12.86
664.803	12.71
664.992	12.61
665.181	12.6
665.369	12.42
665.558	12.34
665.747	12.3
665.935	12.16
666.124	12.09
666.312	12.12
666.501	11.96
666.69	11.85
666.878	11.88
667.067	11.7
667.255	11.59
667.444	11.59
667.632	11.56
667.82	11.51
668.009	11.6
668.197	11.47
668.386	11.34
668.574	11.41
668.762	11.36
668.951	11.34
669.139	11.43
669.327	11.52
669.516	11.53
669.704	11.55
669.892	11.56
670.08	11.55
670.269	11.48
670.457	11.39
670.645	11.38
670.833	11.35
671.021	11.4
671.21	11.53
671.398	11.53
671.586	11.48
671.774	11.48
671.962	11.47
672.15	11.55
672.338	11.53
672.526	11.52
672.714	11.48
672.902	11.51
673.09	11.45
673.278	11.62
673.466	11.69
673.654	11.87
673.842	11.92
674.03	12.03
674.218	12.04
674.405	12.27
674.593	12.29
674.781	12.33
674.969	12.39
675.157	12.35
675.344	12.31
675.532	12.3
675.72	12.42
675.908	12.45
676.095	12.46
676.283	12.48
676.471	12.72
676.658	12.75
676.846	12.93
677.033	13.2
677.221	13.36
677.409	13.34
677.596	13.49
677.784	13.45
677.971	13.47
678.159	13.69
678.346	13.77
678.534	13.78
678.721	13.97
678.909	14.15
679.096	14.16
679.283	14.3
679.471	14.38
679.658	14.6
679.846	14.71
680.033	14.87
680.22	15.02
680.408	15.26
680.595	15.35
680.782	15.47
680.969	15.66
681.157	15.93
681.344	16.09
681.531	16.17
681.718	16.3
681.905	16.47
682.093	16.68
682.28	16.73
682.467	16.95
682.654	17.25
682.841	17.47
683.028	17.54
683.215	17.89
683.402	18.17
683.589	18.44
683.776	18.62
683.963	19.02
684.15	19.27
684.337	19.45
684.524	19.76
684.711	20.1
684.898	20.44
685.085	20.8
685.271	21.36
685.458	21.58
685.645	21.84
685.832	22.11
686.019	22.41
686.205	22.66
686.392	23.07
686.579	23.56
686.766	23.85
686.952	24.33
687.139	24.68
687.326	25.14
687.512	25.62
687.699	26.15
687.886	26.57
688.072	27.06
688.259	27.55
688.445	27.92
688.632	28.34
688.818	28.95
689.005	29.32
689.191	29.72
689.378	30.24
689.564	30.88
689.751	31.44
689.937	32.24
690.124	32.92
690.31	33.69
690.496	34.44
690.683	35.1
690.869	35.57
691.055	36.38
691.242	37.14
691.428	37.65
691.614	38.26
691.8	38.99
691.987	39.46
692.173	39.87
692.359	40.67
692.545	41.31
692.731	41.81
692.918	42.59
693.104	43.17
693.29	43.72
693.476	44.56
693.662	45.55
693.848	46.23
694.034	46.97
694.22	47.56
694.406	47.88
694.592	48.57
694.778	48.85
694.964	49.36
695.15	49.98
695.336	50.85
695.522	51.37
695.708	52.47
695.894	53.29
696.08	53.82
696.265	54.28
696.451	55.07
696.637	55.77
696.823	56.34
697.009	57.39
697.194	57.9
697.38	58.27
697.566	58.57
697.751	59.08
697.937	59.19
698.123	59.92
698.308	60.41
698.494	61.11
698.68	61.61
698.865	62.21
699.051	62.56
699.236	63.31
699.422	63.56
699.607	64.08
699.793	64.61
699.978	65.21
700.164	65.35
700.349	65.96
700.535	66.57
700.72	67.22
700.906	67.6
701.091	68.17
701.276	68.56
701.462	69.01
701.647	68.97
701.832	69.21
702.018	69.51
702.203	69.8
702.388	69.95
702.573	70.56
702.759	71.23
702.944	71.57
703.129	71.92
703.314	72.38
703.499	72.52
703.684	72.77
703.87	72.98
704.055	73.45
704.24	73.52
704.425	73.87
704.61	74.06
704.795	74.41
704.98	74.52
705.165	74.86
705.35	75.19
705.535	75.66
705.72	75.75
705.905	75.88
706.09	76.45
706.275	76.78
706.459	76.6
706.644	77.14
706.829	77.26
707.014	77.49
707.199	77.72
707.384	78.02
707.568	78.17
707.753	78.8
707.938	78.65
708.123	78.8
708.307	79.27
708.492	80
708.677	79.74
708.861	79.69
709.046	80.12
709.231	80.11
709.415	79.67
709.6	79.87
709.784	80.61
709.969	80.53
710.153	81.12
710.338	81.32
710.522	81.53
710.707	81.35
710.891	81.45
711.076	81.1
711.26	81.28
711.445	81.46
711.629	82
711.813	82.13
711.998	82.37
712.182	82.32
712.366	82.37
712.551	82.09
712.735	81.52
712.919	81.56
713.103	81.86
713.288	82.04
713.472	82.47
713.656	83.36
713.84	83.19
714.024	83.43
714.208	83.87
714.393	83.4
714.577	83.29
714.761	83.6
714.945	83.53
715.129	83.13
715.313	83.79
715.497	83.89
715.681	83.77
715.865	84.13
716.049	84.3
716.233	83.96
716.417	84.25
716.601	84.57
716.785	84.37
716.968	84.69
717.152	85.29
717.336	85.46
717.52	85.2
717.704	85.76
717.888	85.48
718.071	85.19
718.255	84.86
718.439	85.24
718.622	84.43
718.806	84.63
718.99	85.05
719.174	84.92
719.357	85.05
719.541	85.59
719.724	86.01
719.908	85.78
720.092	86.24
720.275	86.54
720.459	86.9
720.642	86.92
720.826	87.18
721.009	87.39
721.193	87.25
721.376	86.36
721.559	85.96
721.743	85.6
721.926	85.97
722.11	85.53
722.293	86.2
722.476	86.39
722.66	86.44
722.843	86.03
723.026	86.64
723.21	86.77
723.393	87.28
723.576	87.88
723.759	88.03
723.942	88.57
724.126	88.75
724.309	88.78
724.492	88.54
724.675	88.4
724.858	87.53
725.041	87.55
725.224	87.75
725.407	87.65
725.59	88.43
725.774	88.76
725.957	89.09
726.14	88.74
726.322	88.71
726.505	88.03
726.688	88.45
726.871	88.15
727.054	87.83
727.237	88.71
727.42	89.01
727.603	88.68
727.786	88.75
727.968	89.3
728.151	88.85
728.334	88.82
728.517	89.12
728.699	89.03
728.882	89.37
729.065	89.33
729.248	89.98
729.43	89.4
729.613	89.78
729.796	89.04
729.978	88.82
730.161	88.2
730.343	88.81
730.526	89.03
730.708	89.28
730.891	89.33
731.073	89.65
731.256	90.06
731.438	89.79
731.621	90.06
731.803	91.01
731.986	91.13
732.168	90.54
732.35	90.49
732.533	90.53
732.715	89.67
732.898	89.92
733.08	90.35
733.262	90.88
733.444	91.24
733.627	91.82
733.809	91.8
733.991	92.31
734.173	91.64
734.355	92.04
734.538	91.63
734.72	91.24
734.902	90.88
735.084	91.13
735.266	90.97
735.448	91.12
735.63	91.68
735.812	91.5
735.994	91.63
736.176	91.36
736.358	91.53
736.54	91.81
736.722	93.2
736.904	94
737.086	93.92
737.268	93.83
737.45	93.34
737.632	92.43
737.814	91.36
737.995	91.91
738.177	92.69
738.359	92.68
738.541	92.73
738.723	93.35
738.904	93.19
739.086	93.14
739.268	93.98
739.449	94.54
739.631	94.9
739.813	94.21
739.994	93.67
740.176	92.89
740.358	92.47
740.539	91.18
740.721	91.83
740.902	92.53
741.084	92.89
741.265	92.95
741.447	93.24
741.628	93.39
741.81	93.52
741.991	92.32
742.172	92.86
742.354	93.18
742.535	92.95
742.717	91.6
742.898	92.97
743.079	92.23
743.261	92.55
743.442	92.1
743.623	92.76
743.804	91.67
743.986	92.01
744.167	92.03
744.348	92.04
744.529	91.2
744.71	91.39
744.891	90.79
745.073	90.84
745.254	91.41
745.435	92.01
745.616	92.51
745.797	92.39
745.978	91.18
746.159	92.22
746.34	92.16
746.521	93.64
746.702	93.44
746.883	94.47
747.064	93.95
747.245	93.92
747.426	91.78
747.606	91.7
747.787	92.22
747.968	91.38
748.149	91.37
748.33	91.6
748.51	91.92
748.691	91.31
748.872	91.54
749.053	92.83
749.233	93.93
749.414	94.18
749.595	94.68
749.775	93.9
749.956	92.82
750.137	91.3
750.317	90.96
750.498	91.05
750.678	91.39
750.859	92.36
751.04	92.12
751.22	92.47
751.4	91.71
751.581	92.65
751.761	92.25
751.942	92.49
752.122	93.15
752.303	91.56
752.483	91.37
752.663	89.87
752.844	90.25
753.024	89.53
753.204	90.67
753.385	89.9
753.565	91.26
753.745	90.91
753.925	91.18
754.106	91.9
754.286	92.47
754.466	90.97
754.646	91.54
754.826	90.6
755.006	89.11
755.187	88.85
755.367	90.81
755.547	91.84
755.727	93.12
755.907	92.92
756.087	92.12
756.267	91
756.447	90.26
756.627	90.22
756.807	90.93
756.987	91.08
757.167	91.24
757.346	91.84
757.526	91.18
757.706	91.94
757.886	93.17
758.066	92.52
758.246	91.79
758.425	91.8
758.605	92.23
758.785	91.88
758.965	92.29
759.144	91.97
759.324	92.57
759.504	91.46
759.683	91.65
759.863	92.28
760.043	92.05
760.222	91.82
760.402	90.97
760.581	91.68
760.761	91.32
760.94	90.35
761.12	90.34
761.299	92.98
761.479	91.47
761.658	90.92
761.838	92.18
762.017	92.63
762.197	91.91
762.376	90.66
762.555	90.51
762.735	89.96
762.914	87.73
763.093	87.07
763.273	87.84
763.452	87.86
763.631	86.44
763.81	87.81
763.99	87.08
764.169	87.24
764.348	87.74
764.527	88.57
764.706	88.41
764.885	89.7
765.064	89.7
765.243	90.51
765.423	89.85
765.602	90.16
765.781	87.38
765.96	87.37
766.139	85.74
766.318	87.18
766.497	86.99
766.676	89.22
766.854	89.38
767.033	89.65
767.212	89.22
767.391	88.96
767.57	90.33
767.749	90.41
767.928	90.54
768.106	91.76
768.285	90.46
768.464	88.84
768.643	88.43
768.821	89.09
769	88.94
769.179	89.66
769.357	89.27
769.536	89.11
769.715	88.92
769.893	86.09
770.072	86.91
770.25	86.39
770.429	89
770.607	88.16
770.786	90.09
770.964	89.86
771.143	90.51
771.321	89.07
771.5	90.29
771.678	90.36
771.857	90.8
772.035	90.12
772.213	88
772.392	86.94
772.57	86.19
772.748	85.82
772.927	87.85
773.105	88.6
773.283	87.13
773.461	87.38
773.64	85.81
773.818	86.3
773.996	87.33
774.174	89.76
774.352	90.57
774.531	90.2
774.709	89.77
774.887	87.7
775.065	86.01
775.243	85
775.421	86.13
775.599	83.96
775.777	84.66
775.955	84.63
776.133	85.55
776.311	84.99
776.489	84.8
776.667	85.37
776.844	86.1
777.022	83.64
777.2	84.32
777.378	84.32
777.556	84.51
777.734	84.78
777.911	87.89
778.089	87.6
778.267	88.49
778.445	86.16
778.622	84.34
778.8	81.82
778.978	83.52
779.155	81.87
779.333	83.41
779.511	85.14
779.688	86.85
779.866	84.66
780.043	85.84
780.221	84.9
780.398	83.31
780.576	82.88
780.753	81.46
780.931	82.07
781.108	81.18
781.286	80
781.463	78.7
781.64	78.03
781.818	77.34
781.995	77.05
782.172	80.55
782.35	82.82
782.527	83.03
782.704	81.89
782.882	85.4
783.059	85.13
783.236	84.32
783.413	87.23
783.59	90.96
783.768	90.24
783.945	88.68
784.122	87.34
784.299	87.3
784.476	84.31
784.653	85.77
784.83	84.11
785.007	84.35
785.184	82.7
785.361	84.57
785.538	82.83
785.715	81.68
785.892	81.42
786.069	83.4
786.246	85.57
786.423	84.9
786.6	88.66
786.776	90.43
786.953	87.86
787.13	83.99
787.307	81.12
787.484	79.7
787.66	76.2
787.837	77.79
788.014	76.13
788.191	78.46
788.367	74.61
788.544	79.08
788.721	79.83
788.897	80.02
789.074	80.29
789.25	83.78
789.427	83.99
789.603	83.47
789.78	83.82
789.956	81.85
790.133	80.6
790.309	76.39
790.486	76.72
790.662	75.34
790.839	75.56
791.015	78.78
791.192	77.48
791.368	75.38
791.544	79.55
791.721	82.98
791.897	83.53
792.073	88.23
792.249	88.89
792.426	86.69
792.602	88.66
792.778	84.93
792.954	83.71
793.13	86.13
793.307	83.23
793.483	81.01
793.659	79.78
793.835	81.8
794.011	82.49
794.187	82.57
794.363	80.88
794.539	83.12
794.715	82.24
794.891	80.85
795.067	84.56
795.243	86.17
795.419	84.32
795.595	87.51
795.771	87.21
795.947	86.55
796.122	84.54
796.298	85.05
796.474	83.85
796.65	78.6
796.826	79.05
797.001	80.31
797.177	78.97
797.353	79.08
797.529	84.41
797.704	82.53
797.88	78.82
798.056	81.26
798.231	79.72
798.407	82.33
798.582	86.03
798.758	89.82
798.934	91.1
799.109	94.47
799.285	84.97
799.46	85.53
799.636	82.37
799.811	80.32
799.986	79.76
800.162	83.8
800.337	80.02
800.513	84.7
800.688	82.4
800.863	80.34
801.039	83.26
801.214	84.33
801.389	79.75
801.565	86.18
801.74	86.26
801.915	81.64
802.09	80.98
802.265	80.76
802.441	81.54
802.616	81.74
802.791	79.66
802.966	80.01
803.141	80.88
803.316	77.36
803.491	77.2
803.666	77.01
803.841	72.58
804.016	70.42
804.191	75.62
804.366	74.82
804.541	76.97
804.716	81.23
804.891	83.33
805.066	78.51
805.241	82.17
805.416	80
805.591	84.01
805.765	85.26
805.94	83.95
806.115	81.36
806.29	85.15
806.464	80.65
806.639	80.81
806.814	84
806.989	81.38
807.163	80.06
807.338	78.28
807.512	81.11
807.687	76.55
807.862	81.3
808.036	82.63
808.211	80.78
808.385	78.56
808.56	74.82
808.734	76.33
808.909	74.06
809.083	84.56
809.258	79.43
809.432	83.53
809.606	77.29
809.781	82.63
809.955	73.38
810.13	80.03
810.304	79.05
810.478	81.33
810.652	76.33
810.827	78.39
811.001	75.19
811.175	81.89
811.349	79.42
811.524	85.57
811.698	76.21
811.872	76.58
812.046	73.14
812.22	75.31
812.394	78.97
812.568	85.48
812.742	78.58
812.916	71.62
813.09	74.83
813.264	72.85
813.438	69.29
813.612	88.95
813.786	92.9
813.96	97.13
814.134	88.62
814.308	89.67
814.482	81.94
814.656	83.42
814.83	74
815.003	74.53
815.177	80.83
815.351	74.35
815.525	71.52
815.698	73.94
815.872	75.06
816.046	69.62
816.219	78.25
816.393	70.5
816.567	71.6
816.74	68.77
816.914	70.47
817.088	66.02
817.261	68.07
817.435	64.47
817.608	71.28
817.782	66.72
817.955	66.97
818.129	78.67
818.302	90.95
818.475	86.45
818.649	83.29
818.822	76.74
818.996	84.67
819.169	76.34
819.342	79.57
819.516	80.81
819.689	86.97
819.862	71.44
820.035	66.52
820.209	65.32
820.382	73.06
820.555	65.26
820.728	78.94
820.901	82.83
821.075	90.38
821.248	78.91
821.421	80
821.594	74.95
821.767	76.61
821.94	74.83
822.113	79.28
822.286	84.51
822.459	80.4
822.632	75.89
822.805	76.8
822.978	77.97
823.151	75.9
823.324	72.89
823.496	80.83
823.669	85.66
823.842	86.32
824.015	75.34
824.188	50
824.361	48.6
824.533	46.25
824.706	38.62
824.879	57.05
825.051	94.71
825.224	94.31
825.397	85.62
825.569	84.15
825.742	89.34
825.915	85.91
826.087	71.19
826.26	74.07
826.432	83.68
826.605	75.49
826.777	73.08
826.95	81.13
827.122	74.24
827.295	71.57
827.467	85.13
827.64	91.17
827.812	85.39
827.984	91.02
828.157	79.13
828.329	58.56
828.501	44.37
828.674	63.23
828.846	64.73
829.018	77.73
829.19	74.73
829.363	69.24
829.535	52.68
829.707	46.97
829.879	52.42
830.051	63
830.223	67.55
830.395	73.61
830.568	76.29
830.74	61.94
830.912	59.99
831.084	70.08
831.256	81.31
831.428	69.08
831.6	75.21
831.772	82.34
831.943	78.45
832.115	71.57
832.287	72.63
832.459	86.17
832.631	107.36
832.803	103.23
832.975	76.87
833.146	98.61
833.318	100.7
833.49	80.44
833.662	76.17
833.833	86.43
834.005	81.56
834.177	76.95
834.348	75.08
834.52	88.72
834.692	97.67
834.863	99.95
835.035	94.23
835.206	113.8
835.378	92.89
835.549	88.29
835.721	108.63
835.892	156.24
836.064	108.4
836.235	86.72
836.407	93.26
836.578	83.51
836.749	65.91
836.921	68.66
837.092	76.97
837.264	59.23
837.435	54.75
837.606	49.63
837.777	41.84
837.949	45.8
838.12	58.66
838.291	59.45
838.462	68.14
838.633	74.44
838.805	75.59
838.976	58.49
839.147	44.76
839.318	42.29
839.489	52.77
839.66	60.75
839.831	72.96
840.002	93.03
840.173	95.54
840.344	114.88
840.515	114.75
840.686	102.38
840.857	92.06
841.028	85.5
841.199	91.56
841.369	74.77
841.54	84.48
841.711	79.64
841.882	100.34
842.053	76.37
842.223	73.52
842.394	80
842.565	111
842.736	122.07
842.906	135.41
843.077	141.55
843.248	196.61
843.418	139.73
843.589	129.83
843.759	83.09
843.93	53.81
844.101	61.37
844.271	77.6
844.442	70.62
844.612	157.41
844.783	299.34
844.953	691.8
845.123	-68200
845.294	210.99
845.464	121.32
845.635	96.49
845.805	54.61
845.975	76.36
846.146	92.76
846.316	88.67
846.486	88.39
846.656	99.14
846.827	75.43
846.997	56.93
847.167	58
847.337	55.74
847.507	49.5
847.677	48.1
847.848	70.91
848.018	78.1
848.188	66.5
848.358	83.81
848.528	147.14
848.698	159.42
848.868	179.58
849.038	283.3
849.208	338.08
849.378	200
849.548	211.46
849.718	179.01
849.887	151.78
850.057	95.9
850.227	81.9
850.397	37.57
850.567	33.35
850.737	52.64
850.906	60.7
851.076	55.4
851.246	86.22
851.415	89.83
851.585	88.78
851.755	102.17
851.924	145.93
852.094	110.86
852.264	94.15
852.433	56.23
852.603	49.26
852.772	47.8
852.942	57.81
853.111	107.13
853.281	118.45
853.45	130.96
853.62	115.6
853.789	95.06
853.959	64.55
854.128	80.13
854.297	77.12
854.467	65.82
854.636	102.97
854.805	113.03
854.975	50.86
855.144	41.99
855.313	48.12
855.482	48.29
855.652	46.12
855.821	52.48
855.99	71.82
856.159	82.23
856.328	114.29
856.497	100.69
856.667	108.72
856.836	146.64
857.005	154.91
857.174	140.67
857.343	139
857.512	185.28
857.681	154.56
857.85	123.77
858.019	124.79
858.188	94.04
858.356	57.18
858.525	25.63
858.694	35.59
858.863	19.5
859.032	45.37
859.201	23.53
859.369	104.78
859.538	113.23
859.707	98.97
859.876	69.66
860.044	77.8
860.213	80.33
860.382	84.12
860.55	80.56
860.719	83.57
860.888	58.79
861.056	44.12
861.225	22.1
861.393	54.51
861.562	39.77
861.73	51.53
861.899	60.76
862.067	70.77
862.236	39.52
862.404	59.21
862.572	53.22
862.741	26.92
862.909	77.52
863.078	87.32
863.246	93.62
863.414	65.8
863.582	125.62
863.751	138.7
863.919	248.6
864.087	409.03
864.255	-700
864.424	330.87
864.592	167
864.76	81.26
864.928	64.69
865.096	69.43
865.264	49.51
865.432	33.1
865.6	59.22
865.768	59.09
865.936	64.52
866.104	72.86
866.272	91.47
866.44	85
866.608	67.34
866.776	62.38
866.944	54.53
867.112	22.95
867.28	48.02
867.448	96.22
867.615	117.52
867.783	90.52
867.951	85.52
868.119	56.08
868.286	89.98
868.454	93.79
868.622	80.62
868.789	83.97
868.957	84.27
869.125	56.79
869.292	45.95
869.46	95.15
869.627	129.21
869.795	402.94
869.963	159.09
870.13	-213.11
870.298	162.23
870.465	170.18
870.632	148.78
870.8	168.28
870.967	118.1
871.135	83.83
871.302	94.32
871.469	99.87
871.637	130.71
871.804	122.43
871.971	106.13
872.139	70.79
872.306	62.51
872.473	38.94
872.64	40.66
872.807	-13.69
872.975	-12.47
873.142	-3.18
873.309	66.6
873.476	57.43
873.643	119.97
873.81	140.19
873.977	121.16
874.144	50.33
874.311	81.61
874.478	90.71
874.645	61.16
874.812	72.08
874.979	80.38
875.146	70.45
875.313	87.64
875.48	106.38
875.647	98.05
875.813	87.79
875.98	75.47
876.147	-5.34
876.314	-17.66
876.481	1.65
876.647	22.03
876.814	75.86
876.981	293.91
877.147	21200
877.314	-114.22
877.481	-168.18
877.647	295.45
877.814	15.92
877.98	62.46
878.147	89.17
878.314	201.42
878.48	163.94
878.647	160.17
878.813	152.15
878.979	128.81
879.146	96.59
879.312	92.29
879.479	113.48
879.645	83.45
879.811	187.59
879.978	146.13
880.144	134.44
880.31	114.55
880.477	93.54
880.643	83.99
880.809	60.13
880.975	64.71
881.142	149.73
881.308	3118.18
881.474	-183.11
881.64	-23.96
881.806	-71.65
881.972	-53.74
882.138	-469.86
882.304	267.97
882.47	64.15
882.636	109.03
882.802	94.34
882.968	432.39
883.134	125.5
883.3	128.14
883.466	134.36
883.632	123.46
883.798	99.01
883.964	142
884.129	368.22
884.295	167.8
884.461	251.59
884.627	165.43
884.793	152.19
884.958	106.91
885.124	170.99
885.29	76.77
885.455	40.87
885.621	82.51
885.787	-198.73
885.952	243.37
886.118	164.86
886.283	155.09
886.449	149.01
886.614	92.67
886.78	65.11
886.945	89.23
887.111	70.78
887.276	51.69
887.442	72.52
887.607	86.06
887.773	81.63
887.938	91.59
888.103	237.08
888.269	164.35
888.434	207.23
888.599	254
888.764	160.5
888.93	115.61
889.095	104.19
889.26	113.39
889.425	79.58
889.59	86.47
889.756	73.7
889.921	77.76
890.086	76.4
890.251	108.98
890.416	89.71
890.581	121.28
890.746	122.03
890.911	192.48
891.076	63.48
891.241	113.14
891.406	117.39
891.571	93.42
891.736	80.38
891.901	114.04
892.065	111.74
892.23	61.77
892.395	91.17
892.56	49.09
892.725	11.43
892.889	-13.32
893.054	24.08
893.219	-25.67
893.384	-16.75
893.548	63.29
893.713	-22.58
893.878	77.97
