Data from Ofra_PS_Phys_4HS23_Reflection_3.txt Node
Date: Tue Jul 20 20:40:31 EDT 2021
User: USUARIO
Spectrometer: FLMT01687
Trigger mode: 0
Integration Time (sec): 1.042999E0
Scans to average: 2
Electric dark correction enabled: true
Nonlinearity correction enabled: false
Boxcar width: 2
XAxis mode: Wavelengths
Number of Pixels in Spectrum: 3648
>>>>>Begin Spectral Data<<<<<
179.494	-40.38
179.716	-64.89
179.937	47.27
180.158	26.5
180.38	48.9
180.601	68.64
180.823	111.19
181.044	37.24
181.265	-153.56
181.486	-16.86
181.708	87.05
181.929	168.81
182.15	260.73
182.372	6.92
182.593	63.68
182.814	15.61
183.035	16.82
183.257	16.15
183.478	-90.08
183.699	-26
183.92	31.55
184.141	48.39
184.363	58.59
184.584	54.73
184.805	39.46
185.026	36.92
185.247	0.76
185.468	-5.37
185.689	32.19
185.91	14.91
186.132	-23.51
186.353	8.24
186.574	52.94
186.795	34.36
187.016	73.31
187.237	69.72
187.458	59.91
187.679	27.87
187.9	-3.31
188.121	-2.67
188.342	-7.67
188.563	25.23
188.784	17.64
189.005	32.25
189.226	28.23
189.447	45.53
189.667	35.29
189.888	21.23
190.109	44.5
190.33	35.22
190.551	17.48
190.772	29.59
190.993	65.33
191.214	65.24
191.434	67.56
191.655	80.63
191.876	58.4
192.097	66.67
192.318	71.66
192.538	46.25
192.759	39.03
192.98	46.74
193.201	43.54
193.421	42.83
193.642	57.4
193.863	60.8
194.083	49.46
194.304	45.61
194.525	25.82
194.745	41.44
194.966	16.55
195.187	45.84
195.407	22.87
195.628	11.28
195.848	9.12
196.069	44.12
196.29	32.68
196.51	39.29
196.731	54.9
196.951	42.51
197.172	20.47
197.392	24.27
197.613	13.15
197.833	9.73
198.054	20.46
198.274	35.57
198.495	13.84
198.715	18.11
198.936	24.4
199.156	10.81
199.377	8.08
199.597	8.89
199.817	31.58
200.038	22.8
200.258	34.68
200.479	43.7
200.699	51.13
200.919	43.63
201.14	40.7
201.36	18.81
201.58	-58.27
201.801	7.97
202.021	-19.33
202.241	19.04
202.461	31.37
202.682	45.61
202.902	44.24
203.122	74.54
203.342	68.01
203.563	52.15
203.783	66.55
204.003	40.12
204.223	49.8
204.443	28.84
204.663	36.76
204.884	18.86
205.104	46.09
205.324	28.27
205.544	29.92
205.764	27.83
205.984	4.18
206.204	-49.73
206.424	-15.29
206.644	-12.05
206.864	11.68
207.084	51.51
207.304	73.24
207.525	63.92
207.745	59.86
207.964	27.42
208.184	12.48
208.404	-2.96
208.624	10.37
208.844	11.34
209.064	22.52
209.284	-5.7
209.504	22.02
209.724	15.5
209.944	16.42
210.164	40.21
210.384	62.1
210.604	55.69
210.823	65.32
211.043	63.97
211.263	54.21
211.483	64.13
211.703	67.85
211.922	62.44
212.142	80.33
212.362	94.66
212.582	65.79
212.801	58.34
213.021	29.55
213.241	-2.49
213.461	-10.17
213.68	-34.84
213.9	-38.14
214.12	-43.98
214.339	-56.89
214.559	-1.51
214.779	1.11
214.998	10.81
215.218	34.94
215.438	38.56
215.657	35.78
215.877	49.45
216.096	61.59
216.316	44.48
216.535	48.33
216.755	33.05
216.974	30.32
217.194	18.36
217.413	30.94
217.633	40.78
217.852	30.71
218.072	35.69
218.291	19.23
218.511	24.83
218.73	11.59
218.95	19.01
219.169	19.49
219.389	31.46
219.608	30.63
219.827	39.12
220.047	21.75
220.266	0.36
220.485	-1.98
220.705	-15.17
220.924	-23.53
221.143	-0.84
221.363	-12.22
221.582	-13.56
221.801	4.42
222.021	1.73
222.24	6.29
222.459	27.39
222.678	33.42
222.897	21.61
223.117	35.14
223.336	44.11
223.555	56.88
223.774	50.21
223.993	71.36
224.213	64.79
224.432	53.75
224.651	52.75
224.87	44.42
225.089	-2.91
225.308	-4.94
225.527	-1.15
225.746	-11.63
225.965	11.66
226.184	37.79
226.404	36.23
226.623	24.72
226.842	47.87
227.061	50.48
227.28	51.79
227.499	48.32
227.718	55.25
227.936	39.44
228.155	43.52
228.374	33.96
228.593	34.8
228.812	28.72
229.031	26.34
229.25	12.27
229.469	12.29
229.688	6.86
229.907	5.84
230.125	-8.95
230.344	0.57
230.563	21.97
230.782	16.16
231.001	24.23
231.22	48.36
231.438	37.94
231.657	-6.15
231.876	30.1
232.095	19.76
232.313	4.57
232.532	31.08
232.751	64.16
232.969	52.53
233.188	72.89
233.407	73.48
233.625	59.58
233.844	54.73
234.063	53.56
234.281	46.21
234.5	47.42
234.719	45.52
234.937	48.58
235.156	37.83
235.374	41.78
235.593	36.01
235.811	26.89
236.03	19.5
236.249	18.38
236.467	29.09
236.686	41.44
236.904	42.19
237.123	40.21
237.341	49.75
237.559	35.21
237.778	21.5
237.996	21.32
238.215	3.13
238.433	16.94
238.652	19.1
238.87	26.08
239.088	38.86
239.307	27.63
239.525	33.27
239.743	35.74
239.962	44.5
240.18	25.51
240.398	60.91
240.617	38.77
240.835	34.93
241.053	33.23
241.271	31.49
241.49	18.83
241.708	27.79
241.926	19.51
242.144	13.77
242.363	10.49
242.581	17.37
242.799	15.5
243.017	28.58
243.235	21.83
243.453	21.06
243.672	16.11
243.89	-2.1
244.108	10.92
244.326	13.85
244.544	17.45
244.762	32.62
244.98	47.63
245.198	30.34
245.416	36.76
245.634	26.66
245.852	24.24
246.07	27.28
246.288	15.24
246.506	11.34
246.724	9.7
246.942	5.23
247.16	4.8
247.378	43.16
247.596	38.89
247.814	47.14
248.032	38.53
248.25	39.19
248.468	24.69
248.685	31.68
248.903	24.51
249.121	39.94
249.339	23.03
249.557	27.19
249.775	37.54
249.992	37.77
250.21	39.87
250.428	44.99
250.646	34.88
250.863	-11.51
251.081	-19.28
251.299	-35.68
251.517	-18.99
251.734	-7.03
251.952	3.5
252.17	20.47
252.387	43.98
252.605	45.31
252.823	51.4
253.04	59.9
253.258	67.97
253.475	70.22
253.693	76.37
253.911	88.92
254.128	96.68
254.346	79.72
254.563	69.58
254.781	39.98
254.998	30.18
255.216	27.56
255.433	-7.25
255.651	30.46
255.868	79.68
256.086	90.64
256.303	52.95
256.521	51.36
256.738	21.54
256.956	3.33
257.173	-24.89
257.39	-2.48
257.608	14.22
257.825	25.77
258.043	37.8
258.26	48.35
258.477	48.49
258.695	41.42
258.912	39.27
259.129	36.74
259.346	29.46
259.564	24.18
259.781	30.52
259.998	29.59
260.216	32.98
260.433	32.32
260.65	51.42
260.867	54.72
261.084	40.49
261.302	25.01
261.519	36.67
261.736	21.54
261.953	13.89
262.17	18.67
262.387	39.55
262.604	34.58
262.822	29.61
263.039	30.08
263.256	34.13
263.473	30.03
263.69	13.68
263.907	14.66
264.124	-7.9
264.341	-0.6
264.558	-30.47
264.775	-5.58
264.992	11.21
265.209	48.16
265.426	47.05
265.643	69.28
265.86	52.67
266.077	40.71
266.294	57.07
266.51	49.24
266.727	46.3
266.944	43.96
267.161	58.79
267.378	54.26
267.595	43.25
267.812	30.9
268.028	27.95
268.245	13.85
268.462	-4.48
268.679	-0.85
268.896	5.8
269.112	3.16
269.329	4.18
269.546	21.91
269.763	24.28
269.979	21.55
270.196	21.83
270.413	24.41
270.629	17
270.846	22.92
271.063	29.33
271.279	33.99
271.496	40.39
271.712	44.1
271.929	45.04
272.146	34.53
272.362	32.47
272.579	39.96
272.795	32.15
273.012	26.13
273.228	24.63
273.445	26.23
273.661	6.03
273.878	12.45
274.094	29.85
274.311	38.01
274.527	35.58
274.744	32.36
274.96	39.94
275.177	29.15
275.393	1.69
275.609	-7.84
275.826	-6.1
276.042	-23.34
276.259	-24.6
276.475	24.6
276.691	19.71
276.908	24.95
277.124	22.82
277.34	28.83
277.557	31.07
277.773	31.84
277.989	30.01
278.205	41.07
278.422	24.8
278.638	22.31
278.854	15.04
279.07	19.51
279.286	17.05
279.503	34.67
279.719	14.69
279.935	36.09
280.151	35.44
280.367	25.59
280.583	36.38
280.799	57.58
281.016	48.29
281.232	39.4
281.448	58.4
281.664	42.6
281.88	12.08
282.096	22.31
282.312	16.06
282.528	-5.42
282.744	-11.34
282.96	23.63
283.176	4.47
283.392	8.09
283.608	1.81
283.824	9.58
284.04	-1.7
284.256	10.41
284.471	13.72
284.687	25.3
284.903	34.76
285.119	29.25
285.335	10.89
285.551	12.68
285.767	-6.34
285.982	-31.22
286.198	-13.87
286.414	17.11
286.63	3.89
286.846	27.56
287.061	33.71
287.277	33.44
287.493	30.94
287.709	35.37
287.924	42.31
288.14	39.39
288.356	43.06
288.571	36.68
288.787	30.98
289.003	23.52
289.218	15.98
289.434	4.5
289.65	7.31
289.865	-7.33
290.081	-1.12
290.296	8.9
290.512	19.09
290.727	19.84
290.943	35.71
291.159	30.92
291.374	41.31
291.59	29.46
291.805	18.28
292.021	35.92
292.236	38.62
292.451	30.3
292.667	29.58
292.882	29.17
293.098	25.31
293.313	22.93
293.529	22.89
293.744	33.77
293.959	41.02
294.175	51.31
294.39	41.18
294.605	33.35
294.821	22.75
295.036	26.45
295.251	-7.04
295.467	-5.93
295.682	11.47
295.897	11.85
296.112	13.78
296.328	19.74
296.543	24.19
296.758	11.93
296.973	7.53
297.188	2.64
297.404	3.18
297.619	9.91
297.834	16.56
298.049	33.35
298.264	25.93
298.479	21.84
298.694	15.74
298.909	20.27
299.125	8.76
299.34	11.88
299.555	27.55
299.77	26.97
299.985	35.85
300.2	22.41
300.415	30.52
300.63	38.75
300.845	29.31
301.06	24.52
301.275	33.88
301.49	27.86
301.704	14.17
301.919	35.16
302.134	33.29
302.349	35.15
302.564	32.2
302.779	28.26
302.994	20.83
303.209	23.66
303.423	33.86
303.638	49.45
303.853	49.73
304.068	57.58
304.283	50.74
304.497	34.62
304.712	36.54
304.927	36.82
305.142	48.13
305.356	37.65
305.571	53.93
305.786	39.9
306	33.85
306.215	14.25
306.43	32.62
306.644	19.6
306.859	30.71
307.074	35.92
307.288	38.62
307.503	24.93
307.717	16.82
307.932	15.77
308.147	13.56
308.361	30.04
308.576	22.61
308.79	34.14
309.005	11.51
309.219	1.89
309.434	-21.5
309.648	-17.41
309.863	-25.56
310.077	9.8
310.292	21.4
310.506	26.59
310.72	30.43
310.935	34.52
311.149	15.71
311.364	22.26
311.578	40.44
311.792	45.72
312.007	34.49
312.221	40.05
312.435	32.18
312.649	4.33
312.864	-2.04
313.078	-2.07
313.292	7.01
313.507	5.1
313.721	6.54
313.935	5.19
314.149	13.03
314.363	0.37
314.578	-4.03
314.792	3.81
315.006	11.52
315.22	3.53
315.434	9.28
315.648	28.6
315.862	28.74
316.077	48.95
316.291	76.5
316.505	70.45
316.719	67.58
316.933	61.91
317.147	35.19
317.361	19.09
317.575	22.73
317.789	19.9
318.003	22.17
318.217	47.27
318.431	51.05
318.645	47.68
318.859	40.02
319.073	33.35
319.287	17.72
319.5	18.66
319.714	22.11
319.928	25.85
320.142	33.88
320.356	47.02
320.57	51.79
320.784	48.13
320.997	52.99
321.211	46.04
321.425	41.06
321.639	39.39
321.853	36.42
322.066	35.79
322.28	37.7
322.494	38.55
322.707	29.97
322.921	24.23
323.135	22.25
323.349	30.74
323.562	24.39
323.776	28.66
323.989	35.31
324.203	34.6
324.417	28.97
324.63	30.27
324.844	41.54
325.057	52.38
325.271	35.35
325.485	23.34
325.698	33.22
325.912	27.75
326.125	16.9
326.339	21.74
326.552	27.63
326.766	28.21
326.979	27.45
327.193	32.98
327.406	41.38
327.619	41.46
327.833	25
328.046	20.38
328.26	8.94
328.473	11.37
328.686	11.07
328.9	11.28
329.113	4.36
329.326	20.52
329.54	19.34
329.753	22.48
329.966	39.15
330.179	40.84
330.393	39.7
330.606	42.31
330.819	18.64
331.032	10.81
331.246	16.56
331.459	18.52
331.672	-0.25
331.885	19.8
332.098	20.09
332.311	13.64
332.525	17.86
332.738	13.05
332.951	9.81
333.164	7.54
333.377	13.17
333.59	1.39
333.803	13.65
334.016	12.87
334.229	1.69
334.442	-6.29
334.655	-5.16
334.868	-10.32
335.081	-0.88
335.294	15.71
335.507	25.52
335.72	17.51
335.933	22.49
336.146	29.16
336.359	21.35
336.572	9.9
336.785	41.82
336.997	52.16
337.21	47.25
337.423	64.52
337.636	66.23
337.849	32.58
338.062	28.03
338.274	39.61
338.487	40.51
338.7	40.37
338.913	30.54
339.125	15.39
339.338	4.7
339.551	-12.85
339.763	1.64
339.976	25.33
340.189	18.51
340.402	10.62
340.614	7.67
340.827	12.23
341.039	1.43
341.252	17.62
341.465	29.52
341.677	16.23
341.89	-8.68
342.102	2.69
342.315	8.15
342.527	15.98
342.74	21.89
342.952	27.2
343.165	29.34
343.377	43.63
343.59	33.43
343.802	42.32
344.015	54.14
344.227	51.2
344.44	29.67
344.652	31.72
344.864	25.4
345.077	-5.85
345.289	-5.84
345.502	6.54
345.714	-20.87
345.926	-45.47
346.139	6.83
346.351	3.91
346.563	10.2
346.775	15.72
346.988	28.82
347.2	20.15
347.412	22.67
347.624	15.74
347.837	24.1
348.049	18.3
348.261	24.84
348.473	17.2
348.685	34.87
348.897	34.94
349.11	38.74
349.322	26.53
349.534	22.58
349.746	12.54
349.958	17.95
350.17	14.28
350.382	26.45
350.594	42.5
350.806	51.62
351.018	49.51
351.23	46.28
351.442	40.57
351.654	49.2
351.866	50.39
352.078	50.33
352.29	53.02
352.502	56.11
352.714	51
352.926	49.8
353.138	47.54
353.35	39.44
353.561	32.08
353.773	29.37
353.985	19.14
354.197	25.38
354.409	32.04
354.621	30.05
354.832	25.56
355.044	36
355.256	25.94
355.468	22.64
355.679	18.21
355.891	19.19
356.103	5.43
356.314	20.93
356.526	21.32
356.738	34.04
356.949	40.43
357.161	54.51
357.373	48.7
357.584	41.33
357.796	41.26
358.008	35.03
358.219	25.84
358.431	23.59
358.642	34.55
358.854	22.48
359.065	22.86
359.277	6.67
359.488	5.6
359.7	3.33
359.911	24.01
360.123	17.87
360.334	24.04
360.546	30.27
360.757	37.9
360.969	29.2
361.18	33.42
361.391	32.63
361.603	29.48
361.814	18.99
362.025	17.81
362.237	11.02
362.448	12.58
362.659	11.07
362.871	29.69
363.082	26.63
363.293	28.27
363.504	28.77
363.716	29.57
363.927	13.46
364.138	11
364.349	11.4
364.56	5.96
364.772	1.08
364.983	8.27
365.194	26.52
365.405	36.73
365.616	39.63
365.827	37.07
366.038	40.85
366.25	30.56
366.461	32.82
366.672	40.64
366.883	41.58
367.094	31.42
367.305	29.83
367.516	31.85
367.727	28.73
367.938	36.33
368.149	36.16
368.36	43.05
368.571	33.98
368.781	25.98
368.992	20
369.203	12.24
369.414	8.73
369.625	-5.75
369.836	-8.64
370.047	-0.76
370.258	7.84
370.468	5.77
370.679	14.28
370.89	15.36
371.101	13.27
371.312	8.83
371.522	15.97
371.733	22.03
371.944	22.66
372.155	34.02
372.365	31.21
372.576	31.64
372.787	26.46
372.997	27.21
373.208	16.31
373.419	24.32
373.629	9.04
373.84	0.67
374.05	19.92
374.261	27.19
374.472	27.3
374.682	30.37
374.893	32.31
375.103	25.49
375.314	13.85
375.524	18.8
375.735	18.18
375.945	7.84
376.156	11.7
376.366	22.25
376.577	2.48
376.787	4.86
376.997	12.24
377.208	5.16
377.418	-0.37
377.629	6.94
377.839	5.08
378.049	13.89
378.26	24.27
378.47	27.73
378.68	28.47
378.89	27.81
379.101	14.5
379.311	8.5
379.521	7.96
379.732	15.33
379.942	29.73
380.152	30.77
380.362	18.2
380.572	14.87
380.783	11.64
380.993	6.35
381.203	11.13
381.413	10.56
381.623	16.45
381.833	13.45
382.043	11.3
382.253	12.36
382.463	22.15
382.674	24.14
382.884	29.86
383.094	30.34
383.304	27.98
383.514	27.17
383.724	21.56
383.934	22.02
384.144	18.81
384.353	21.12
384.563	17.38
384.773	20.14
384.983	14.64
385.193	22.51
385.403	22.9
385.613	25.45
385.823	19.02
386.033	19.47
386.242	10.53
386.452	8.33
386.662	7.87
386.872	17.31
387.082	13.98
387.291	19.12
387.501	19.95
387.711	15.88
387.921	10.19
388.13	12.65
388.34	9.36
388.55	8.01
388.759	6.09
388.969	11.53
389.179	14.58
389.388	15.77
389.598	13.5
389.807	18.83
390.017	13.6
390.227	7.05
390.436	10.49
390.646	11.84
390.855	11.08
391.065	11.59
391.274	14.15
391.484	11.42
391.693	11.88
391.903	10.67
392.112	9.65
392.322	8.87
392.531	6.87
392.74	7.03
392.95	4.45
393.159	3.64
393.369	5.38
393.578	5.96
393.787	5.47
393.997	7.32
394.206	8.7
394.415	6.33
394.625	6.4
394.834	5.61
395.043	4.55
395.252	4.66
395.462	5.4
395.671	4.41
395.88	4.99
396.089	4.83
396.298	4.08
396.508	3
396.717	3.05
396.926	2.59
397.135	2.57
397.344	2.23
397.553	3.48
397.762	4.05
397.971	4.02
398.181	4.28
398.39	4.86
398.599	3.98
398.808	3.41
399.017	4.03
399.226	4.33
399.435	3.85
399.644	4.66
399.853	5.49
400.062	5.13
400.27	5.01
400.479	5.09
400.688	5.06
400.897	4.64
401.106	4.5
401.315	4.47
401.524	4.67
401.733	4.11
401.941	3.51
402.15	3.25
402.359	3.13
402.568	3.13
402.777	3.25
402.985	3.42
403.194	3.75
403.403	3.58
403.612	3.39
403.82	3.11
404.029	3.33
404.238	3.28
404.446	3.49
404.655	3.29
404.864	3.57
405.072	3.52
405.281	3.6
405.489	3.49
405.698	3.64
405.906	3.69
406.115	3.72
406.324	3.52
406.532	3.4
406.741	3.51
406.949	3.56
407.158	3.57
407.366	3.47
407.574	3.51
407.783	3.36
407.991	3.2
408.2	3.1
408.408	3.3
408.617	3.37
408.825	3.43
409.033	3.46
409.242	3.48
409.45	3.37
409.658	3.39
409.867	3.37
410.075	3.3
410.283	3.22
410.491	3.14
410.7	3.27
410.908	3.25
411.116	3.45
411.324	3.5
411.533	3.59
411.741	3.48
411.949	3.59
412.157	3.35
412.365	3.49
412.573	3.52
412.781	3.39
412.99	3.23
413.198	3.29
413.406	3.19
413.614	3.14
413.822	3.13
414.03	3.21
414.238	3.25
414.446	3.23
414.654	3.3
414.862	3.34
415.07	3.41
415.278	3.57
415.486	3.48
415.694	3.42
415.902	3.24
416.109	3.06
416.317	2.98
416.525	3.04
416.733	2.97
416.941	3.11
417.149	3.07
417.357	3.01
417.564	3.04
417.772	3.13
417.98	3.3
418.188	3.34
418.395	3.3
418.603	3.29
418.811	3.24
419.019	3.02
419.226	3.2
419.434	3.2
419.642	3.08
419.849	2.98
420.057	2.89
420.265	2.83
420.472	2.69
420.68	2.78
420.887	2.92
421.095	3.04
421.302	2.86
421.51	3
421.717	2.9
421.925	3.02
422.132	3.09
422.34	3.15
422.547	3.02
422.755	3.09
422.962	2.92
423.17	2.77
423.377	2.68
423.585	2.71
423.792	2.61
423.999	2.68
424.207	2.66
424.414	2.8
424.621	2.84
424.829	2.86
425.036	2.82
425.243	2.93
425.451	2.93
425.658	2.75
425.865	2.82
426.072	2.74
426.28	2.74
426.487	2.8
426.694	2.87
426.901	2.87
427.108	2.96
427.315	2.93
427.523	2.95
427.73	2.86
427.937	2.81
428.144	2.76
428.351	2.79
428.558	2.66
428.765	2.73
428.972	2.83
429.179	2.71
429.386	2.62
429.593	2.59
429.8	2.61
430.007	2.41
430.214	2.56
430.421	2.66
430.628	2.6
430.835	2.53
431.042	2.62
431.249	2.67
431.456	2.67
431.662	2.72
431.869	2.96
432.076	2.99
432.283	2.85
432.49	2.72
432.697	2.79
432.903	2.54
433.11	2.38
433.317	2.42
433.524	2.56
433.73	2.36
433.937	2.53
434.144	2.69
434.35	2.72
434.557	2.67
434.764	2.7
434.97	2.61
435.177	2.63
435.384	2.58
435.59	2.7
435.797	2.75
436.003	2.79
436.21	2.79
436.416	2.77
436.623	2.68
436.829	2.75
437.036	2.81
437.242	2.77
437.449	2.89
437.655	2.82
437.862	2.7
438.068	2.68
438.275	2.6
438.481	2.56
438.687	2.52
438.894	2.51
439.1	2.3
439.307	2.31
439.513	2.26
439.719	2.32
439.926	2.43
440.132	2.57
440.338	2.64
440.544	2.53
440.751	2.45
440.957	2.33
441.163	2.26
441.369	2.38
441.575	2.49
441.782	2.55
441.988	2.6
442.194	2.66
442.4	2.51
442.606	2.54
442.812	2.58
443.018	2.61
443.224	2.6
443.431	2.61
443.637	2.49
443.843	2.4
444.049	2.34
444.255	2.31
444.461	2.25
444.667	2.38
444.873	2.35
445.079	2.39
445.284	2.35
445.49	2.43
445.696	2.38
445.902	2.45
446.108	2.5
446.314	2.59
446.52	2.58
446.726	2.6
446.931	2.59
447.137	2.58
447.343	2.61
447.549	2.58
447.755	2.58
447.96	2.63
448.166	2.66
448.372	2.64
448.578	2.76
448.783	2.75
448.989	2.73
449.195	2.66
449.4	2.7
449.606	2.51
449.812	2.55
450.017	2.57
450.223	2.6
450.428	2.55
450.634	2.67
450.84	2.66
451.045	2.68
451.251	2.7
451.456	2.68
451.662	2.69
451.867	2.71
452.073	2.62
452.278	2.6
452.483	2.55
452.689	2.44
452.894	2.54
453.1	2.62
453.305	2.64
453.51	2.75
453.716	2.8
453.921	2.68
454.127	2.64
454.332	2.59
454.537	2.59
454.742	2.56
454.948	2.52
455.153	2.52
455.358	2.53
455.563	2.56
455.769	2.56
455.974	2.54
456.179	2.49
456.384	2.35
456.589	2.2
456.795	2.23
457	2.31
457.205	2.36
457.41	2.47
457.615	2.45
457.82	2.47
458.025	2.42
458.23	2.4
458.435	2.35
458.64	2.42
458.845	2.35
459.05	2.34
459.255	2.33
459.46	2.4
459.665	2.48
459.87	2.55
460.075	2.51
460.28	2.62
460.485	2.61
460.69	2.54
460.895	2.5
461.099	2.53
461.304	2.43
461.509	2.49
461.714	2.55
461.919	2.58
462.123	2.62
462.328	2.61
462.533	2.65
462.738	2.64
462.942	2.59
463.147	2.61
463.352	2.76
463.556	2.65
463.761	2.61
463.966	2.62
464.17	2.59
464.375	2.53
464.58	2.58
464.784	2.62
464.989	2.58
465.193	2.59
465.398	2.53
465.602	2.56
465.807	2.54
466.011	2.59
466.216	2.49
466.42	2.48
466.625	2.49
466.829	2.47
467.034	2.49
467.238	2.6
467.443	2.6
467.647	2.59
467.851	2.54
468.056	2.49
468.26	2.51
468.464	2.51
468.669	2.48
468.873	2.52
469.077	2.51
469.282	2.48
469.486	2.47
469.69	2.44
469.894	2.46
470.099	2.57
470.303	2.6
470.507	2.66
470.711	2.67
470.915	2.69
471.119	2.7
471.324	2.67
471.528	2.67
471.732	2.6
471.936	2.58
472.14	2.59
472.344	2.72
472.548	2.72
472.752	2.84
472.956	2.88
473.16	2.91
473.364	2.75
473.568	2.76
473.772	2.72
473.976	2.76
474.18	2.64
474.384	2.66
474.588	2.7
474.792	2.74
474.995	2.68
475.199	2.83
475.403	2.89
475.607	2.84
475.811	2.83
476.015	2.89
476.218	2.82
476.422	2.78
476.626	2.79
476.83	2.79
477.033	2.75
477.237	2.72
477.441	2.75
477.644	2.74
477.848	2.7
478.052	2.64
478.255	2.66
478.459	2.68
478.663	2.76
478.866	2.86
479.07	2.92
479.273	2.95
479.477	2.96
479.681	2.89
479.884	2.8
480.088	2.78
480.291	2.82
480.495	2.8
480.698	2.82
480.901	2.88
481.105	2.89
481.308	2.85
481.512	2.85
481.715	2.89
481.919	2.94
482.122	2.96
482.325	2.99
482.529	2.95
482.732	2.95
482.935	2.89
483.138	2.84
483.342	2.81
483.545	2.89
483.748	2.82
483.952	2.86
484.155	2.9
484.358	2.92
484.561	2.91
484.764	2.97
484.967	2.98
485.171	2.96
485.374	2.94
485.577	2.94
485.78	2.9
485.983	2.86
486.186	2.92
486.389	2.9
486.592	2.91
486.795	3
486.998	3.05
487.201	3.04
487.404	3.04
487.607	3.02
487.81	3
488.013	3.03
488.216	2.98
488.419	2.91
488.622	2.96
488.825	2.89
489.028	2.86
489.231	2.93
489.433	3.02
489.636	2.98
489.839	2.97
490.042	2.97
490.245	2.94
490.447	2.92
490.65	2.92
490.853	2.96
491.056	2.94
491.258	2.93
491.461	2.93
491.664	2.91
491.866	2.89
492.069	2.84
492.272	2.88
492.474	2.86
492.677	2.86
492.879	2.88
493.082	2.95
493.285	2.97
493.487	3.01
493.69	3.03
493.892	3.03
494.095	3.04
494.297	2.95
494.5	2.98
494.702	2.99
494.905	2.99
495.107	2.93
495.309	3
495.512	3.01
495.714	3.03
495.917	3
496.119	3.03
496.321	2.97
496.524	2.97
496.726	2.97
496.928	2.95
497.13	2.98
497.333	3
497.535	2.98
497.737	2.97
497.939	3.03
498.142	3.06
498.344	3.07
498.546	3.09
498.748	3.08
498.95	3.12
499.152	3.04
499.355	3.07
499.557	3.05
499.759	3.12
499.961	3.13
500.163	3.23
500.365	3.24
500.567	3.24
500.769	3.21
500.971	3.17
501.173	3.08
501.375	3.15
501.577	3.16
501.779	3.17
501.981	3.15
502.183	3.26
502.385	3.19
502.587	3.2
502.788	3.19
502.99	3.22
503.192	3.19
503.394	3.17
503.596	3.17
503.798	3.19
503.999	3.22
504.201	3.26
504.403	3.31
504.605	3.31
504.806	3.28
505.008	3.25
505.21	3.23
505.411	3.19
505.613	3.24
505.815	3.25
506.016	3.34
506.218	3.3
506.42	3.34
506.621	3.34
506.823	3.38
507.024	3.32
507.226	3.38
507.427	3.34
507.629	3.37
507.83	3.4
508.032	3.44
508.233	3.5
508.435	3.56
508.636	3.52
508.838	3.51
509.039	3.52
509.24	3.48
509.442	3.46
509.643	3.51
509.845	3.46
510.046	3.46
510.247	3.46
510.448	3.5
510.65	3.49
510.851	3.47
511.052	3.5
511.254	3.58
511.455	3.55
511.656	3.53
511.857	3.58
512.058	3.57
512.26	3.56
512.461	3.63
512.662	3.61
512.863	3.63
513.064	3.63
513.265	3.62
513.466	3.61
513.667	3.71
513.868	3.72
514.069	3.75
514.27	3.71
514.471	3.72
514.672	3.63
514.873	3.57
515.074	3.57
515.275	3.56
515.476	3.52
515.677	3.56
515.878	3.67
516.079	3.67
516.28	3.76
516.481	3.82
516.682	3.85
516.882	3.86
517.083	3.84
517.284	3.83
517.485	3.84
517.686	3.8
517.886	3.78
518.087	3.76
518.288	3.77
518.488	3.79
518.689	3.82
518.89	3.84
519.091	3.88
519.291	3.88
519.492	3.83
519.692	3.85
519.893	3.89
520.094	3.9
520.294	3.9
520.495	3.93
520.695	3.93
520.896	3.88
521.096	3.87
521.297	3.88
521.497	3.92
521.698	3.92
521.898	3.93
522.099	3.98
522.299	4.06
522.499	4.01
522.7	4.08
522.9	4.12
523.101	4.09
523.301	4.04
523.501	4.06
523.702	4.03
523.902	4.01
524.102	4.06
524.302	4.09
524.503	4.12
524.703	4.15
524.903	4.14
525.103	4.1
525.304	4.06
525.504	4.09
525.704	4.11
525.904	4.14
526.104	4.15
526.304	4.15
526.504	4.14
526.705	4.12
526.905	4.08
527.105	4.14
527.305	4.13
527.505	4.11
527.705	4.08
527.905	4.15
528.105	4.1
528.305	4.15
528.505	4.22
528.705	4.29
528.905	4.3
529.105	4.35
529.304	4.35
529.504	4.36
529.704	4.34
529.904	4.36
530.104	4.39
530.304	4.41
530.503	4.36
530.703	4.36
530.903	4.35
531.103	4.36
531.303	4.34
531.502	4.37
531.702	4.38
531.902	4.37
532.101	4.36
532.301	4.42
532.501	4.48
532.7	4.54
532.9	4.58
533.1	4.59
533.299	4.64
533.499	4.58
533.698	4.57
533.898	4.54
534.097	4.55
534.297	4.51
534.496	4.55
534.696	4.58
534.895	4.59
535.095	4.66
535.294	4.68
535.494	4.65
535.693	4.68
535.892	4.72
536.092	4.68
536.291	4.68
536.491	4.73
536.69	4.72
536.889	4.71
537.088	4.72
537.288	4.76
537.487	4.81
537.686	4.77
537.886	4.83
538.085	4.88
538.284	4.9
538.483	4.84
538.682	4.93
538.882	4.9
539.081	4.91
539.28	4.86
539.479	4.9
539.678	4.9
539.877	4.89
540.076	4.93
540.275	5.01
540.474	5.04
540.673	5.05
540.872	5.12
541.071	5.16
541.27	5.2
541.469	5.21
541.668	5.19
541.867	5.22
542.066	5.2
542.265	5.23
542.464	5.26
542.663	5.32
542.862	5.31
543.06	5.37
543.259	5.42
543.458	5.48
543.657	5.58
543.856	5.64
544.054	5.61
544.253	5.6
544.452	5.61
544.651	5.62
544.849	5.67
545.048	5.72
545.247	5.72
545.445	5.73
545.644	5.78
545.843	5.79
546.041	5.81
546.24	5.85
546.438	5.92
546.637	5.94
546.836	6.01
547.034	6.05
547.233	6.13
547.431	6.15
547.63	6.18
547.828	6.2
548.027	6.25
548.225	6.27
548.423	6.3
548.622	6.33
548.82	6.31
549.019	6.36
549.217	6.38
549.415	6.41
549.614	6.46
549.812	6.54
550.01	6.52
550.209	6.58
550.407	6.64
550.605	6.68
550.803	6.69
551.002	6.75
551.2	6.75
551.398	6.76
551.596	6.83
551.794	6.87
551.993	6.99
552.191	7.1
552.389	7.15
552.587	7.19
552.785	7.27
552.983	7.28
553.181	7.29
553.379	7.34
553.577	7.45
553.775	7.51
553.973	7.57
554.171	7.63
554.369	7.7
554.567	7.67
554.765	7.73
554.963	7.83
555.161	7.91
555.359	8.01
555.557	8.12
555.755	8.19
555.952	8.25
556.15	8.33
556.348	8.41
556.546	8.49
556.744	8.59
556.941	8.68
557.139	8.76
557.337	8.8
557.535	8.83
557.732	8.87
557.93	8.88
558.128	8.93
558.325	8.99
558.523	9.03
558.721	9.05
558.918	9.17
559.116	9.22
559.313	9.27
559.511	9.37
559.708	9.53
559.906	9.64
560.104	9.75
560.301	9.88
560.498	10.03
560.696	10.06
560.893	10.07
561.091	10.12
561.288	10.23
561.486	10.22
561.683	10.33
561.88	10.34
562.078	10.47
562.275	10.46
562.473	10.59
562.67	10.68
562.867	10.81
563.064	10.9
563.262	10.97
563.459	11.03
563.656	11.05
563.853	11.11
564.051	11.15
564.248	11.33
564.445	11.4
564.642	11.46
564.839	11.58
565.036	11.61
565.234	11.59
565.431	11.68
565.628	11.85
565.825	11.96
566.022	12.06
566.219	12.16
566.416	12.18
566.613	12.15
566.81	12.19
567.007	12.25
567.204	12.33
567.401	12.42
567.598	12.49
567.795	12.51
567.991	12.63
568.188	12.7
568.385	12.76
568.582	12.88
568.779	12.94
568.976	12.9
569.172	12.95
569.369	12.97
569.566	13.02
569.763	13.14
569.96	13.22
570.156	13.25
570.353	13.27
570.55	13.33
570.746	13.29
570.943	13.37
571.14	13.39
571.336	13.46
571.533	13.48
571.729	13.49
571.926	13.49
572.123	13.52
572.319	13.56
572.516	13.59
572.712	13.73
572.909	13.74
573.105	13.84
573.302	13.87
573.498	13.85
573.695	13.84
573.891	13.81
574.087	13.71
574.284	13.74
574.48	13.77
574.677	13.78
574.873	13.87
575.069	13.95
575.266	13.89
575.462	13.92
575.658	13.88
575.854	13.88
576.051	13.9
576.247	13.95
576.443	13.94
576.639	13.98
576.835	13.95
577.032	13.97
577.228	13.96
577.424	13.95
577.62	13.93
577.816	13.92
578.012	13.88
578.208	13.9
578.404	13.91
578.6	13.94
578.796	13.94
578.993	13.96
579.189	13.91
579.384	13.84
579.58	13.75
579.776	13.73
579.972	13.69
580.168	13.7
580.364	13.77
580.56	13.77
580.756	13.71
580.952	13.71
581.148	13.66
581.343	13.56
581.539	13.56
581.735	13.59
581.931	13.57
582.127	13.59
582.322	13.64
582.518	13.64
582.714	13.59
582.909	13.55
583.105	13.52
583.301	13.45
583.496	13.41
583.692	13.4
583.888	13.37
584.083	13.36
584.279	13.35
584.474	13.32
584.67	13.31
584.866	13.35
585.061	13.28
585.257	13.3
585.452	13.35
585.648	13.38
585.843	13.28
586.039	13.35
586.234	13.28
586.429	13.19
586.625	13.15
586.82	13.19
587.015	13.19
587.211	13.15
587.406	13.21
587.601	13.18
587.797	13.15
587.992	13.05
588.187	13
588.383	12.99
588.578	12.94
588.773	12.98
588.968	13.05
589.163	13.21
589.359	13.21
589.554	13.28
589.749	13.28
589.944	13.24
590.139	13.13
590.334	13.18
590.529	13.23
590.724	13.22
590.919	13.28
591.114	13.4
591.309	13.37
591.504	13.3
591.699	13.34
591.894	13.29
592.089	13.29
592.284	13.26
592.479	13.31
592.674	13.35
592.869	13.47
593.064	13.44
593.259	13.53
593.454	13.56
593.648	13.58
593.843	13.61
594.038	13.62
594.233	13.58
594.428	13.7
594.622	13.78
594.817	13.74
595.012	13.81
595.206	13.9
595.401	13.9
595.596	13.85
595.79	13.98
595.985	14.04
596.18	14.14
596.374	14.18
596.569	14.3
596.763	14.31
596.958	14.47
597.153	14.42
597.347	14.41
597.542	14.47
597.736	14.52
597.931	14.44
598.125	14.62
598.319	14.7
598.514	14.68
598.708	14.71
598.903	14.74
599.097	14.66
599.291	14.73
599.486	14.76
599.68	14.82
599.874	14.86
600.069	14.95
600.263	15.03
600.457	15.11
600.651	15.15
600.846	15.25
601.04	15.16
601.234	15.11
601.428	15.13
601.622	15.07
601.817	15.1
602.011	15.16
602.205	15.19
602.399	15.19
602.593	15.29
602.787	15.2
602.981	15.32
603.175	15.3
603.369	15.28
603.563	15.28
603.757	15.35
603.951	15.27
604.145	15.24
604.339	15.26
604.533	15.14
604.727	15.14
604.921	15.08
605.115	15.1
605.309	15.03
605.502	15.12
605.696	15.05
605.89	15.04
606.084	14.98
606.278	14.93
606.471	14.82
606.665	14.76
606.859	14.77
607.053	14.78
607.246	14.71
607.44	14.6
607.634	14.56
607.827	14.55
608.021	14.42
608.214	14.38
608.408	14.45
608.602	14.47
608.795	14.26
608.989	14.24
609.182	14.17
609.376	14.12
609.569	14.01
609.763	13.99
609.956	13.9
610.15	13.86
610.343	13.78
610.537	13.72
610.73	13.76
610.923	13.71
611.117	13.66
611.31	13.49
611.504	13.48
611.697	13.35
611.89	13.26
612.083	13.24
612.277	13.17
612.47	13.05
612.663	13.03
612.856	13.07
613.05	12.99
613.243	13.03
613.436	12.94
613.629	12.86
613.822	12.78
614.015	12.74
614.209	12.61
614.402	12.57
614.595	12.51
614.788	12.38
614.981	12.23
615.174	12.18
615.367	12.17
615.56	12.11
615.753	12.11
615.946	12.07
616.139	12.08
616.332	12.01
616.525	11.93
616.718	11.82
616.911	11.88
617.103	11.76
617.296	11.7
617.489	11.67
617.682	11.67
617.875	11.6
618.067	11.59
618.26	11.58
618.453	11.57
618.646	11.53
618.838	11.42
619.031	11.33
619.224	11.22
619.417	11.16
619.609	11.13
619.802	11.12
619.994	11.16
620.187	11.22
620.38	11.16
620.572	11.2
620.765	11.22
620.957	11.18
621.15	11.09
621.342	11.05
621.535	10.99
621.727	10.94
621.92	10.88
622.112	10.9
622.305	10.92
622.497	10.92
622.69	10.85
622.882	10.87
623.074	10.83
623.267	10.82
623.459	10.76
623.651	10.81
623.844	10.79
624.036	10.81
624.228	10.79
624.42	10.67
624.613	10.67
624.805	10.62
624.997	10.53
625.189	10.47
625.381	10.48
625.574	10.44
625.766	10.4
625.958	10.35
626.15	10.38
626.342	10.41
626.534	10.32
626.726	10.32
626.918	10.32
627.11	10.23
627.302	10.18
627.494	10.23
627.686	10.18
627.878	10.13
628.07	10.1
628.262	10.02
628.454	9.98
628.646	9.98
628.838	9.99
629.029	9.95
629.221	10
629.413	9.97
629.605	9.93
629.797	9.9
629.989	9.93
630.18	9.88
630.372	9.82
630.564	9.83
630.755	9.76
630.947	9.76
631.139	9.7
631.33	9.69
631.522	9.68
631.714	9.69
631.905	9.65
632.097	9.67
632.289	9.57
632.48	9.48
632.672	9.44
632.863	9.41
633.055	9.43
633.246	9.46
633.438	9.46
633.629	9.45
633.821	9.38
634.012	9.31
634.203	9.33
634.395	9.37
634.586	9.37
634.777	9.38
634.969	9.3
635.16	9.26
635.351	9.17
635.543	9.13
635.734	9.16
635.925	9.16
636.117	9.14
636.308	9.18
636.499	9.15
636.69	9.11
636.881	9.14
637.073	9.11
637.264	9.05
637.455	9.08
637.646	9.09
637.837	9.07
638.028	9.07
638.219	9.12
638.41	9.03
638.601	8.95
638.792	9.01
638.983	8.96
639.174	8.93
639.365	8.96
639.556	8.94
639.747	8.87
639.938	8.88
640.129	8.86
640.32	8.78
640.511	8.8
640.701	8.83
640.892	8.78
641.083	8.73
641.274	8.71
641.465	8.66
641.655	8.59
641.846	8.66
642.037	8.62
642.228	8.65
642.418	8.6
642.609	8.57
642.8	8.4
642.99	8.36
643.181	8.37
643.372	8.41
643.562	8.4
643.753	8.47
643.943	8.45
644.134	8.41
644.324	8.32
644.515	8.28
644.705	8.2
644.896	8.24
645.086	8.21
645.277	8.23
645.467	8.27
645.658	8.29
645.848	8.21
646.038	8.16
646.229	8.22
646.419	8.13
646.61	8.11
646.8	8.12
646.99	8.14
647.18	8.05
647.371	8.01
647.561	8.03
647.751	7.99
647.941	7.94
648.132	7.93
648.322	8
648.512	7.99
648.702	8.04
648.892	8.07
649.082	8.14
649.272	8.13
649.462	8.06
649.653	8.02
649.843	7.93
650.033	7.86
650.223	7.86
650.413	7.85
650.603	7.84
650.793	7.89
650.983	7.82
651.172	7.69
651.362	7.69
651.552	7.66
651.742	7.66
651.932	7.7
652.122	7.76
652.312	7.77
652.502	7.76
652.691	7.71
652.881	7.6
653.071	7.49
653.261	7.38
653.45	7.23
653.64	7.2
653.83	7.23
654.019	7.22
654.209	7.17
654.399	7.17
654.588	7.06
654.778	7
654.968	6.91
655.157	6.83
655.347	6.75
655.536	6.64
655.726	6.51
655.915	6.51
656.105	6.45
656.294	6.35
656.484	6.3
656.673	6.26
656.863	6.18
657.052	6.11
657.241	6.1
657.431	6.08
657.62	6.06
657.809	5.93
657.999	5.84
658.188	5.74
658.377	5.64
658.567	5.5
658.756	5.42
658.945	5.4
659.134	5.29
659.324	5.22
659.513	5.13
659.702	4.98
659.891	4.92
660.08	4.91
660.269	4.87
660.458	4.77
660.648	4.76
660.837	4.65
661.026	4.54
661.215	4.47
661.404	4.47
661.593	4.42
661.782	4.35
661.971	4.34
662.16	4.28
662.349	4.14
662.538	4.09
662.726	3.97
662.915	3.91
663.104	3.84
663.293	3.8
663.482	3.8
663.671	3.87
663.86	3.76
664.048	3.73
664.237	3.71
664.426	3.66
664.615	3.65
664.803	3.61
664.992	3.55
665.181	3.55
665.369	3.53
665.558	3.49
665.747	3.52
665.935	3.52
666.124	3.55
666.312	3.48
666.501	3.33
666.69	3.31
666.878	3.29
667.067	3.22
667.255	3.28
667.444	3.35
667.632	3.41
667.82	3.4
668.009	3.42
668.197	3.47
668.386	3.48
668.574	3.42
668.762	3.41
668.951	3.46
669.139	3.41
669.327	3.47
669.516	3.52
669.704	3.57
669.892	3.53
670.08	3.57
670.269	3.53
670.457	3.53
670.645	3.59
670.833	3.58
671.021	3.59
671.21	3.61
671.398	3.51
671.586	3.47
671.774	3.6
671.962	3.65
672.15	3.64
672.338	3.87
672.526	4.04
672.714	4.02
672.902	3.91
673.09	3.9
673.278	3.92
673.466	3.85
673.654	3.92
673.842	4.03
674.03	4.25
674.218	4.24
674.405	4.38
674.593	4.34
674.781	4.33
674.969	4.3
675.157	4.32
675.344	4.25
675.532	4.32
675.72	4.5
675.908	4.56
676.095	4.63
676.283	4.68
676.471	4.76
676.658	4.77
676.846	4.78
677.033	4.83
677.221	4.89
677.409	4.83
677.596	4.72
677.784	4.7
677.971	4.76
678.159	4.84
678.346	4.95
678.534	5.14
678.721	5.23
678.909	5.31
679.096	5.38
679.283	5.42
679.471	5.37
679.658	5.36
679.846	5.22
680.033	5.19
680.22	5.34
680.408	5.4
680.595	5.56
680.782	5.64
680.969	5.63
681.157	5.57
681.344	5.69
681.531	5.62
681.718	5.81
681.905	5.84
682.093	5.9
682.28	6.04
682.467	6.17
682.654	6.22
682.841	6.35
683.028	6.39
683.215	6.44
683.402	6.48
683.589	6.52
683.776	6.73
683.963	6.84
684.15	6.9
684.337	6.97
684.524	7.01
684.711	7.11
684.898	7.24
685.085	7.4
685.271	7.64
685.458	7.93
685.645	8.02
685.832	8.2
686.019	8.23
686.205	8.37
686.392	8.45
686.579	8.58
686.766	8.67
686.952	8.94
687.139	9.2
687.326	9.55
687.512	9.84
687.699	10.08
687.886	10.26
688.072	10.54
688.259	10.68
688.445	10.88
688.632	11.15
688.818	11.5
689.005	11.63
689.191	11.93
689.378	12.3
689.564	12.71
689.751	13
689.937	13.47
690.124	13.77
690.31	14.16
690.496	14.39
690.683	14.84
690.869	15.05
691.055	15.59
691.242	15.82
691.428	16.42
691.614	16.94
691.8	17.7
691.987	18.15
692.173	18.97
692.359	19.56
692.545	20
692.731	20.44
692.918	21
693.104	21.39
693.29	21.87
693.476	22.37
693.662	22.94
693.848	23.62
694.034	24.12
694.22	24.73
694.406	25.51
694.592	26
694.778	26.67
694.964	27.4
695.15	28.02
695.336	28.65
695.522	29.51
695.708	29.99
695.894	30.65
696.08	31.28
696.265	31.74
696.451	32.35
696.637	33.09
696.823	33.76
697.009	34.57
697.194	35.42
697.38	36.1
697.566	36.76
697.751	37.37
697.937	38.06
698.123	38.81
698.308	39.56
698.494	40.14
698.68	41.06
698.865	41.42
699.051	41.82
699.236	42.48
699.422	43.21
699.607	43.53
699.793	44.47
699.978	45.25
700.164	45.72
700.349	46.14
700.535	46.91
700.72	47.52
700.906	48.15
701.091	48.61
701.276	49.32
701.462	49.87
701.647	50.57
701.832	51.16
702.018	52.02
702.203	52.5
702.388	53.03
702.573	53.45
702.759	53.96
702.944	54.48
703.129	55.15
703.314	55.62
703.499	56.11
703.684	56.4
703.87	56.73
704.055	57.2
704.24	57.45
704.425	57.67
704.61	58.24
704.795	58.65
704.98	59.08
705.165	59.86
705.35	60.63
705.535	61.03
705.72	61.72
705.905	62.32
706.09	62.75
706.275	63.06
706.459	63.61
706.644	63.98
706.829	64.45
707.014	65.08
707.199	65.29
707.384	65.64
707.568	65.73
707.753	66.22
707.938	65.82
708.123	66.22
708.307	66.67
708.492	67
708.677	67.04
708.861	67.78
709.046	68.07
709.231	68.4
709.415	68.41
709.6	68.74
709.784	68.94
709.969	69.34
710.153	69.28
710.338	70.17
710.522	70.13
710.707	70.5
710.891	70.62
711.076	70.93
711.26	71.06
711.445	71.62
711.629	72.08
711.813	72.23
711.998	72.63
712.182	72.57
712.366	72.59
712.551	72.62
712.735	73.18
712.919	73.48
713.103	74.21
713.288	74.33
713.472	74.2
713.656	74.4
713.84	74.32
714.024	74.52
714.208	74.92
714.393	75.49
714.577	75.34
714.761	76.16
714.945	76.25
715.129	76.18
715.313	76.64
715.497	76.99
715.681	76.38
715.865	76.13
716.049	76.85
716.233	76.99
716.417	77.18
716.601	77.62
716.785	78.17
716.968	77.86
717.152	77.7
717.336	77.64
717.52	77.74
717.704	78.01
717.888	78.29
718.071	78.4
718.255	78.99
718.439	79.3
718.622	78.9
718.806	78.84
718.99	78.92
719.174	78.83
719.357	79.24
719.541	79.47
719.724	79.9
719.908	80.47
720.092	80.23
720.275	79.99
720.459	80.71
720.642	80.7
720.826	80
721.009	80.5
721.193	80.74
721.376	80.82
721.559	81.19
721.743	81.61
721.926	82.2
722.11	82.3
722.293	81.76
722.476	81.5
722.66	82.11
722.843	81.74
723.026	81.73
723.21	82.35
723.393	82.66
723.576	82.83
723.759	82.63
723.942	82.93
724.126	82.66
724.309	82.81
724.492	82.8
724.675	83.83
724.858	83.34
725.041	83.57
725.224	83.87
725.407	83.37
725.59	82.83
725.774	83.46
725.957	83.55
726.14	83.78
726.322	84.22
726.505	84.53
726.688	84.7
726.871	84.78
727.054	84.32
727.237	84.67
727.42	84.69
727.603	84.65
727.786	84.56
727.968	85.25
728.151	85.31
728.334	85.26
728.517	85.53
728.699	85.48
728.882	85.04
729.065	85.17
729.248	85.58
729.43	85.47
729.613	85.47
729.796	85.64
729.978	85.31
730.161	84.98
730.343	85.53
730.526	85.96
730.708	86.05
730.891	86.39
731.073	86.54
731.256	86.89
731.438	87.14
731.621	87.31
731.803	87.42
731.986	88.13
732.168	87.44
732.35	87.4
732.533	87.14
732.715	87.14
732.898	87
733.08	87.43
733.262	87.3
733.444	88.05
733.627	88.71
733.809	88.56
733.991	88.03
734.173	88.42
734.355	88.02
734.538	87.64
734.72	88.27
734.902	89.22
735.084	89.65
735.266	90.75
735.448	91.08
735.63	90.77
735.812	90.6
735.994	90.83
736.176	90.03
736.358	90.45
736.54	90.71
736.722	90.54
736.904	90.13
737.086	90.35
737.268	89.84
737.45	88.99
737.632	89.07
737.814	89.33
737.995	89.9
738.177	90.25
738.359	90.59
738.541	90.04
738.723	90.79
738.904	89.98
739.086	90.07
739.268	90.54
739.449	91.82
739.631	91.29
739.813	91.26
739.994	91.53
740.176	91.45
740.358	90.66
740.539	90.5
740.721	90.86
740.902	90.58
741.084	90.76
741.265	91.75
741.447	91.64
741.628	91.5
741.81	91.78
741.991	91.43
742.172	90.07
742.354	90.44
742.535	90.79
742.717	90.58
742.898	90.85
743.079	92.12
743.261	91.97
743.442	92.36
743.623	92.35
743.804	92.46
743.986	91.65
744.167	91.81
744.348	91.39
744.529	90.11
744.71	90.72
744.891	91.45
745.073	92.38
745.254	92.13
745.435	93.51
745.616	92.33
745.797	92.01
745.978	91.69
746.159	91.29
746.34	91.02
746.521	91.6
746.702	91.85
746.883	91.52
747.064	92.86
747.245	92.8
747.426	91.49
747.606	90.33
747.787	89.23
747.968	88.25
748.149	88.63
748.33	90.08
748.51	90.91
748.691	92.41
748.872	93.44
749.053	93
749.233	91.87
749.414	92.04
749.595	90.47
749.775	89.93
749.956	90.93
750.137	91.95
750.317	91.65
750.498	93.55
750.678	94.48
750.859	93.71
751.04	93.86
751.22	93.24
751.4	92.55
751.581	90.66
751.761	89.87
751.942	89.58
752.122	90.43
752.303	90.77
752.483	91.64
752.663	92.76
752.844	92.42
753.024	92.13
753.204	91.47
753.385	91.85
753.565	91.12
753.745	92.71
753.925	92.41
754.106	92.69
754.286	90.74
754.466	90.86
754.646	88.76
754.826	88.2
755.006	87.36
755.187	89.19
755.367	89.09
755.547	88.92
755.727	90.26
755.907	91.12
756.087	91.53
756.267	92.21
756.447	92.58
756.627	91.44
756.807	89.78
756.987	88.52
757.167	88.87
757.346	89.79
757.526	90.41
757.706	92.92
757.886	92.53
758.066	91.08
758.246	90.59
758.425	89.74
758.605	88.69
758.785	89.52
758.965	89.44
759.144	89.22
759.324	89.09
759.504	88.24
759.683	88.47
759.863	88.99
760.043	89.43
760.222	89.81
760.402	90.81
760.581	91.74
760.761	91.22
760.94	90.61
761.12	92.55
761.299	92.95
761.479	91.48
761.658	91.62
761.838	91.15
762.017	90.71
762.197	90.58
762.376	92.21
762.555	91.76
762.735	93.43
762.914	92.81
763.093	91.9
763.273	89.93
763.452	90.76
763.631	91.26
763.81	91.63
763.99	91.85
764.169	93.2
764.348	93.97
764.527	91.46
764.706	91.7
764.885	92.05
765.064	90.73
765.243	90.27
765.423	91.25
765.602	89.67
765.781	88.16
765.96	87.37
766.139	87.7
766.318	88.63
766.497	88.53
766.676	90.52
766.854	91.52
767.033	91.3
767.212	90.43
767.391	91.43
767.57	90.52
767.749	90.38
767.928	89.85
768.106	89.26
768.285	88.97
768.464	88.89
768.643	89.37
768.821	89.76
769	90.59
769.179	90.57
769.357	89.96
769.536	89.65
769.715	89.5
769.893	89
770.072	88.92
770.25	89.1
770.429	88.35
770.607	87.86
770.786	88
770.964	87.68
771.143	88.43
771.321	87.94
771.5	88.67
771.678	89.38
771.857	89.96
772.035	89.26
772.213	90.67
772.392	88.99
772.57	87.61
772.748	86.87
772.927	85.98
773.105	86.35
773.283	86.75
773.461	87.84
773.64	89.63
773.818	89.28
773.996	89.23
774.174	89.25
774.352	86.5
774.531	85.25
774.709	86.23
774.887	85.55
775.065	85.86
775.243	88.17
775.421	87.51
775.599	86.26
775.777	87
775.955	86.14
776.133	87.07
776.311	87.32
776.489	88.98
776.667	87.95
776.844	88.82
777.022	88.13
777.2	88.22
777.378	87.44
777.556	86.66
777.734	88.42
777.911	88.59
778.089	87.36
778.267	89.07
778.445	91.54
778.622	88.94
778.8	89.6
778.978	92.11
779.155	90.8
779.333	88.25
779.511	88.59
779.688	85.82
779.866	85.21
780.043	85.71
780.221	87.18
780.398	86.44
780.576	88.13
780.753	86.38
780.931	84.54
781.108	82.62
781.286	83.47
781.463	82.82
781.64	83.99
781.818	83.69
781.995	86.3
782.172	87.41
782.35	87.19
782.527	87.28
782.704	88.48
782.882	87.39
783.059	86.02
783.236	87.9
783.413	87.99
783.59	88.63
783.768	89.63
783.945	91.96
784.122	90.54
784.299	87.53
784.476	86.02
784.653	81.99
784.83	79.56
785.007	79.66
785.184	81.44
785.361	83.81
785.538	85.17
785.715	86.76
785.892	88.11
786.069	90.53
786.246	90.38
786.423	91.05
786.6	89.21
786.776	87.28
786.953	84.02
787.13	82.44
787.307	82.55
787.484	83.57
787.66	83.95
787.837	87.53
788.014	88.45
788.191	89.59
788.367	87.19
788.544	86.34
788.721	86.18
788.897	88.49
789.074	88.39
789.25	88.31
789.427	90.63
789.603	89.01
789.78	83.6
789.956	84.66
790.133	86.88
790.309	87.61
790.486	86.74
790.662	89.38
790.839	88.61
791.015	88.61
791.192	87.12
791.368	87.38
791.544	88.35
791.721	89.97
791.897	90.41
792.073	91.99
792.249	93.06
792.426	88.6
792.602	86.86
792.778	85.54
792.954	83.44
793.13	82.59
793.307	85.01
793.483	83.56
793.659	84.06
793.835	81.46
794.011	79.04
794.187	80.37
794.363	80.29
794.539	80.42
794.715	83.42
794.891	81.82
795.067	78.71
795.243	78.58
795.419	82.2
795.595	79.21
795.771	79.67
795.947	83.09
796.122	83.21
796.298	79.17
796.474	77.67
796.65	80.96
796.826	79.9
797.001	79.36
797.177	79.49
797.353	84.87
797.529	84.3
797.704	84.69
797.88	86.29
798.056	88.57
798.231	87.67
798.407	89.25
798.582	92.3
798.758	91.85
798.934	89.43
799.109	88.57
799.285	88.13
799.46	82.8
799.636	80.65
799.811	82.69
799.986	84.29
800.162	82.8
800.337	83.99
800.513	87.31
800.688	85.31
800.863	85.02
801.039	82.01
801.214	81.75
801.389	80.97
801.565	81.49
801.74	79.57
801.915	81.21
802.09	85.77
802.265	82.59
802.441	85.04
802.616	86.3
802.791	88.19
802.966	87.37
803.141	88.95
803.316	84.03
803.491	80.68
803.666	81.49
803.841	76.73
804.016	76.2
804.191	78.12
804.366	81.91
804.541	82.05
804.716	83.17
804.891	85.94
805.066	85.43
805.241	79.59
805.416	79.87
805.591	79.19
805.765	77.8
805.94	74.78
806.115	77.61
806.29	78.73
806.464	80.36
806.639	77.39
806.814	79.7
806.989	78.81
807.163	81.23
807.338	74.7
807.512	76.37
807.687	81.45
807.862	77.71
808.036	70.12
808.211	78.4
808.385	85.91
808.56	81.45
808.734	81.99
808.909	83.2
809.083	83.29
809.258	77.06
809.432	77.63
809.606	84.91
809.781	85.66
809.955	86.75
810.13	86.04
810.304	86.6
810.478	84.93
810.652	90.12
810.827	85.89
811.001	90.88
811.175	88.24
811.349	90.79
811.524	83.86
811.698	88.39
811.872	84.82
812.046	94.02
812.22	93.88
812.394	96.35
812.568	101.66
812.742	105.94
812.916	91.85
813.09	91.12
813.264	96.34
813.438	83.83
813.612	76.14
813.786	80.42
813.96	77.18
814.134	75.26
814.308	77.99
814.482	82.13
814.656	77.65
814.83	76.56
815.003	77.37
815.177	79.54
815.351	76.85
815.525	81.56
815.698	76.1
815.872	79.55
816.046	77.81
816.219	78.13
816.393	77.1
816.567	86.72
816.74	77.89
816.914	80.36
817.088	80.46
817.261	81.61
817.435	83.13
817.608	86.02
817.782	87.3
817.955	92.48
818.129	90.4
818.302	89.32
818.475	97.8
818.649	94.09
818.822	98.05
818.996	98.65
819.169	93.89
819.342	79.28
819.516	86.16
819.689	89.77
819.862	90.2
820.035	89.72
820.209	99.09
820.382	91.38
820.555	79.4
820.728	83.09
820.901	82.16
821.075	76.78
821.248	76.49
821.421	81.14
821.594	77.89
821.767	82.88
821.94	93.09
822.113	97.26
822.286	97.28
822.459	106.24
822.632	110.15
822.805	95.4
822.978	90.89
823.151	96.34
823.324	87.25
823.496	81.42
823.669	75.02
823.842	76.88
824.015	77.02
824.188	81.04
824.361	89.9
824.533	101.34
824.706	98.29
824.879	85.88
825.051	96.86
825.224	91.3
825.397	100.39
825.569	100.95
825.742	104.22
825.915	92.51
826.087	98.43
826.26	88.15
826.432	88.47
826.605	86.98
826.777	83.61
826.95	72.17
827.122	75.72
827.295	80.53
827.467	81.94
827.64	87.08
827.812	92.83
827.984	87.07
828.157	81.56
828.329	83.79
828.501	79.67
828.674	73.52
828.846	76.67
829.018	69.83
829.19	63.72
829.363	61.63
829.535	61.37
829.707	58.55
829.879	68.93
830.051	65.68
830.223	83.39
830.395	105.85
830.568	93.95
830.74	95.11
830.912	94.45
831.084	81.51
831.256	76.88
831.428	70.46
831.6	64.88
831.772	61.3
831.943	66.03
832.115	68.7
832.287	78.23
832.459	84.1
832.631	82.07
832.803	92.1
832.975	90.68
833.146	92.37
833.318	94.82
833.49	104.29
833.662	91.32
833.833	95.03
834.005	94.55
834.177	86.6
834.348	79.28
834.52	71.84
834.692	78.9
834.863	73.59
835.035	80.49
835.206	83.04
835.378	92.77
835.549	89.92
835.721	96.4
835.892	93.58
836.064	89.57
836.235	87.79
836.407	88.55
836.578	88.83
836.749	79.14
836.921	77.5
837.092	91.45
837.264	86.27
837.435	79.25
837.606	82.58
837.777	85.28
837.949	72.49
838.12	79.66
838.291	95.46
838.462	110.8
838.633	138.25
838.805	118.9
838.976	99.26
839.147	77.02
839.318	84.66
839.489	92.26
839.66	104.35
839.831	121.25
840.002	123.13
840.173	135.15
840.344	120.1
840.515	96.76
840.686	96.13
840.857	129.01
841.028	105.37
841.199	99.03
841.369	88.57
841.54	94.12
841.711	73.36
841.882	90.3
842.053	102.7
842.223	132.06
842.394	120.44
842.565	115.26
842.736	98.84
842.906	74.55
843.077	65.98
843.248	54.84
843.418	69.09
843.589	81.6
843.759	70.19
843.93	47.63
844.101	66.11
844.271	57.97
844.442	40.38
844.612	58.17
844.783	81.52
844.953	63.74
845.123	63.46
845.294	95.21
845.464	98.4
845.635	76.93
845.805	85.34
845.975	87.6
846.146	69.97
846.316	65.8
846.486	61.69
846.656	70.3
846.827	65.86
846.997	64.17
847.167	61.42
847.337	100.55
847.507	78.43
847.677	99.25
847.848	100.59
848.018	124.73
848.188	99.88
848.358	109.66
848.528	69.7
848.698	54.18
848.868	54.59
849.038	57.61
849.208	69.33
849.378	67.75
849.548	96.89
849.718	61.68
849.887	65.58
850.057	54.31
850.227	67.28
850.397	62.67
850.567	80.21
850.737	102.35
850.906	93.91
851.076	92.82
851.246	91.21
851.415	71.75
851.585	56.88
851.755	143.54
851.924	110.49
852.094	130.17
852.264	124.21
852.433	112.37
852.603	79.4
852.772	87.43
852.942	87.91
853.111	83.87
853.281	104.42
853.45	91.68
853.62	93.97
853.789	79.15
853.959	74.32
854.128	59.98
854.297	44.23
854.467	29.33
854.636	28.3
854.805	3.46
854.975	41.47
855.144	81.81
855.313	88.33
855.482	103.68
855.652	134.65
855.821	75.05
855.99	71.41
856.159	29.6
856.328	19.31
856.497	8.38
856.667	27.39
856.836	36.26
857.005	58.51
857.174	37.69
857.343	54
857.512	53.09
857.681	35.5
857.85	72.45
858.019	72.29
858.188	80.91
858.356	70.84
858.525	65.61
858.694	37.8
858.863	31.81
859.032	31.38
859.201	45.01
859.369	53.95
859.538	89.12
859.707	75.26
859.876	45.79
860.044	35.31
860.213	52.72
860.382	47.01
860.55	55.09
860.719	87.67
860.888	98.79
861.056	104.61
861.225	112.19
861.393	128.87
861.562	148.47
861.73	139.32
861.899	90.81
862.067	77.87
862.236	91.97
862.404	96.6
862.572	77.58
862.741	88.12
862.909	106.5
863.078	64.41
863.246	59.88
863.414	52.43
863.582	73.24
863.751	66.24
863.919	77.04
864.087	78.89
864.255	89.5
864.424	75.23
864.592	80.53
864.76	97.71
864.928	39.58
865.096	57.29
865.264	66.98
865.432	35.55
865.6	63.13
865.768	93.84
865.936	35.47
866.104	44.5
866.272	69.65
866.44	57.17
866.608	65.74
866.776	70.39
866.944	71.19
867.112	71.37
867.28	78.87
867.448	83.56
867.615	78.59
867.783	52.48
867.951	59.66
868.119	50.63
868.286	33.67
868.454	54.83
868.622	67.24
868.789	26.1
868.957	41.53
869.125	82.41
869.292	84.62
869.46	109.41
869.627	150.69
869.795	116.84
869.963	80.2
870.13	79.04
870.298	94.55
870.465	76.36
870.632	77.18
870.8	78.06
870.967	68.21
871.135	67.69
871.302	67.87
871.469	88.11
871.637	125.18
871.804	91.25
871.971	-43.23
872.139	-17.34
872.306	-60.18
872.473	15.93
872.64	31.14
872.807	115.35
872.975	108.69
873.142	57.38
873.309	8.53
873.476	15.19
873.643	15.52
873.81	4.24
873.977	67.06
874.144	113.97
874.311	124.5
874.478	148.03
874.645	170.69
874.812	158.74
874.979	112.71
875.146	134.12
875.313	85.73
875.48	52
875.647	28.59
875.813	41.58
875.98	34.87
876.147	40.64
876.314	61.59
876.481	73.35
876.647	75.2
876.814	80.38
876.981	123.59
877.147	134.67
877.314	134.95
877.481	193.24
877.647	203.03
877.814	83.02
877.98	63.6
878.147	42.52
878.314	10.59
878.48	18.35
878.647	35.54
878.813	39.52
878.979	53.55
879.146	53.41
879.312	54.81
879.479	59.56
879.645	63.54
879.811	58.5
879.978	82.61
880.144	80.46
880.31	102.14
880.477	134.86
880.643	140.27
880.809	79.84
880.975	66.02
881.142	66.12
881.308	82.14
881.474	76.68
881.64	88.76
881.806	147.97
881.972	125.15
882.138	95.88
882.304	76.27
882.47	40.79
882.636	15.84
882.802	18.41
882.968	58.36
883.134	94.54
883.3	116.62
883.466	95.22
883.632	72.81
883.798	74.17
883.964	50.1
884.129	15.4
884.295	-66.91
884.461	-117.13
884.627	-202.38
884.793	-278.41
884.958	-242.37
885.124	-56.56
885.29	-46.55
885.455	-0.1
885.621	50.3
885.787	43.88
885.952	40.86
886.118	47.36
886.283	63.08
886.449	61.27
886.614	43.87
886.78	21.49
886.945	7.73
887.111	19.88
887.276	20.24
887.442	32.58
887.607	42.01
887.773	83.22
887.938	61.08
888.103	54.78
888.269	41.51
888.434	45.99
888.599	63.4
888.764	47.02
888.93	58.05
889.095	75.96
889.26	79.82
889.425	32.47
889.59	49.7
889.756	50.94
889.921	59.51
890.086	35.67
890.251	46.83
890.416	78.29
890.581	74.01
890.746	-4.83
890.911	-86.5
891.076	289.18
891.241	784.51
891.406	200.72
891.571	-63.18
891.736	66.01
891.901	81.12
892.065	181.97
892.23	132.52
892.395	68.5
892.56	258.87
892.725	126.25
892.889	113.34
893.054	99.39
893.219	93.72
893.384	64.71
893.548	39.93
893.713	26
893.878	12.02
