Data from Ofra_PS_Phys_2GT31_Reflection_3.txt Node
Date: Tue Jul 20 14:42:51 EDT 2021
User: USUARIO
Spectrometer: FLMT01687
Trigger mode: 0
Integration Time (sec): 1.200000E0
Scans to average: 2
Electric dark correction enabled: true
Nonlinearity correction enabled: false
Boxcar width: 2
XAxis mode: Wavelengths
Number of Pixels in Spectrum: 3648
>>>>>Begin Spectral Data<<<<<
179.494	116.22
179.716	445.45
179.937	-87.69
180.158	52.14
180.38	70.79
180.601	100.4
180.823	477.78
181.044	359.57
181.265	-399.1
181.486	-320.69
181.708	124.72
181.929	101.16
182.15	233.59
182.372	-1631.71
182.593	276.05
182.814	1340
183.035	5.11
183.257	45.45
183.478	120.21
183.699	62.85
183.92	26.88
184.141	36.42
184.363	65.8
184.584	50.59
184.805	52.87
185.026	57.38
185.247	66.65
185.468	56.52
185.689	56.65
185.91	54.87
186.132	62.7
186.353	64.63
186.574	66.39
186.795	67.32
187.016	65.82
187.237	55.4
187.458	44.9
187.679	52.26
187.9	66.71
188.121	68.12
188.342	79.14
188.563	110.91
188.784	79.1
189.005	91.4
189.226	95.18
189.447	102.64
189.667	87.07
189.888	88.15
190.109	72.44
190.33	70.05
190.551	65.47
190.772	51.47
190.993	56.24
191.214	48.99
191.434	55.84
191.655	56.19
191.876	79.05
192.097	76.84
192.318	74.91
192.538	75.45
192.759	74.78
192.98	68.65
193.201	52.23
193.421	47.97
193.642	42.16
193.863	46.79
194.083	56.55
194.304	71.9
194.525	77.32
194.745	96.33
194.966	105.72
195.187	90.12
195.407	97.76
195.628	71.39
195.848	42.22
196.069	40.63
196.29	47.03
196.51	50.08
196.731	47.99
196.951	54.08
197.172	48.04
197.392	52.68
197.613	46.54
197.833	50.02
198.054	50.45
198.274	48.29
198.495	46.06
198.715	44.44
198.936	38.36
199.156	47.86
199.377	-6.59
199.597	-18.34
199.817	18.57
200.038	17.65
200.258	3.38
200.479	35.89
200.699	23.63
200.919	24.48
201.14	52.77
201.36	62.14
201.58	61.87
201.801	62.08
202.021	60.99
202.241	46.1
202.461	42.61
202.682	46.89
202.902	48.2
203.122	40.08
203.342	46.85
203.563	36.41
203.783	35.98
204.003	26.49
204.223	44.11
204.443	44.71
204.663	48.03
204.884	62.71
205.104	100.63
205.324	91.67
205.544	76.24
205.764	90.27
205.984	62.23
206.204	44.72
206.424	45.91
206.644	50.14
206.864	27.05
207.084	53.62
207.304	42.75
207.525	40.31
207.745	41.46
207.964	50.76
208.184	58.04
208.404	54.77
208.624	58.82
208.844	60.87
209.064	72.55
209.284	52.77
209.504	54.77
209.724	42.47
209.944	45.95
210.164	35.81
210.384	41.86
210.604	53.93
210.823	48.93
211.043	61.55
211.263	53.11
211.483	52.77
211.703	52.39
211.922	64.86
212.142	45.52
212.362	45.68
212.582	32.1
212.801	34.45
213.021	40.86
213.241	48.65
213.461	51.64
213.68	63.87
213.9	56.91
214.12	55.74
214.339	46.66
214.559	41.42
214.779	47.23
214.998	45.77
215.218	31.87
215.438	38.85
215.657	48.55
215.877	41.06
216.096	47.28
216.316	57.12
216.535	49.93
216.755	54.18
216.974	60.32
217.194	51.5
217.413	57.19
217.633	65.38
217.852	78.61
218.072	76.57
218.291	85.42
218.511	75.57
218.73	56.99
218.95	47.13
219.169	42.03
219.389	28.44
219.608	22.53
219.827	46.25
220.047	50.45
220.266	58.09
220.485	79.82
220.705	84.47
220.924	65.15
221.143	58.75
221.363	58.08
221.582	49.45
221.801	35.99
222.021	45.34
222.24	37.94
222.459	23.79
222.678	24.32
222.897	30.97
223.117	14.88
223.336	29.34
223.555	25.54
223.774	30.39
223.993	40.01
224.213	46
224.432	44.3
224.651	54.06
224.87	63.17
225.089	70.78
225.308	81.89
225.527	88.21
225.746	104.81
225.965	107.46
226.184	93.48
226.404	67.99
226.623	65.37
226.842	42.7
227.061	40.94
227.28	44.64
227.499	49.84
227.718	42.11
227.936	66.39
228.155	59.31
228.374	56.32
228.593	51.79
228.812	45.51
229.031	37.85
229.25	33.65
229.469	31.32
229.688	29.26
229.907	39.77
230.125	48.94
230.344	45.7
230.563	55.91
230.782	60.08
231.001	66.42
231.22	63.27
231.438	78.52
231.657	75.63
231.876	86.73
232.095	66.84
232.313	63.87
232.532	69.55
232.751	74.62
232.969	68.44
233.188	73.77
233.407	76.5
233.625	57.63
233.844	43.03
234.063	38.43
234.281	32.89
234.5	33.47
234.719	39.74
234.937	53.07
235.156	74.46
235.374	88.44
235.593	83.06
235.811	78.55
236.03	74.39
236.249	56.86
236.467	48.41
236.686	40.96
236.904	36.95
237.123	34.79
237.341	44.93
237.559	45.98
237.778	60.24
237.996	77.95
238.215	100.46
238.433	76.76
238.652	88.38
238.87	74.12
239.088	55.85
239.307	38.58
239.525	39.92
239.743	43.12
239.962	35.43
240.18	41.26
240.398	34.83
240.617	40.12
240.835	33.93
241.053	43.96
241.271	41.69
241.49	46.21
241.708	49.81
241.926	55.24
242.144	51.71
242.363	65.92
242.581	77.88
242.799	82.8
243.017	59.86
243.235	47.06
243.453	54.04
243.672	35.71
243.89	29.3
244.108	49.49
244.326	48.58
244.544	28.74
244.762	42.03
244.98	41.09
245.198	41.87
245.416	50.43
245.634	55.55
245.852	76.02
246.07	89.1
246.288	76.53
246.506	81.04
246.724	75.21
246.942	42.16
247.16	40.49
247.378	47.61
247.596	50.98
247.814	55.06
248.032	59.33
248.25	47.09
248.468	54.79
248.685	40.78
248.903	36.22
249.121	55.4
249.339	60.86
249.557	59.09
249.775	64.04
249.992	49.01
250.21	37.48
250.428	37.9
250.646	29.59
250.863	36.62
251.081	49.44
251.299	49.19
251.517	55.6
251.734	58.19
251.952	57.31
252.17	49.53
252.387	51.76
252.605	52.06
252.823	37.04
253.04	32.19
253.258	43.55
253.475	51.06
253.693	46.44
253.911	60.14
254.128	73.1
254.346	66.7
254.563	48.6
254.781	51.69
254.998	44.24
255.216	36.91
255.433	37.24
255.651	52.67
255.868	60.52
256.086	61.29
256.303	58.52
256.521	61.1
256.738	57.93
256.956	38.39
257.173	40.95
257.39	40.09
257.608	33.82
257.825	46.79
258.043	48.78
258.26	45.21
258.477	60.36
258.695	55.16
258.912	33.33
259.129	50.62
259.346	48.65
259.564	37.59
259.781	33.55
259.998	51.83
260.216	42.71
260.433	44.19
260.65	56.37
260.867	60.27
261.084	54.8
261.302	56.23
261.519	45.91
261.736	30.27
261.953	36.58
262.17	46.07
262.387	44.79
262.604	54.68
262.822	62.51
263.039	54.79
263.256	47.86
263.473	52.47
263.69	47.64
263.907	39.28
264.124	42.72
264.341	45.61
264.558	38.44
264.775	45.48
264.992	54.94
265.209	79.14
265.426	72.04
265.643	78.84
265.86	69.82
266.077	75.14
266.294	66.48
266.51	63.93
266.727	59.68
266.944	53.15
267.161	35.95
267.378	28.23
267.595	18.9
267.812	18.17
268.028	23.25
268.245	26.96
268.462	32.75
268.679	34.59
268.896	28.17
269.112	40.99
269.329	46.31
269.546	43.98
269.763	47.13
269.979	53.34
270.196	61.01
270.413	51.9
270.629	56.77
270.846	53.94
271.063	45.25
271.279	40.84
271.496	39.78
271.712	53.07
271.929	45.85
272.146	57.04
272.362	51.69
272.579	57.28
272.795	38.94
273.012	44.53
273.228	37.16
273.445	32.55
273.661	34.38
273.878	29.65
274.094	39.06
274.311	34.18
274.527	26.08
274.744	31.34
274.96	35.1
275.177	17.72
275.393	25.8
275.609	43.46
275.826	35.54
276.042	45.62
276.259	36.56
276.475	32.93
276.691	33.11
276.908	36.67
277.124	42.44
277.34	51.11
277.557	61.46
277.773	55.07
277.989	55.49
278.205	44.94
278.422	35.1
278.638	34.93
278.854	46.27
279.07	45.59
279.286	45.72
279.503	55.11
279.719	38.61
279.935	33.5
280.151	35.56
280.367	44.72
280.583	49.91
280.799	68.57
281.016	78.79
281.232	73.01
281.448	67.3
281.664	69.67
281.88	58.71
282.096	44.7
282.312	55.09
282.528	48.3
282.744	41.73
282.96	48.9
283.176	50.65
283.392	37.49
283.608	39.2
283.824	40.01
284.04	26.54
284.256	31.15
284.471	36.76
284.687	35.1
284.903	32.52
285.119	45.99
285.335	58.2
285.551	49.45
285.767	57.86
285.982	71.17
286.198	55.37
286.414	46.04
286.63	58.49
286.846	49.13
287.061	44.78
287.277	54.52
287.493	54.48
287.709	48.14
287.924	47.25
288.14	38.51
288.356	36.38
288.571	32.63
288.787	25.31
289.003	22.35
289.218	15.81
289.434	23.94
289.65	19.88
289.865	21.32
290.081	33.68
290.296	33.33
290.512	21.7
290.727	27.39
290.943	29.43
291.159	13.01
291.374	22.31
291.59	31.52
291.805	35.62
292.021	42.93
292.236	54.54
292.451	67.03
292.667	63
292.882	59.61
293.098	44.79
293.313	60.96
293.529	40.41
293.744	33.78
293.959	21.56
294.175	36.77
294.39	25.09
294.605	38.94
294.821	36.73
295.036	54.46
295.251	63.58
295.467	55.85
295.682	56.61
295.897	63.47
296.112	63.49
296.328	63.6
296.543	77.38
296.758	71.65
296.973	58.49
297.188	70.19
297.404	58.15
297.619	54.14
297.834	54.92
298.049	72.58
298.264	68.41
298.479	69.4
298.694	59.17
298.909	64.08
299.125	58.58
299.34	40.66
299.555	57.35
299.77	62.68
299.985	50.51
300.2	49.81
300.415	55.9
300.63	44.61
300.845	38.24
301.06	52.74
301.275	43.72
301.49	42.57
301.704	41.22
301.919	45.58
302.134	42.28
302.349	47.13
302.564	54.61
302.779	54.09
302.994	50.89
303.209	58.63
303.423	60.14
303.638	46.96
303.853	50.63
304.068	52.63
304.283	48.29
304.497	48.87
304.712	56
304.927	50.55
305.142	64.14
305.356	69.44
305.571	58.05
305.786	58.37
306	59.37
306.215	43.49
306.43	43.61
306.644	60.48
306.859	49.41
307.074	46.34
307.288	40.33
307.503	26.12
307.717	20.54
307.932	16.92
308.147	9.16
308.361	31.94
308.576	36.85
308.79	32.07
309.005	42.23
309.219	48.93
309.434	37.46
309.648	39.62
309.863	26.05
310.077	11.59
310.292	17.63
310.506	12.43
310.72	13.64
310.935	26.6
311.149	35.58
311.364	34.51
311.578	54.07
311.792	56.35
312.007	62.84
312.221	66.08
312.435	70.71
312.649	62.74
312.864	79.93
313.078	78.27
313.292	69.66
313.507	60.72
313.721	52.85
313.935	32.68
314.149	31.16
314.363	35.47
314.578	37.25
314.792	36.99
315.006	42.87
315.22	38.51
315.434	47.54
315.648	57.22
315.862	58.01
316.077	49.32
316.291	48.31
316.505	38.99
316.719	33.24
316.933	46.45
317.147	48.57
317.361	54.64
317.575	59.26
317.789	51.63
318.003	41.85
318.217	51.54
318.431	35.19
318.645	44.91
318.859	36.3
319.073	42.44
319.287	34.71
319.5	33.8
319.714	34.37
319.928	36.26
320.142	28.4
320.356	38.56
320.57	46.48
320.784	39.46
320.997	43.96
321.211	55.15
321.425	53.99
321.639	42.69
321.853	54.38
322.066	53.57
322.28	33.48
322.494	36.08
322.707	41.04
322.921	31.78
323.135	32.86
323.349	43.21
323.562	35.7
323.776	44.15
323.989	51.06
324.203	44.94
324.417	32
324.63	27.71
324.844	19.46
325.057	8.14
325.271	19.99
325.485	19.56
325.698	31.06
325.912	33.9
326.125	41.45
326.339	39.68
326.552	38.37
326.766	18.29
326.979	19.62
327.193	24.13
327.406	26.71
327.619	33.05
327.833	50.22
328.046	53.21
328.26	43.22
328.473	43.14
328.686	56.18
328.9	50.37
329.113	48.02
329.326	48.33
329.54	42.33
329.753	29.44
329.966	30.81
330.179	36.19
330.393	43.01
330.606	49.1
330.819	54.31
331.032	46.4
331.246	37.31
331.459	42.13
331.672	36.73
331.885	38.64
332.098	42.14
332.311	53.75
332.525	53.39
332.738	44.56
332.951	46.7
333.164	52.64
333.377	52.79
333.59	58.42
333.803	68.12
334.016	73.87
334.229	65.97
334.442	59.05
334.655	58.34
334.868	64.18
335.081	58.82
335.294	54.31
335.507	43.43
335.72	27.13
335.933	22.29
336.146	23.03
336.359	34.85
336.572	47.22
336.785	46.98
336.997	34.83
337.21	20.52
337.423	9.34
337.636	8.52
337.849	23.01
338.062	26.99
338.274	33.38
338.487	42.06
338.7	34.57
338.913	28.13
339.125	27.64
339.338	27.12
339.551	15.53
339.763	12.82
339.976	37.74
340.189	50.56
340.402	63.26
340.614	64.44
340.827	71.97
341.039	67.2
341.252	59.24
341.465	49.58
341.677	46.64
341.89	45.75
342.102	40.41
342.315	53.27
342.527	57.41
342.74	63.24
342.952	67.06
343.165	64.3
343.377	51.98
343.59	43.25
343.802	41.04
344.015	36.11
344.227	35.62
344.44	40.5
344.652	50.57
344.864	47.08
345.077	35.68
345.289	42.05
345.502	47.15
345.714	31.76
345.926	28.42
346.139	52.09
346.351	42.16
346.563	39.51
346.775	51.75
346.988	47.95
347.2	38.86
347.412	41.63
347.624	38.14
347.837	30.8
348.049	28.71
348.261	22.13
348.473	33.66
348.685	38.53
348.897	32.61
349.11	34.06
349.322	40.4
349.534	29.72
349.746	20.17
349.958	41.04
350.17	42.79
350.382	33.06
350.594	33.84
350.806	42.27
351.018	36.57
351.23	40.46
351.442	49.25
351.654	43.95
351.866	50.7
352.078	56.6
352.29	48.04
352.502	40.81
352.714	40.88
352.926	29.32
353.138	31.52
353.35	27.64
353.561	24.66
353.773	33.85
353.985	41.93
354.197	32.81
354.409	33.57
354.621	41.45
354.832	30.86
355.044	30.07
355.256	30.69
355.468	25.42
355.679	24.78
355.891	41.05
356.103	51.15
356.314	54.76
356.526	66.48
356.738	60.75
356.949	57.37
357.161	65.27
357.373	59.25
357.584	54.48
357.796	56.12
358.008	51.54
358.219	32.49
358.431	38.5
358.642	45.82
358.854	47.72
359.065	41.23
359.277	33.1
359.488	34.21
359.7	34.18
359.911	28.47
360.123	35.43
360.334	47.64
360.546	44.73
360.757	37.45
360.969	36.13
361.18	31.33
361.391	32.58
361.603	30.27
361.814	30.97
362.025	37.55
362.237	50.76
362.448	39.96
362.659	31.03
362.871	34.41
363.082	27.79
363.293	27.45
363.504	32.12
363.716	35.81
363.927	24.5
364.138	29.71
364.349	24.31
364.56	26.67
364.772	30.69
364.983	36.73
365.194	28.68
365.405	22.04
365.616	30.55
365.827	31.09
366.038	28.76
366.25	31.57
366.461	32.88
366.672	28.7
366.883	34.57
367.094	42.12
367.305	45.78
367.516	41.73
367.727	34.61
367.938	31.44
368.149	22.83
368.36	18.97
368.571	20.26
368.781	22.56
368.992	13.81
369.203	8.96
369.414	5.39
369.625	12.97
369.836	14.36
370.047	25.51
370.258	31.22
370.468	40.33
370.679	36.2
370.89	38.75
371.101	30.46
371.312	24.01
371.522	20.56
371.733	23.35
371.944	29.1
372.155	38.92
372.365	37.64
372.576	40.29
372.787	37.48
372.997	31.47
373.208	28.41
373.419	29.72
373.629	30.16
373.84	34.75
374.05	37.55
374.261	26.13
374.472	35.95
374.682	40.62
374.893	37.66
375.103	37.28
375.314	50.66
375.524	42.39
375.735	35.1
375.945	40.33
376.156	37.87
376.366	31.3
376.577	25.95
376.787	25.86
376.997	28.15
377.208	33.58
377.418	27.84
377.629	39.27
377.839	38.6
378.049	36.34
378.26	32.02
378.47	34.65
378.68	36.48
378.89	37.02
379.101	34.12
379.311	33.82
379.521	41.91
379.732	38.83
379.942	28.17
380.152	31.9
380.362	23.98
380.572	14.3
380.783	14.91
380.993	29.03
381.203	29.04
381.413	32.05
381.623	31.87
381.833	31.46
382.043	26.36
382.253	17.78
382.463	20.74
382.674	21.9
382.884	20.87
383.094	23.35
383.304	30.11
383.514	27.84
383.724	29.36
383.934	29.08
384.144	30.15
384.353	24.36
384.563	25.18
384.773	25.95
384.983	28.5
385.193	29.3
385.403	34.04
385.613	29.75
385.823	23.24
386.033	19.49
386.242	16.85
386.452	15.85
386.662	19.51
386.872	27.42
387.082	22.77
387.291	21.96
387.501	22.69
387.711	21.62
387.921	19.15
388.13	19.96
388.34	21.02
388.55	19.98
388.759	19.68
388.969	18.02
389.179	24.09
389.388	22.27
389.598	19.05
389.807	20.16
390.017	21.03
390.227	15.18
390.436	13.91
390.646	15.06
390.855	15.87
391.065	12.93
391.274	14.07
391.484	15.75
391.693	15.3
391.903	13.95
392.112	15.81
392.322	16.03
392.531	16.04
392.74	15.61
392.95	13.99
393.159	12.58
393.369	13.23
393.578	10.81
393.787	10.95
393.997	12.42
394.206	12.73
394.415	13.13
394.625	15.07
394.834	14.41
395.043	13.21
395.252	12.82
395.462	11.55
395.671	10.1
395.88	9.68
396.089	9.06
396.298	8.77
396.508	9.32
396.717	9.2
396.926	9.55
397.135	9.26
397.344	9.18
397.553	9.41
397.762	9.27
397.971	8.21
398.181	8.54
398.39	8.18
398.599	7.09
398.808	6.87
399.017	7.51
399.226	7.71
399.435	7.77
399.644	7.71
399.853	8.01
400.062	8.01
400.27	7.49
400.479	7.74
400.688	8.18
400.897	7.95
401.106	7.91
401.315	8.13
401.524	7.97
401.733	7.84
401.941	7.9
402.15	7.59
402.359	7.49
402.568	7.66
402.777	7.37
402.985	7.5
403.194	7.54
403.403	7.41
403.612	7.16
403.82	7.14
404.029	6.78
404.238	6.93
404.446	6.89
404.655	6.9
404.864	6.75
405.072	6.84
405.281	6.72
405.489	6.81
405.698	6.76
405.906	6.92
406.115	6.94
406.324	6.72
406.532	6.65
406.741	6.44
406.949	6.25
407.158	6.2
407.366	6.31
407.574	6.42
407.783	6.48
407.991	6.51
408.2	6.67
408.408	6.7
408.617	6.46
408.825	6.58
409.033	6.61
409.242	6.35
409.45	6.26
409.658	6.2
409.867	6.01
410.075	6.06
410.283	6.1
410.491	6.13
410.7	6.12
410.908	6.2
411.116	6.12
411.324	6.08
411.533	6.04
411.741	6.06
411.949	6.05
412.157	6.03
412.365	6.08
412.573	6.08
412.781	6.09
412.99	5.94
413.198	5.88
413.406	5.74
413.614	5.63
413.822	5.58
414.03	5.77
414.238	5.8
414.446	5.78
414.654	5.79
414.862	5.91
415.07	5.85
415.278	5.74
415.486	5.76
415.694	5.72
415.902	5.63
416.109	5.55
416.317	5.67
416.525	5.59
416.733	5.57
416.941	5.51
417.149	5.48
417.357	5.45
417.564	5.56
417.772	5.62
417.98	5.61
418.188	5.53
418.395	5.55
418.603	5.47
418.811	5.57
419.019	5.69
419.226	5.8
419.434	5.77
419.642	5.72
419.849	5.6
420.057	5.47
420.265	5.41
420.472	5.34
420.68	5.49
420.887	5.39
421.095	5.29
421.302	5.28
421.51	5.33
421.717	5.23
421.925	5.22
422.132	5.29
422.34	5.24
422.547	5.11
422.755	5.06
422.962	5.18
423.17	5.32
423.377	5.28
423.585	5.43
423.792	5.43
423.999	5.26
424.207	5.2
424.414	5.3
424.621	5.15
424.829	5.07
425.036	5.07
425.243	4.95
425.451	4.99
425.658	5.12
425.865	5.27
426.072	5.26
426.28	5.2
426.487	5.17
426.694	5.08
426.901	5
427.108	4.99
427.315	5.04
427.523	5
427.73	5.12
427.937	5.2
428.144	5.32
428.351	5.41
428.558	5.46
428.765	5.3
428.972	5.19
429.179	5.09
429.386	5.05
429.593	5.03
429.8	5.08
430.007	5.07
430.214	5.23
430.421	5.23
430.628	5.17
430.835	5.07
431.042	5.2
431.249	5.1
431.456	5.05
431.662	5.12
431.869	5.25
432.076	5.38
432.283	5.41
432.49	5.55
432.697	5.53
432.903	5.45
433.11	5.2
433.317	5.27
433.524	5.25
433.73	5.26
433.937	5.26
434.144	5.25
434.35	5.28
434.557	5.21
434.764	5.17
434.97	5.21
435.177	5.35
435.384	5.34
435.59	5.3
435.797	5.44
436.003	5.46
436.21	5.33
436.416	5.33
436.623	5.48
436.829	5.45
437.036	5.49
437.242	5.55
437.449	5.61
437.655	5.55
437.862	5.47
438.068	5.46
438.275	5.57
438.481	5.58
438.687	5.44
438.894	5.5
439.1	5.64
439.307	5.6
439.513	5.49
439.719	5.68
439.926	5.86
440.132	5.88
440.338	5.93
440.544	6.04
440.751	6.05
440.957	5.94
441.163	5.78
441.369	5.8
441.575	5.73
441.782	5.8
441.988	5.81
442.194	5.8
442.4	5.8
442.606	5.89
442.812	5.85
443.018	5.8
443.224	5.95
443.431	5.9
443.637	5.82
443.843	5.8
444.049	5.84
444.255	5.72
444.461	5.8
444.667	5.85
444.873	5.9
445.079	5.9
445.284	6
445.49	5.96
445.696	5.94
445.902	5.94
446.108	6.03
446.314	6.06
446.52	6.03
446.726	6.11
446.931	6.08
447.137	6.12
447.343	6.1
447.549	6.14
447.755	6.14
447.96	6.19
448.166	6.12
448.372	6.1
448.578	6.15
448.783	6.16
448.989	6.23
449.195	6.17
449.4	6.21
449.606	6.18
449.812	6.2
450.017	6.19
450.223	6.21
450.428	6.26
450.634	6.33
450.84	6.31
451.045	6.26
451.251	6.34
451.456	6.27
451.662	6.22
451.867	6.22
452.073	6.26
452.278	6.23
452.483	6.28
452.689	6.33
452.894	6.27
453.1	6.28
453.305	6.23
453.51	6.18
453.716	6.14
453.921	6.26
454.127	6.21
454.332	6.26
454.537	6.21
454.742	6.23
454.948	6.2
455.153	6.32
455.358	6.32
455.563	6.25
455.769	6.29
455.974	6.3
456.179	6.25
456.384	6.3
456.589	6.47
456.795	6.43
457	6.48
457.205	6.46
457.41	6.44
457.615	6.39
457.82	6.4
458.025	6.37
458.23	6.35
458.435	6.36
458.64	6.32
458.845	6.35
459.05	6.26
459.255	6.32
459.46	6.27
459.665	6.3
459.87	6.31
460.075	6.44
460.28	6.42
460.485	6.45
460.69	6.61
460.895	6.57
461.099	6.56
461.304	6.59
461.509	6.68
461.714	6.58
461.919	6.62
462.123	6.66
462.328	6.69
462.533	6.65
462.738	6.73
462.942	6.7
463.147	6.73
463.352	6.69
463.556	6.73
463.761	6.63
463.966	6.67
464.17	6.65
464.375	6.63
464.58	6.71
464.784	6.71
464.989	6.72
465.193	6.68
465.398	6.71
465.602	6.68
465.807	6.74
466.011	6.81
466.216	6.85
466.42	6.83
466.625	6.84
466.829	6.87
467.034	6.8
467.238	6.84
467.443	6.91
467.647	6.91
467.851	6.95
468.056	7.02
468.26	6.97
468.464	7.09
468.669	7.01
468.873	7.04
469.077	6.96
469.282	7.04
469.486	6.99
469.69	7.13
469.894	7.17
470.099	7.23
470.303	7.27
470.507	7.26
470.711	7.28
470.915	7.32
471.119	7.41
471.324	7.4
471.528	7.48
471.732	7.48
471.936	7.39
472.14	7.33
472.344	7.33
472.548	7.34
472.752	7.37
472.956	7.42
473.16	7.5
473.364	7.47
473.568	7.48
473.772	7.53
473.976	7.55
474.18	7.56
474.384	7.66
474.588	7.64
474.792	7.63
474.995	7.63
475.199	7.62
475.403	7.59
475.607	7.58
475.811	7.67
476.015	7.69
476.218	7.68
476.422	7.67
476.626	7.68
476.83	7.61
477.033	7.59
477.237	7.6
477.441	7.67
477.644	7.74
477.848	7.8
478.052	7.87
478.255	7.89
478.459	7.88
478.663	7.86
478.866	7.86
479.07	7.88
479.273	7.93
479.477	7.95
479.681	8.08
479.884	8.04
480.088	8.02
480.291	8.02
480.495	8.02
480.698	7.93
480.901	7.93
481.105	7.93
481.308	7.89
481.512	7.93
481.715	7.95
481.919	7.99
482.122	8.06
482.325	8.17
482.529	8.19
482.732	8.21
482.935	8.21
483.138	8.16
483.342	8.11
483.545	8.08
483.748	8.11
483.952	8.1
484.155	8.16
484.358	8.17
484.561	8.2
484.764	8.19
484.967	8.2
485.171	8.16
485.374	8.11
485.577	8.08
485.78	8.09
485.983	8.15
486.186	8.18
486.389	8.26
486.592	8.28
486.795	8.25
486.998	8.2
487.201	8.21
487.404	8.13
487.607	8.1
487.81	8.13
488.013	8.15
488.216	8.15
488.419	8.19
488.622	8.21
488.825	8.17
489.028	8.12
489.231	8.17
489.433	8.2
489.636	8.22
489.839	8.29
490.042	8.33
490.245	8.26
490.447	8.22
490.65	8.22
490.853	8.26
491.056	8.22
491.258	8.22
491.461	8.31
491.664	8.29
491.866	8.23
492.069	8.3
492.272	8.28
492.474	8.23
492.677	8.26
492.879	8.32
493.082	8.29
493.285	8.37
493.487	8.39
493.69	8.42
493.892	8.33
494.095	8.34
494.297	8.33
494.5	8.35
494.702	8.31
494.905	8.36
495.107	8.32
495.309	8.31
495.512	8.3
495.714	8.38
495.917	8.43
496.119	8.5
496.321	8.56
496.524	8.6
496.726	8.52
496.928	8.55
497.13	8.57
497.333	8.56
497.535	8.55
497.737	8.57
497.939	8.63
498.142	8.65
498.344	8.64
498.546	8.7
498.748	8.79
498.95	8.7
499.152	8.73
499.355	8.79
499.557	8.75
499.759	8.81
499.961	8.89
500.163	8.88
500.365	8.95
500.567	8.96
500.769	8.97
500.971	8.92
501.173	8.96
501.375	8.95
501.577	9.01
501.779	9.05
501.981	9.1
502.183	9.14
502.385	9.15
502.587	9.16
502.788	9.11
502.99	9.16
503.192	9.19
503.394	9.21
503.596	9.27
503.798	9.4
503.999	9.4
504.201	9.45
504.403	9.47
504.605	9.45
504.806	9.41
505.008	9.49
505.21	9.5
505.411	9.51
505.613	9.57
505.815	9.61
506.016	9.65
506.218	9.68
506.42	9.68
506.621	9.67
506.823	9.64
507.024	9.62
507.226	9.69
507.427	9.78
507.629	9.9
507.83	10.02
508.032	10.11
508.233	10.13
508.435	10.14
508.636	10.06
508.838	10.03
509.039	9.95
509.24	9.97
509.442	10.03
509.643	10.11
509.845	10.16
510.046	10.25
510.247	10.26
510.448	10.23
510.65	10.29
510.851	10.29
511.052	10.35
511.254	10.35
511.455	10.45
511.656	10.44
511.857	10.51
512.058	10.48
512.26	10.52
512.461	10.5
512.662	10.56
512.863	10.53
513.064	10.59
513.265	10.63
513.466	10.71
513.667	10.7
513.868	10.79
514.069	10.8
514.27	10.75
514.471	10.72
514.672	10.79
514.873	10.77
515.074	10.84
515.275	10.96
515.476	10.95
515.677	10.92
515.878	11.01
516.079	11.01
516.28	10.99
516.481	11.05
516.682	11.11
516.882	11.07
517.083	11.05
517.284	11.07
517.485	11.11
517.686	11.12
517.886	11.09
518.087	11.14
518.288	11.2
518.488	11.24
518.689	11.22
518.89	11.21
519.091	11.25
519.291	11.26
519.492	11.21
519.692	11.27
519.893	11.37
520.094	11.4
520.294	11.42
520.495	11.45
520.695	11.42
520.896	11.46
521.096	11.54
521.297	11.51
521.497	11.59
521.698	11.68
521.898	11.72
522.099	11.67
522.299	11.76
522.499	11.76
522.7	11.77
522.9	11.78
523.101	11.79
523.301	11.8
523.501	11.89
523.702	11.84
523.902	11.89
524.102	11.94
524.302	11.86
524.503	11.8
524.703	11.89
524.903	11.83
525.103	11.86
525.304	11.93
525.504	11.97
525.704	11.96
525.904	12.08
526.104	12.13
526.304	12.16
526.504	12.21
526.705	12.32
526.905	12.3
527.105	12.3
527.305	12.36
527.505	12.35
527.705	12.37
527.905	12.39
528.105	12.4
528.305	12.43
528.505	12.45
528.705	12.45
528.905	12.45
529.105	12.49
529.304	12.54
529.504	12.65
529.704	12.65
529.904	12.71
530.104	12.75
530.304	12.75
530.503	12.72
530.703	12.72
530.903	12.75
531.103	12.75
531.303	12.74
531.502	12.77
531.702	12.86
531.902	12.86
532.101	12.89
532.301	12.94
532.501	12.99
532.7	13.04
532.9	13.08
533.1	13.1
533.299	13.11
533.499	13.16
533.698	13.13
533.898	13.2
534.097	13.28
534.297	13.38
534.496	13.34
534.696	13.4
534.895	13.4
535.095	13.45
535.294	13.43
535.494	13.53
535.693	13.6
535.892	13.7
536.092	13.69
536.291	13.77
536.491	13.82
536.69	13.84
536.889	13.84
537.088	13.91
537.288	13.96
537.487	13.97
537.686	13.98
537.886	13.97
538.085	13.98
538.284	13.99
538.483	14.05
538.682	14.12
538.882	14.18
539.081	14.27
539.28	14.32
539.479	14.34
539.678	14.41
539.877	14.46
540.076	14.49
540.275	14.54
540.474	14.56
540.673	14.55
540.872	14.6
541.071	14.62
541.27	14.67
541.469	14.77
541.668	14.84
541.867	14.93
542.066	15.02
542.265	15.05
542.464	15.08
542.663	15.11
542.862	15.14
543.06	15.16
543.259	15.2
543.458	15.25
543.657	15.42
543.856	15.49
544.054	15.6
544.253	15.69
544.452	15.81
544.651	15.77
544.849	15.8
545.048	15.84
545.247	15.97
545.445	15.93
545.644	15.98
545.843	16.08
546.041	16.14
546.24	16.12
546.438	16.23
546.637	16.36
546.836	16.38
547.034	16.49
547.233	16.58
547.431	16.66
547.63	16.74
547.828	16.88
548.027	16.91
548.225	17.03
548.423	17.12
548.622	17.19
548.82	17.28
549.019	17.34
549.217	17.44
549.415	17.56
549.614	17.64
549.812	17.7
550.01	17.81
550.209	17.85
550.407	17.94
550.605	18.04
550.803	18.08
551.002	18.25
551.2	18.33
551.398	18.44
551.596	18.56
551.794	18.69
551.993	18.71
552.191	18.83
552.389	18.96
552.587	19.05
552.785	19.19
552.983	19.39
553.181	19.49
553.379	19.57
553.577	19.65
553.775	19.81
553.973	19.85
554.171	20
554.369	20.19
554.567	20.36
554.765	20.33
554.963	20.46
555.161	20.53
555.359	20.56
555.557	20.61
555.755	20.76
555.952	20.93
556.15	21.04
556.348	21.15
556.546	21.23
556.744	21.43
556.941	21.46
557.139	21.53
557.337	21.6
557.535	21.8
557.732	21.91
557.93	22.01
558.128	22.25
558.325	22.46
558.523	22.63
558.721	22.77
558.918	22.96
559.116	23.08
559.313	23.21
559.511	23.32
559.708	23.36
559.906	23.52
560.104	23.65
560.301	23.78
560.498	23.89
560.696	24.09
560.893	24.2
561.091	24.23
561.288	24.42
561.486	24.51
561.683	24.6
561.88	24.7
562.078	24.92
562.275	25.04
562.473	25.23
562.67	25.39
562.867	25.54
563.064	25.63
563.262	25.78
563.459	25.88
563.656	26
563.853	26.15
564.051	26.23
564.248	26.34
564.445	26.53
564.642	26.62
564.839	26.76
565.036	27.01
565.234	27.13
565.431	27.11
565.628	27.28
565.825	27.3
566.022	27.33
566.219	27.42
566.416	27.57
566.613	27.71
566.81	27.93
567.007	28.07
567.204	28.07
567.401	28.18
567.598	28.19
567.795	28.21
567.991	28.24
568.188	28.42
568.385	28.5
568.582	28.61
568.779	28.7
568.976	28.85
569.172	28.96
569.369	29.05
569.566	29.11
569.763	29.1
569.96	29.11
570.156	29.08
570.353	29.12
570.55	29.23
570.746	29.38
570.943	29.53
571.14	29.59
571.336	29.66
571.533	29.7
571.729	29.71
571.926	29.7
572.123	29.85
572.319	29.93
572.516	30.02
572.712	30.05
572.909	30.1
573.105	30.07
573.302	30.06
573.498	30.07
573.695	30.16
573.891	30.18
574.087	30.16
574.284	30.32
574.48	30.29
574.677	30.24
574.873	30.27
575.069	30.4
575.266	30.3
575.462	30.33
575.658	30.36
575.854	30.44
576.051	30.42
576.247	30.4
576.443	30.36
576.639	30.4
576.835	30.35
577.032	30.28
577.228	30.36
577.424	30.45
577.62	30.48
577.816	30.56
578.012	30.61
578.208	30.51
578.404	30.57
578.6	30.63
578.796	30.52
578.993	30.62
579.189	30.69
579.384	30.68
579.58	30.61
579.776	30.67
579.972	30.55
580.168	30.56
580.364	30.49
580.56	30.51
580.756	30.41
580.952	30.39
581.148	30.34
581.343	30.36
581.539	30.32
581.735	30.38
581.931	30.36
582.127	30.31
582.322	30.21
582.518	30.17
582.714	30.04
582.909	30.04
583.105	30.08
583.301	30.06
583.496	30.02
583.692	30.01
583.888	29.98
584.083	29.91
584.279	29.83
584.474	29.8
584.67	29.85
584.866	29.82
585.061	29.86
585.257	29.9
585.452	29.95
585.648	29.91
585.843	29.84
586.039	29.8
586.234	29.76
586.429	29.78
586.625	29.78
586.82	29.74
587.015	29.77
587.211	29.77
587.406	29.73
587.601	29.74
587.797	29.85
587.992	29.81
588.187	29.86
588.383	29.85
588.578	29.8
588.773	29.81
588.968	29.8
589.163	29.73
589.359	29.71
589.554	29.87
589.749	29.84
589.944	29.88
590.139	30.04
590.334	30.05
590.529	30.03
590.724	30.05
590.919	29.98
591.114	29.98
591.309	30.04
591.504	30.01
591.699	30.05
591.894	30.1
592.089	30.13
592.284	30.13
592.479	30.17
592.674	30.18
592.869	30.35
593.064	30.43
593.259	30.55
593.454	30.66
593.648	30.71
593.843	30.78
594.038	30.87
594.233	31.06
594.428	31.13
594.622	31.31
594.817	31.38
595.012	31.48
595.206	31.41
595.401	31.56
595.596	31.56
595.79	31.61
595.985	31.62
596.18	31.71
596.374	31.65
596.569	31.82
596.763	31.88
596.958	32.05
597.153	32.12
597.347	32.24
597.542	32.23
597.736	32.36
597.931	32.34
598.125	32.55
598.319	32.64
598.514	32.75
598.708	32.85
598.903	33.02
599.097	33.05
599.291	33.14
599.486	33.28
599.68	33.33
599.874	33.45
600.069	33.45
600.263	33.52
600.457	33.59
600.651	33.6
600.846	33.57
601.04	33.7
601.234	33.69
601.428	33.74
601.622	33.83
601.817	33.92
602.011	33.97
602.205	34.06
602.399	34.02
602.593	34
602.787	33.96
602.981	33.86
603.175	33.91
603.369	33.9
603.563	34.01
603.757	33.97
603.951	34
604.145	33.96
604.339	34.02
604.533	33.9
604.727	33.92
604.921	33.87
605.115	33.77
605.309	33.71
605.502	33.69
605.696	33.63
605.89	33.49
606.084	33.45
606.278	33.32
606.471	33.4
606.665	33.29
606.859	33.39
607.053	33.33
607.246	33.34
607.44	33.2
607.634	33.17
607.827	33.08
608.021	32.9
608.214	32.86
608.408	32.7
608.602	32.6
608.795	32.54
608.989	32.58
609.182	32.43
609.376	32.36
609.569	32.32
609.763	32.09
609.956	32.07
610.15	31.92
610.343	31.91
610.537	31.84
610.73	31.91
610.923	31.76
611.117	31.74
611.31	31.57
611.504	31.52
611.697	31.35
611.89	31.28
612.083	31.2
612.277	31.07
612.47	30.82
612.663	30.67
612.856	30.55
613.05	30.48
613.243	30.38
613.436	30.31
613.629	30.27
613.822	30.24
614.015	30.19
614.209	30.13
614.402	30.12
614.595	30.09
614.788	29.96
614.981	29.89
615.174	29.77
615.367	29.7
615.56	29.55
615.753	29.47
615.946	29.29
616.139	29.25
616.332	29.21
616.525	29.2
616.718	29.11
616.911	29.09
617.103	29.08
617.296	28.95
617.489	28.87
617.682	28.82
617.875	28.79
618.067	28.71
618.26	28.64
618.453	28.58
618.646	28.51
618.838	28.46
619.031	28.37
619.224	28.37
619.417	28.35
619.609	28.34
619.802	28.19
619.994	28.17
620.187	28.03
620.38	28.01
620.572	27.97
620.765	27.98
620.957	27.84
621.15	27.8
621.342	27.67
621.535	27.56
621.727	27.48
621.92	27.5
622.112	27.51
622.305	27.56
622.497	27.53
622.69	27.48
622.882	27.51
623.074	27.39
623.267	27.38
623.459	27.42
623.651	27.35
623.844	27.35
624.036	27.39
624.228	27.26
624.42	27.27
624.613	27.3
624.805	27.11
624.997	27.14
625.189	27.12
625.381	27.03
625.574	27.01
625.766	27.1
625.958	26.97
626.15	26.94
626.342	26.86
626.534	26.75
626.726	26.72
626.918	26.72
627.11	26.72
627.302	26.68
627.494	26.68
627.686	26.53
627.878	26.52
628.07	26.44
628.262	26.42
628.454	26.35
628.646	26.35
628.838	26.28
629.029	26.21
629.221	26.13
629.413	26.11
629.605	26.08
629.797	26.02
629.989	26.06
630.18	26.1
630.372	26.11
630.564	26.1
630.755	26.13
630.947	26.01
631.139	25.9
631.33	25.84
631.522	25.84
631.714	25.74
631.905	25.78
632.097	25.7
632.289	25.71
632.48	25.61
632.672	25.55
632.863	25.44
633.055	25.5
633.246	25.36
633.438	25.39
633.629	25.46
633.821	25.48
634.012	25.44
634.203	25.52
634.395	25.46
634.586	25.33
634.777	25.32
634.969	25.24
635.16	25.15
635.351	25.12
635.543	25.2
635.734	25.2
635.925	25.18
636.117	25.26
636.308	25.31
636.499	25.24
636.69	25.12
636.881	25.11
637.073	25.1
637.264	25.03
637.455	25.01
637.646	25.1
637.837	25.1
638.028	25.06
638.219	25.07
638.41	25.07
638.601	24.97
638.792	25.05
638.983	25.01
639.174	24.94
639.365	24.87
639.556	24.82
639.747	24.64
639.938	24.59
640.129	24.63
640.32	24.7
640.511	24.74
640.701	24.72
640.892	24.67
641.083	24.61
641.274	24.52
641.465	24.47
641.655	24.51
641.846	24.5
642.037	24.45
642.228	24.41
642.418	24.35
642.609	24.34
642.8	24.33
642.99	24.3
643.181	24.24
643.372	24.17
643.562	24.13
643.753	24.12
643.943	24.03
644.134	24.02
644.324	24.09
644.515	24.07
644.705	24.03
644.896	24.08
645.086	24
645.277	23.85
645.467	23.75
645.658	23.71
645.848	23.53
646.038	23.51
646.229	23.59
646.419	23.5
646.61	23.42
646.8	23.48
646.99	23.53
647.18	23.48
647.371	23.43
647.561	23.49
647.751	23.49
647.941	23.38
648.132	23.3
648.322	23.27
648.512	23.18
648.702	23.12
648.892	23.08
649.082	23.07
649.272	23.06
649.462	23.04
649.653	22.93
649.843	22.94
650.033	22.83
650.223	22.8
650.413	22.8
650.603	22.84
650.793	22.77
650.983	22.82
651.172	22.89
651.362	22.75
651.552	22.69
651.742	22.64
651.932	22.56
652.122	22.41
652.312	22.32
652.502	22.17
652.691	22.13
652.881	22.08
653.071	22.04
653.261	21.95
653.45	21.86
653.64	21.72
653.83	21.51
654.019	21.29
654.209	21.21
654.399	21.09
654.588	20.97
654.778	20.82
654.968	20.76
655.157	20.59
655.347	20.43
655.536	20.17
655.726	19.99
655.915	19.79
656.105	19.63
656.294	19.45
656.484	19.34
656.673	19.25
656.863	19.07
657.052	18.96
657.241	18.76
657.431	18.57
657.62	18.35
657.809	18.08
657.999	17.74
658.188	17.44
658.377	17.27
658.567	17.06
658.756	16.9
658.945	16.77
659.134	16.62
659.324	16.38
659.513	16.16
659.702	15.9
659.891	15.64
660.08	15.45
660.269	15.27
660.458	15.02
660.648	14.88
660.837	14.69
661.026	14.48
661.215	14.24
661.404	14.03
661.593	13.72
661.782	13.54
661.971	13.3
662.16	13.16
662.349	13
662.538	12.91
662.726	12.74
662.915	12.65
663.104	12.42
663.293	12.28
663.482	12.07
663.671	11.95
663.86	11.77
664.048	11.65
664.237	11.4
664.426	11.37
664.615	11.1
664.803	10.99
664.992	10.8
665.181	10.71
665.369	10.54
665.558	10.51
665.747	10.34
665.935	10.26
666.124	10.18
666.312	10.09
666.501	10.02
666.69	9.89
666.878	9.81
667.067	9.72
667.255	9.58
667.444	9.47
667.632	9.41
667.82	9.29
668.009	9.16
668.197	9.13
668.386	9.13
668.574	9.12
668.762	9.09
668.951	9.16
669.139	9.08
669.327	8.96
669.516	8.95
669.704	8.88
669.892	8.84
670.08	8.78
670.269	8.8
670.457	8.76
670.645	8.71
670.833	8.63
671.021	8.61
671.21	8.61
671.398	8.58
671.586	8.58
671.774	8.62
671.962	8.71
672.15	8.74
672.338	8.72
672.526	8.84
672.714	8.78
672.902	8.7
673.09	8.68
673.278	8.77
673.466	8.74
673.654	8.79
673.842	8.89
674.03	8.96
674.218	8.88
674.405	8.9
674.593	8.9
674.781	8.91
674.969	8.88
675.157	8.98
675.344	9.06
675.532	9.13
675.72	9.19
675.908	9.25
676.095	9.23
676.283	9.25
676.471	9.37
676.658	9.47
676.846	9.55
677.033	9.7
677.221	9.78
677.409	9.82
677.596	9.86
677.784	9.91
677.971	9.88
678.159	10
678.346	10.04
678.534	10.2
678.721	10.36
678.909	10.57
679.096	10.46
679.283	10.53
679.471	10.53
679.658	10.56
679.846	10.54
680.033	10.85
680.22	10.94
680.408	10.99
680.595	11.21
680.782	11.41
680.969	11.5
681.157	11.71
681.344	11.89
681.531	11.94
681.718	12.08
681.905	12.35
682.093	12.39
682.28	12.59
682.467	12.78
682.654	12.94
682.841	12.99
683.028	13.31
683.215	13.47
683.402	13.62
683.589	13.93
683.776	14.16
683.963	14.41
684.15	14.76
684.337	15.11
684.524	15.43
684.711	15.68
684.898	16.02
685.085	16.3
685.271	16.66
685.458	16.95
685.645	17.34
685.832	17.72
686.019	18.05
686.205	18.44
686.392	18.73
686.579	19.24
686.766	19.49
686.952	19.89
687.139	20.22
687.326	20.71
687.512	21.15
687.699	21.71
687.886	22.32
688.072	22.79
688.259	23.29
688.445	23.79
688.632	24.48
688.818	25.08
689.005	25.78
689.191	26.39
689.378	26.99
689.564	27.54
689.751	27.96
689.937	28.61
690.124	29.16
690.31	29.79
690.496	30.37
690.683	31.1
690.869	31.74
691.055	32.51
691.242	33.39
691.428	33.97
691.614	34.79
691.8	35.41
691.987	35.95
692.173	36.5
692.359	37.42
692.545	37.98
692.731	38.78
692.918	39.67
693.104	40.35
693.29	41.01
693.476	41.93
693.662	42.8
693.848	43.64
694.034	44.38
694.22	45.08
694.406	45.76
694.592	46.28
694.778	46.84
694.964	47.62
695.15	48.55
695.336	49.3
695.522	50.05
695.708	50.81
695.894	51.48
696.08	51.96
696.265	52.53
696.451	53.31
696.637	53.97
696.823	54.78
697.009	55.57
697.194	56.35
697.38	56.8
697.566	57.7
697.751	58.09
697.937	58.6
698.123	59.31
698.308	60.31
698.494	60.58
698.68	61.36
698.865	62.07
699.051	62.53
699.236	62.8
699.422	63.49
699.607	63.98
699.793	64.83
699.978	65.37
700.164	66.25
700.349	66.81
700.535	67.55
700.72	67.75
700.906	68.22
701.091	68.81
701.276	69.36
701.462	69.8
701.647	70.2
701.832	70.61
702.018	70.78
702.203	71.23
702.388	71.51
702.573	71.98
702.759	72.21
702.944	72.38
703.129	72.99
703.314	73.21
703.499	73.74
703.684	74.52
703.87	74.86
704.055	75.03
704.24	75.43
704.425	75.49
704.61	75.97
704.795	76.47
704.98	76.99
705.165	77.6
705.35	78.21
705.535	78.51
705.72	78.77
705.905	78.89
706.09	79.18
706.275	79.66
706.459	79.44
706.644	79.91
706.829	79.96
707.014	80.12
707.199	80.01
707.384	80.27
707.568	80.14
707.753	80.54
707.938	80.49
708.123	80.87
708.307	81.18
708.492	81.9
708.677	82.12
708.861	82.5
709.046	82.51
709.231	82.74
709.415	82.98
709.6	83.19
709.784	83.48
709.969	83.69
710.153	83.9
710.338	83.93
710.522	84.07
710.707	84.16
710.891	84.59
711.076	84.61
711.26	84.83
711.445	84.91
711.629	84.82
711.813	84.68
711.998	85.5
712.182	85.44
712.366	85.6
712.551	86.32
712.735	86.71
712.919	86.32
713.103	86.59
713.288	86.84
713.472	86.64
713.656	86.4
713.84	86.74
714.024	86.6
714.208	86.36
714.393	86.35
714.577	86.45
714.761	86.16
714.945	86.49
715.129	87.13
715.313	87.06
715.497	86.99
715.681	87.43
715.865	87.37
716.049	87.19
716.233	87.63
716.417	87.69
716.601	87.82
716.785	88.06
716.968	87.96
717.152	88.2
717.336	88.92
717.52	88.6
717.704	88.74
717.888	88.77
718.071	88.23
718.255	87.83
718.439	88.44
718.622	88.52
718.806	88.84
718.99	89.28
719.174	89.96
719.357	89.8
719.541	89.99
719.724	89.84
719.908	89.9
720.092	89.81
720.275	89.91
720.459	89.82
720.642	90.03
720.826	90.11
721.009	89.81
721.193	90.03
721.376	89.78
721.559	89.91
721.743	89.84
721.926	90.43
722.11	90.1
722.293	90.3
722.476	89.97
722.66	90.18
722.843	89.93
723.026	89.77
723.21	89.32
723.393	89.69
723.576	90.04
723.759	90.11
723.942	90.29
724.126	90.88
724.309	90.65
724.492	90.5
724.675	90.64
724.858	90.69
725.041	90.29
725.224	90.79
725.407	90.84
725.59	90.56
725.774	91
725.957	91.3
726.14	91.55
726.322	91.37
726.505	91.88
726.688	92.05
726.871	92.63
727.054	92.3
727.237	92.52
727.42	92.46
727.603	92.47
727.786	92.02
727.968	92.33
728.151	92.12
728.334	91.22
728.517	90.99
728.699	91.13
728.882	90.78
729.065	91.04
729.248	92.22
729.43	92.73
729.613	92.96
729.796	93.46
729.978	93.29
730.161	93.3
730.343	92.77
730.526	92.76
730.708	92.34
730.891	92.13
731.073	91.94
731.256	92.58
731.438	92.87
731.621	92.91
731.803	93.46
731.986	92.94
732.168	92.88
732.35	92.16
732.533	92.16
732.715	92.25
732.898	92.9
733.08	92.17
733.262	92.58
733.444	93.19
733.627	92.97
733.809	93.01
733.991	93.13
734.173	92.99
734.355	92.21
734.538	92.29
734.72	92.19
734.902	91.94
735.084	92.33
735.266	92.35
735.448	92.44
735.63	91.98
735.812	92.9
735.994	92.05
736.176	92.58
736.358	92.78
736.54	93.45
736.722	93.58
736.904	94.15
737.086	94.03
737.268	93.98
737.45	93.59
737.632	93.06
737.814	93.1
737.995	92.55
738.177	92.62
738.359	92.34
738.541	91.5
738.723	91.6
738.904	92.34
739.086	92.75
739.268	93.87
739.449	94.9
739.631	95.21
739.813	95.83
739.994	95.04
740.176	93.84
740.358	93.91
740.539	93.81
740.721	92.73
740.902	93.45
741.084	94.13
741.265	94.69
741.447	93.89
741.628	93.16
741.81	92.4
741.991	92.42
742.172	91.85
742.354	92.73
742.535	94.35
742.717	94.58
742.898	95.19
743.079	95.61
743.261	95.16
743.442	94.68
743.623	95.2
743.804	94.4
743.986	93.31
744.167	93.59
744.348	94.3
744.529	93.2
744.71	93.42
744.891	94.19
745.073	94.29
745.254	93.51
745.435	93.36
745.616	93.51
745.797	93.2
745.978	93.2
746.159	93.04
746.34	93.97
746.521	93.24
746.702	93.46
746.883	92.99
747.064	93.55
747.245	93.55
747.426	93.99
747.606	93.71
747.787	94.78
747.968	94.5
748.149	94.2
748.33	94.06
748.51	94.42
748.691	94.1
748.872	93.84
749.053	93.71
749.233	94.1
749.414	93.78
749.595	93.91
749.775	93.81
749.956	93.05
750.137	92.31
750.317	91.87
750.498	92.05
750.678	91.85
750.859	92.01
751.04	92.37
751.22	93.18
751.4	93.11
751.581	94
751.761	96.04
751.942	96.44
752.122	96.8
752.303	96.32
752.483	97.36
752.663	96.65
752.844	96.87
753.024	96.28
753.204	97.66
753.385	95.94
753.565	94.16
753.745	94.65
753.925	94.35
754.106	93.14
754.286	94.03
754.466	95.33
754.646	94.69
754.826	95.63
755.006	94.85
755.187	95.28
755.367	94.7
755.547	94.46
755.727	93.43
755.907	93.89
756.087	92.02
756.267	92.54
756.447	92.77
756.627	93.3
756.807	92.04
756.987	92.83
757.167	92.55
757.346	92.54
757.526	91.43
757.706	92.83
757.886	92.58
758.066	93.11
758.246	92.9
758.425	93.49
758.605	93.03
758.785	92.64
758.965	92.86
759.144	92.43
759.324	92.21
759.504	92.75
759.683	94.45
759.863	93.81
760.043	94.69
760.222	95.28
760.402	94.21
760.581	92.71
760.761	91.89
760.94	91.02
761.12	90.33
761.299	90.26
761.479	90.59
761.658	91.84
761.838	90.66
762.017	90.42
762.197	89.93
762.376	90.21
762.555	88.88
762.735	90.62
762.914	91.6
763.093	93.86
763.273	93.11
763.452	93.81
763.631	93.32
763.81	91.95
763.99	92.06
764.169	92.07
764.348	90.59
764.527	89.89
764.706	89.6
764.885	88.61
765.064	88.64
765.243	90.72
765.423	91.38
765.602	92.73
765.781	91.54
765.96	92.07
766.139	92.07
766.318	90.69
766.497	90.54
766.676	92.32
766.854	91.79
767.033	92.4
767.212	94.54
767.391	94.57
767.57	93.01
767.749	93.41
767.928	91.75
768.106	90.18
768.285	90
768.464	90.08
768.643	89.09
768.821	90.07
769	91.17
769.179	92.03
769.357	91.76
769.536	92.7
769.715	91.55
769.893	91.76
770.072	90.48
770.25	89.7
770.429	90.67
770.607	91.22
770.786	89.13
770.964	89.53
771.143	90.26
771.321	87.39
771.5	88.41
771.678	88.75
771.857	89
772.035	87.81
772.213	90.31
772.392	88.49
772.57	90.11
772.748	90.02
772.927	91.93
773.105	91.99
773.283	92.63
773.461	92.45
773.64	91.81
773.818	92.18
773.996	91.14
774.174	90.15
774.352	87.08
774.531	87.1
774.709	86.2
774.887	85.98
775.065	87.14
775.243	88.63
775.421	88.86
775.599	88.47
775.777	88.81
775.955	86.17
776.133	87.62
776.311	89.96
776.489	90.35
776.667	89.81
776.844	93.53
777.022	92.34
777.2	90.8
777.378	90
777.556	89.69
777.734	88.3
777.911	89.13
778.089	89.16
778.267	92.76
778.445	93.55
778.622	95.05
778.8	95.6
778.978	93.73
779.155	91.65
779.333	93.68
779.511	90.33
779.688	88.98
779.866	89.35
780.043	89.08
780.221	88.06
780.398	90.18
780.576	89.68
780.753	89.43
780.931	91.36
781.108	91.11
781.286	91.17
781.463	91.53
781.64	89.65
781.818	87.47
781.995	84.82
782.172	84.2
782.35	85.25
782.527	86.25
782.704	85.54
782.882	86.75
783.059	88.26
783.236	88.48
783.413	90.26
783.59	91.35
783.768	92.22
783.945	88.02
784.122	86.38
784.299	86.15
784.476	83.81
784.653	84.21
784.83	88.51
785.007	88.44
785.184	87.04
785.361	88.28
785.538	88.15
785.715	84.75
785.892	84.27
786.069	84.93
786.246	86.82
786.423	83.92
786.6	87.89
786.776	88.84
786.953	90.14
787.13	87.51
787.307	87.23
787.484	85.22
787.66	84.24
787.837	84.44
788.014	87.24
788.191	87.98
788.367	87.82
788.544	89.67
788.721	88.39
788.897	85.5
789.074	84.45
789.25	84.18
789.427	84
789.603	84.98
789.78	87.17
789.956	87.29
790.133	86.23
790.309	88.41
790.486	88.3
790.662	88.45
790.839	88.82
791.015	87.75
791.192	84.48
791.368	81.09
791.544	82.55
791.721	85.61
791.897	87.11
792.073	84.31
792.249	87.2
792.426	80.84
792.602	81.69
792.778	81.45
792.954	87.6
793.13	85.64
793.307	88.18
793.483	86.6
793.659	87.5
793.835	84.99
794.011	86.34
794.187	90
794.363	89.52
794.539	89.25
794.715	88.84
794.891	88.51
795.067	85.78
795.243	86.11
795.419	86.55
795.595	89.31
795.771	90.9
795.947	94.28
796.122	92.51
796.298	92.82
796.474	90.14
796.65	92.7
796.826	91.78
797.001	90.93
797.177	90.54
797.353	86.59
797.529	81.48
797.704	81.7
797.88	91.63
798.056	90.07
798.231	94.22
798.407	102.59
798.582	99.93
798.758	93.4
798.934	96.85
799.109	98.54
799.285	93.31
799.46	91.33
799.636	89.32
799.811	84.04
799.986	79.45
800.162	79.14
800.337	82.59
800.513	79.89
800.688	84.43
800.863	90.93
801.039	92.01
801.214	91.98
801.389	94.47
801.565	92.79
801.74	88.44
801.915	86.94
802.09	86.72
802.265	88.92
802.441	85.24
802.616	82.96
802.791	81.68
802.966	81.04
803.141	79.93
803.316	86.9
803.491	93.09
803.666	92.51
803.841	87.33
804.016	87.62
804.191	84.59
804.366	78.6
804.541	76.62
804.716	85.45
804.891	87.16
805.066	83.61
805.241	88.18
805.416	94.84
805.591	85.47
805.765	80.72
805.94	84.62
806.115	78.78
806.29	76.22
806.464	84.65
806.639	83.64
806.814	80.65
806.989	80.77
807.163	76.24
807.338	73.55
807.512	76.15
807.687	79.98
807.862	86.39
808.036	89.66
808.211	91.5
808.385	92.6
808.56	91.16
808.734	79.66
808.909	79.2
809.083	77.61
809.258	76.41
809.432	77.44
809.606	81.4
809.781	80.1
809.955	80.19
810.13	82.76
810.304	80.97
810.478	81.02
810.652	76.86
810.827	74.25
811.001	72.55
811.175	76.09
811.349	76.58
811.524	85.88
811.698	81.51
811.872	86.28
812.046	83.86
812.22	91.43
812.394	86.64
812.568	100.04
812.742	94.79
812.916	88.65
813.09	79.97
813.264	85.38
813.438	81.81
813.612	87.78
813.786	93.08
813.96	103.75
814.134	100.78
814.308	97.49
814.482	90.97
814.656	88.57
814.83	77.2
815.003	76.94
815.177	74.34
815.351	71.85
815.525	71.86
815.698	81.15
815.872	85.75
816.046	90.19
816.219	91.16
816.393	103.15
816.567	98.32
816.74	87.31
816.914	88.87
817.088	93.23
817.261	82.73
817.435	84.05
817.608	89.09
817.782	84.52
817.955	81.38
818.129	92.58
818.302	96.06
818.475	86.74
818.649	97.22
818.822	93.09
818.996	93.27
819.169	88.79
819.342	97.54
819.516	93.52
819.689	101.19
819.862	78.86
820.035	81.84
820.209	80
820.382	78.07
820.555	79.71
820.728	86.79
820.901	84.17
821.075	80.91
821.248	73.83
821.421	72.56
821.594	72.9
821.767	70.97
821.94	70.71
822.113	80.26
822.286	87.12
822.459	94.59
822.632	95.53
822.805	99.62
822.978	91.28
823.151	83.93
823.324	79.07
823.496	83.07
823.669	83.15
823.842	86.86
824.015	91
824.188	82.45
824.361	80.25
824.533	80.17
824.706	69
824.879	59.94
825.051	67.72
825.224	73.94
825.397	72.47
825.569	87.63
825.742	98.96
825.915	108.1
826.087	101.97
826.26	102.67
826.432	93.54
826.605	93.58
826.777	87.94
826.95	89.15
827.122	83.1
827.295	80.65
827.467	73.36
827.64	68.79
827.812	73.42
827.984	83.46
828.157	87.18
828.329	90.29
828.501	90.99
828.674	88.83
828.846	78.64
829.018	80.45
829.19	72.08
829.363	69.65
829.535	60.21
829.707	68.08
829.879	70.44
830.051	71.75
830.223	75.69
830.395	91.9
830.568	83.53
830.74	66.73
830.912	83.07
831.084	87.59
831.256	76.3
831.428	69.31
831.6	82.11
831.772	74.92
831.943	79.39
832.115	82.29
832.287	96.51
832.459	95.28
832.631	100.46
832.803	88.16
832.975	88.44
833.146	83.46
833.318	81.31
833.49	75.6
833.662	69.25
833.833	67.87
834.005	49.73
834.177	55.4
834.348	48.09
834.52	59.38
834.692	61.74
834.863	72.45
835.035	74.72
835.206	77.42
835.378	72.78
835.549	63.28
835.721	70.3
835.892	79.42
836.064	78.91
836.235	70.57
836.407	83.76
836.578	79.12
836.749	76.42
836.921	70.26
837.092	86.34
837.264	77.15
837.435	73.34
837.606	73.8
837.777	80.73
837.949	82.14
838.12	73.93
838.291	68.92
838.462	55.78
838.633	55.45
838.805	50.59
838.976	55.25
839.147	66.16
839.318	74.32
839.489	77.83
839.66	78.42
839.831	79.06
840.002	73.81
840.173	67.77
840.344	69.83
840.515	71.37
840.686	70.01
840.857	61.68
841.028	60.51
841.199	46.72
841.369	56.28
841.54	72.62
841.711	76.2
841.882	85.18
842.053	87.3
842.223	76.25
842.394	66.09
842.565	70.78
842.736	72.54
842.906	103.38
843.077	106.49
843.248	106.9
843.418	107.89
843.589	98.65
843.759	71.66
843.93	64.06
844.101	70.68
844.271	67.78
844.442	67.23
844.612	74.14
844.783	80.61
844.953	69.03
845.123	73.61
845.294	87.27
845.464	97.55
845.635	98.57
845.805	91.32
845.975	86.51
846.146	63.02
846.316	60.03
846.486	69.18
846.656	81.91
846.827	84.19
846.997	89.89
847.167	82.37
847.337	83.86
847.507	85.83
847.677	76.75
847.848	82.36
848.018	88.34
848.188	86.5
848.358	76.39
848.528	75.1
848.698	84.89
848.868	76.71
849.038	62.8
849.208	72.82
849.378	83.93
849.548	68.82
849.718	72.41
849.887	87.46
850.057	82.49
850.227	90.11
850.397	90.55
850.567	99.66
850.737	70.07
850.906	72.24
851.076	63.14
851.246	76.61
851.415	73.27
851.585	104.54
851.755	95.93
851.924	116.66
852.094	96
852.264	94.47
852.433	85.01
852.603	80.52
852.772	77.24
852.942	76.77
853.111	78.91
853.281	89
853.45	94.65
853.62	96.89
853.789	91.18
853.959	108.43
854.128	89.93
854.297	103.32
854.467	98.16
854.636	110.4
854.805	104.02
854.975	119.12
855.144	103.72
855.313	97.36
855.482	99.34
855.652	78.86
855.821	68.1
855.99	70.11
856.159	84.23
856.328	75.56
856.497	87.66
856.667	93.97
856.836	94.21
857.005	89.59
857.174	107.75
857.343	102.6
857.512	121.92
857.681	127.12
857.85	127.22
858.019	155.68
858.188	137.07
858.356	74.26
858.525	69.49
858.694	51.84
858.863	56.65
859.032	56.85
859.201	76.3
859.369	75.31
859.538	87.78
859.707	96.3
859.876	96.67
860.044	89.6
860.213	98.87
860.382	83.71
860.55	82.5
860.719	51.64
860.888	73.15
861.056	67.15
861.225	77.78
861.393	96.6
861.562	126.34
861.73	100.17
861.899	84.64
862.067	81.58
862.236	77.35
862.404	77.59
862.572	75.37
862.741	60.85
862.909	74.87
863.078	61.23
863.246	60.37
863.414	66.73
863.582	81.6
863.751	67.42
863.919	82.99
864.087	107.86
864.255	113.91
864.424	160.99
864.592	157.82
864.76	194.44
864.928	327.16
865.096	241.59
865.264	246.01
865.432	249.71
865.6	150.83
865.768	87.51
865.936	93.22
866.104	117.11
866.272	122.59
866.44	86.84
866.608	106.92
866.776	108.29
866.944	71.22
867.112	79.2
867.28	95.87
867.448	80.92
867.615	88.03
867.783	96.98
867.951	106.99
868.119	114.86
868.286	82.23
868.454	76.01
868.622	53.55
868.789	30.52
868.957	33.71
869.125	40.14
869.292	25.45
869.46	35.93
869.627	72.62
869.795	52.73
869.963	63.03
870.13	81.82
870.298	85.88
870.465	99.86
870.632	104.98
870.8	97.88
870.967	94.33
871.135	106.33
871.302	85.84
871.469	127.39
871.637	110.48
871.804	115.2
871.971	10.48
872.139	66.63
872.306	62.56
872.473	52.21
872.64	59.51
872.807	66.82
872.975	63.43
873.142	52.41
873.309	84.21
873.476	110.48
873.643	167.41
873.81	138.47
873.977	119.95
874.144	97.25
874.311	98.51
874.478	75.66
874.645	88.51
874.812	111.28
874.979	102.59
875.146	97.78
875.313	122.53
875.48	141.51
875.647	122.63
875.813	117.43
875.98	113.35
876.147	108.1
876.314	90.75
876.481	75.67
876.647	77.84
876.814	65.93
876.981	78.63
877.147	69.88
877.314	84.73
877.481	110.27
877.647	155.81
877.814	95.78
877.98	111.25
878.147	106.02
878.314	91.61
878.48	81.44
878.647	98.81
878.813	95.89
878.979	83.02
879.146	83.22
879.312	112.99
879.479	110.11
879.645	73.88
879.811	82.48
879.978	77.97
880.144	35.83
880.31	36.24
880.477	48.77
880.643	21.32
880.809	24.5
880.975	46.49
881.142	31.51
881.308	31.46
881.474	68.2
881.64	119.57
881.806	78.04
881.972	86.43
882.138	100.62
882.304	139.66
882.47	99.06
882.636	419.4
882.802	420.21
882.968	704.94
883.134	226.99
883.3	279.11
883.466	126.61
883.632	195.84
883.798	219.36
883.964	143.66
884.129	137.24
884.295	155.06
884.461	111.76
884.627	81.39
884.793	104.87
884.958	93.4
885.124	88.6
885.29	119.02
885.455	101.42
885.621	97.29
885.787	54.13
885.952	52.37
886.118	38.86
886.283	86.61
886.449	62.4
886.614	69.88
886.78	88.05
886.945	74.26
887.111	55.1
887.276	52.71
887.442	66.79
887.607	58.34
887.773	53.3
887.938	68
888.103	80.71
888.269	105.55
888.434	96.07
888.599	128.68
888.764	86.46
888.93	88.19
889.095	85
889.26	65.65
889.425	42.29
889.59	44.71
889.756	44.56
889.921	34.94
890.086	41.82
890.251	41.16
890.416	59.14
890.581	74.75
890.746	61.81
890.911	68.07
891.076	92.86
891.241	78.29
891.406	74.2
891.571	116.36
891.736	162.55
891.901	141.72
892.065	167.17
892.23	181.34
892.395	152.27
892.56	144.18
892.725	167.81
892.889	167.24
893.054	224.97
893.219	187.25
893.384	212.31
893.548	192.82
893.713	208.6
893.878	162.86
