Data from Ofra_PS_Phys_OCX4_Reflection_2.txt Node
Date: Tue Jul 20 17:53:38 EDT 2021
User: USUARIO
Spectrometer: FLMT01687
Trigger mode: 0
Integration Time (sec): 1.042999E0
Scans to average: 2
Electric dark correction enabled: true
Nonlinearity correction enabled: false
Boxcar width: 2
XAxis mode: Wavelengths
Number of Pixels in Spectrum: 3648
>>>>>Begin Spectral Data<<<<<
179.494	72.58
179.716	125.95
179.937	94.31
180.158	84.78
180.38	79.59
180.601	-26.21
180.823	-20.77
181.044	-160.82
181.265	-662.79
181.486	-15.53
181.708	-31.86
181.929	-21.23
182.15	56.87
182.372	-38.03
182.593	6.51
182.814	16.37
183.035	46.58
183.257	88.98
183.478	95.22
183.699	108.34
183.92	108.58
184.141	143.24
184.363	102.96
184.584	100.07
184.805	118.31
185.026	133.76
185.247	119.96
185.468	123
185.689	97.83
185.91	75.24
186.132	35.58
186.353	30.54
186.574	68.28
186.795	148.36
187.016	141.15
187.237	148.11
187.458	148.17
187.679	139.5
187.9	68.94
188.121	107.14
188.342	115.82
188.563	105.66
188.784	71.97
189.005	91.07
189.226	75.22
189.447	73.88
189.667	70.48
189.888	76.93
190.109	43.63
190.33	59.3
190.551	62.6
190.772	58.09
190.993	38.51
191.214	58.8
191.434	59.56
191.655	55.15
191.876	64.31
192.097	95.98
192.318	100.13
192.538	98.21
192.759	81.55
192.98	61.05
193.201	76.83
193.421	52.85
193.642	70.33
193.863	67.51
194.083	89.9
194.304	78.32
194.525	86.24
194.745	66.46
194.966	66.64
195.187	61.92
195.407	25.58
195.628	57.08
195.848	32.95
196.069	38.53
196.29	33.76
196.51	39.93
196.731	1.85
196.951	35.24
197.172	48.34
197.392	47.31
197.613	52.16
197.833	61.53
198.054	48.48
198.274	31.59
198.495	37.83
198.715	59.08
198.936	62.91
199.156	70.56
199.377	59.79
199.597	69.29
199.817	44.77
200.038	26.29
200.258	24.5
200.479	39.13
200.699	30.81
200.919	60.97
201.14	66.64
201.36	79.96
201.58	117.81
201.801	85.95
202.021	48.55
202.241	60.32
202.461	89.79
202.682	59.88
202.902	116.43
203.122	100.12
203.342	109.68
203.563	96.18
203.783	82.49
204.003	68.81
204.223	58.23
204.443	90.07
204.663	62.24
204.884	57.64
205.104	58.34
205.324	58.1
205.544	25.55
205.764	42.19
205.984	39.76
206.204	28.8
206.424	32.82
206.644	46.36
206.864	31.71
207.084	39.52
207.304	53.83
207.525	44.15
207.745	38.15
207.964	20.94
208.184	37.86
208.404	13.8
208.624	31.76
208.844	40.06
209.064	45.6
209.284	35.73
209.504	56.91
209.724	50.67
209.944	76.52
210.164	65.73
210.384	103.65
210.604	121.19
210.823	119.84
211.043	87.21
211.263	98.99
211.483	82.36
211.703	52.85
211.922	56.68
212.142	68.64
212.362	63.8
212.582	62.72
212.801	64.85
213.021	60.71
213.241	26.74
213.461	79.41
213.68	66.85
213.9	41.41
214.12	41.35
214.339	1.62
214.559	-19.73
214.779	3.51
214.998	54.61
215.218	77.56
215.438	97.32
215.657	90.53
215.877	91.01
216.096	73.9
216.316	46.38
216.535	39.95
216.755	51.04
216.974	42.74
217.194	33.43
217.413	40.84
217.633	29.12
217.852	23.83
218.072	19.42
218.291	18.02
218.511	17.35
218.73	9.67
218.95	25.22
219.169	43.33
219.389	53.44
219.608	35.79
219.827	64.96
220.047	45.9
220.266	40.41
220.485	19.88
220.705	30.66
220.924	29.2
221.143	18.52
221.363	23.56
221.582	62.19
221.801	113.61
222.021	151.51
222.24	128.57
222.459	122.57
222.678	91.92
222.897	55.63
223.117	47.88
223.336	60.56
223.555	47.74
223.774	46.48
223.993	37.57
224.213	38.07
224.432	38.23
224.651	56.44
224.87	57.75
225.089	44.58
225.308	45.38
225.527	55.21
225.746	56.53
225.965	59.07
226.184	70.58
226.404	63.89
226.623	45.12
226.842	40.03
227.061	49.73
227.28	64.37
227.499	52.45
227.718	65.32
227.936	61.92
228.155	65.56
228.374	37.83
228.593	55.63
228.812	55.21
229.031	40.47
229.25	29.54
229.469	46.01
229.688	45.26
229.907	53.38
230.125	76.87
230.344	72.14
230.563	68.34
230.782	68.71
231.001	67.41
231.22	62.14
231.438	65.47
231.657	65.76
231.876	64.14
232.095	51.16
232.313	41.66
232.532	43.97
232.751	38.94
232.969	36.41
233.188	37.53
233.407	34.87
233.625	44.63
233.844	62.19
234.063	65.12
234.281	66.41
234.5	75.25
234.719	58.85
234.937	39.38
235.156	34.76
235.374	23.58
235.593	18.61
235.811	22.87
236.03	4.03
236.249	-26.21
236.467	6.11
236.686	30.51
236.904	29.23
237.123	43.17
237.341	63.01
237.559	72.78
237.778	62.26
237.996	50.79
238.215	61.36
238.433	42.5
238.652	35.64
238.87	33.08
239.088	43.75
239.307	43.09
239.525	44.86
239.743	35.78
239.962	39.95
240.18	22.71
240.398	15.61
240.617	16.37
240.835	35.04
241.053	30.37
241.271	55.09
241.49	58.63
241.708	56.67
241.926	67.89
242.144	84.47
242.363	87.39
242.581	74.06
242.799	64.35
243.017	56.48
243.235	41.25
243.453	35.35
243.672	39.2
243.89	42.25
244.108	23.16
244.326	39.84
244.544	43.96
244.762	46.18
244.98	56.52
245.198	66.51
245.416	59.56
245.634	51.16
245.852	42.98
246.07	39.21
246.288	31.16
246.506	33.21
246.724	34.05
246.942	46.78
247.16	43.09
247.378	57.58
247.596	62.72
247.814	65.77
248.032	37.78
248.25	29.94
248.468	26.42
248.685	19.97
248.903	41.84
249.121	44.89
249.339	63.68
249.557	61.72
249.775	92.62
249.992	97.56
250.21	128.4
250.428	92.87
250.646	79.95
250.863	46.97
251.081	26.85
251.299	17.58
251.517	34.38
251.734	28.07
251.952	-19.93
252.17	23.51
252.387	32.64
252.605	23.77
252.823	34.91
253.04	48.43
253.258	39.3
253.475	43.31
253.693	61.28
253.911	67.48
254.128	68.71
254.346	53.03
254.563	54.83
254.781	37.38
254.998	36.78
255.216	28.78
255.433	46.78
255.651	50.52
255.868	68.67
256.086	62.26
256.303	83.42
256.521	66.35
256.738	71.07
256.956	65.12
257.173	80.62
257.39	58.9
257.608	62.23
257.825	86.52
258.043	64.09
258.26	69.86
258.477	73.32
258.695	61.17
258.912	45.15
259.129	56.81
259.346	45.39
259.564	38.27
259.781	51.45
259.998	33.87
260.216	49.46
260.433	51.29
260.65	72.44
260.867	73.22
261.084	89.39
261.302	65.27
261.519	64.36
261.736	47.69
261.953	63.72
262.17	74.22
262.387	49.37
262.604	30.62
262.822	1.84
263.039	-5.39
263.256	-7.13
263.473	-13.39
263.69	21.96
263.907	46.22
264.124	38.68
264.341	54.29
264.558	68.98
264.775	67.33
264.992	58.93
265.209	44.51
265.426	13.92
265.643	13.04
265.86	9.55
266.077	13.32
266.294	24.85
266.51	48.83
266.727	63.51
266.944	66.39
267.161	49.06
267.378	51.62
267.595	38.99
267.812	37.35
268.028	45.9
268.245	56.12
268.462	47.29
268.679	38.01
268.896	27.27
269.112	13.68
269.329	13.1
269.546	7.88
269.763	28.66
269.979	69.93
270.196	89.23
270.413	69.66
270.629	54.02
270.846	52.07
271.063	38.34
271.279	21
271.496	12.72
271.712	32.79
271.929	27.85
272.146	31.38
272.362	36.34
272.579	41.25
272.795	23.3
273.012	45.92
273.228	39.12
273.445	38.85
273.661	57.66
273.878	57.9
274.094	44.41
274.311	31.07
274.527	43.7
274.744	13.57
274.96	19.45
275.177	23.58
275.393	40.65
275.609	39.82
275.826	76.32
276.042	81.89
276.259	72.92
276.475	75.33
276.691	64.98
276.908	60.04
277.124	70.87
277.34	58.5
277.557	45.26
277.773	47.36
277.989	28.09
278.205	-7.74
278.422	-17.02
278.638	-1.79
278.854	0.17
279.07	-2.5
279.286	11.38
279.503	25.14
279.719	17.2
279.935	31.83
280.151	39.45
280.367	32.01
280.583	32.34
280.799	40.39
281.016	29.34
281.232	47.22
281.448	53.19
281.664	52.46
281.88	50.5
282.096	46.74
282.312	34.21
282.528	46.74
282.744	24.8
282.96	25.55
283.176	35.54
283.392	25.61
283.608	13.3
283.824	20.37
284.04	29.52
284.256	35.01
284.471	43.39
284.687	80.62
284.903	83.09
285.119	68.28
285.335	102.26
285.551	107.82
285.767	84.05
285.982	81.16
286.198	94.66
286.414	67.54
286.63	46.57
286.846	48.15
287.061	42.52
287.277	51.74
287.493	62.52
287.709	84.1
287.924	62.28
288.14	82.69
288.356	59.45
288.571	46.34
288.787	52.95
289.003	58.22
289.218	57.29
289.434	59.1
289.65	38.22
289.865	26.52
290.081	31.47
290.296	41.85
290.512	44.34
290.727	55.4
290.943	58.32
291.159	74.32
291.374	44.93
291.59	17.36
291.805	21.43
292.021	14.12
292.236	21.61
292.451	57.96
292.667	61.51
292.882	70.42
293.098	89.05
293.313	72.48
293.529	52.12
293.744	52.26
293.959	27.12
294.175	13.27
294.39	24.32
294.605	51.19
294.821	71.11
295.036	62.17
295.251	51.97
295.467	42.21
295.682	32.69
295.897	34.07
296.112	39.64
296.328	44.91
296.543	51.25
296.758	52.51
296.973	49.65
297.188	56.77
297.404	62.27
297.619	44.97
297.834	42.12
298.049	9.19
298.264	13.71
298.479	12.75
298.694	28.95
298.909	8.03
299.125	24.06
299.34	11.04
299.555	19.76
299.77	-3.96
299.985	10.95
300.2	-5.54
300.415	-7.61
300.63	-39.21
300.845	2.31
301.06	9.39
301.275	31.82
301.49	39.77
301.704	54.84
301.919	35.73
302.134	11.09
302.349	8.28
302.564	-1.36
302.779	9.3
302.994	36.62
303.209	53.01
303.423	48.12
303.638	54.15
303.853	45.41
304.068	36.47
304.283	17.07
304.497	20.73
304.712	29.85
304.927	38.41
305.142	19.79
305.356	30.77
305.571	20.72
305.786	12.65
306	17.22
306.215	34.3
306.43	28.2
306.644	45.49
306.859	50.63
307.074	32.23
307.288	33.12
307.503	35.75
307.717	28.52
307.932	26.09
308.147	36.49
308.361	38.49
308.576	46.97
308.79	54.59
309.005	54.03
309.219	66.51
309.434	52.99
309.648	33.28
309.863	20.18
310.077	33.73
310.292	30.2
310.506	36.48
310.72	40.62
310.935	44.97
311.149	19.46
311.364	27.27
311.578	28.65
311.792	32.97
312.007	38.33
312.221	44.15
312.435	30.66
312.649	22.58
312.864	27.06
313.078	15.04
313.292	23.91
313.507	38.03
313.721	45.43
313.935	46.99
314.149	64.31
314.363	59.48
314.578	57.28
314.792	51.31
315.006	53.89
315.22	62.3
315.434	56.86
315.648	39.8
315.862	24.38
316.077	8.67
316.291	4.16
316.505	12.51
316.719	31.9
316.933	51.57
317.147	52.64
317.361	61.7
317.575	76.53
317.789	76.72
318.003	80.01
318.217	72.52
318.431	64.55
318.645	56.68
318.859	63.99
319.073	75.31
319.287	65.48
319.5	63.35
319.714	56.7
319.928	43.32
320.142	18.58
320.356	29.16
320.57	29.71
320.784	32.56
320.997	26.72
321.211	36.16
321.425	47.42
321.639	54.88
321.853	77.88
322.066	78.4
322.28	78.31
322.494	71.53
322.707	73.27
322.921	48.52
323.135	32.69
323.349	24.74
323.562	14.41
323.776	-3.12
323.989	19.29
324.203	33.14
324.417	40.8
324.63	48.28
324.844	68.39
325.057	70.05
325.271	67.96
325.485	71.78
325.698	58.86
325.912	57.94
326.125	45.84
326.339	22.96
326.552	35.55
326.766	38.06
326.979	34.22
327.193	38.03
327.406	50.38
327.619	44.66
327.833	47.27
328.046	37.57
328.26	22.73
328.473	30.23
328.686	39.79
328.9	30.72
329.113	43.65
329.326	49.33
329.54	51.5
329.753	34.43
329.966	49.61
330.179	54.8
330.393	72.66
330.606	58.92
330.819	69.55
331.032	65.8
331.246	59.73
331.459	39.94
331.672	50.12
331.885	47.86
332.098	33.17
332.311	41.63
332.525	38.18
332.738	36.48
332.951	41.47
333.164	47.52
333.377	46.54
333.59	61.94
333.803	61.05
334.016	50.53
334.229	49.36
334.442	47.5
334.655	36.54
334.868	48.18
335.081	52.4
335.294	64.23
335.507	61.71
335.72	65.78
335.933	36.7
336.146	40.34
336.359	24.42
336.572	13.07
336.785	3.86
336.997	23.57
337.21	24.43
337.423	16.93
337.636	18.12
337.849	40.81
338.062	25.71
338.274	34.14
338.487	38.11
338.7	34.33
338.913	35.37
339.125	41.76
339.338	16.86
339.551	25.46
339.763	41.09
339.976	40.97
340.189	37.92
340.402	36.59
340.614	28.43
340.827	23.69
341.039	17.54
341.252	24.6
341.465	46.7
341.677	64.54
341.89	64.64
342.102	68.17
342.315	64.69
342.527	31.31
342.74	39.72
342.952	32.98
343.165	32.82
343.377	46.74
343.59	57.06
343.802	53.52
344.015	64.61
344.227	66.78
344.44	63.06
344.652	70.3
344.864	67.75
345.077	69.48
345.289	57.92
345.502	54.24
345.714	37.52
345.926	49.83
346.139	38.79
346.351	56.03
346.563	33.75
346.775	53.44
346.988	26.72
347.2	2.79
347.412	6.4
347.624	22.87
347.837	20.6
348.049	30.78
348.261	45.61
348.473	47.94
348.685	50.81
348.897	68.76
349.11	51.8
349.322	45.91
349.534	47.63
349.746	51.81
349.958	44.67
350.17	49.61
350.382	58.48
350.594	50.04
350.806	37.91
351.018	47.13
351.23	38.19
351.442	37.61
351.654	45.21
351.866	44.53
352.078	25.72
352.29	30.21
352.502	19.08
352.714	18.29
352.926	8.18
353.138	10.54
353.35	6.73
353.561	9.35
353.773	8.1
353.985	27.82
354.197	26.14
354.409	42.66
354.621	56.36
354.832	55.76
355.044	52.3
355.256	52.85
355.468	41.2
355.679	42.32
355.891	31.68
356.103	30.66
356.314	39.77
356.526	44.24
356.738	36.14
356.949	46.48
357.161	61.2
357.373	70.65
357.584	56.42
357.796	34.22
358.008	40.69
358.219	32.41
358.431	24.43
358.642	40.8
358.854	48.61
359.065	43.69
359.277	27.92
359.488	26.07
359.7	8.16
359.911	6.2
360.123	13.42
360.334	27.26
360.546	29.13
360.757	27.16
360.969	21.34
361.18	26.87
361.391	37.27
361.603	35.8
361.814	47.95
362.025	47.31
362.237	40.78
362.448	23.22
362.659	21.3
362.871	19.16
363.082	24.7
363.293	22.18
363.504	32.22
363.716	29.06
363.927	23.68
364.138	9.51
364.349	14.04
364.56	22.24
364.772	29.98
364.983	39.43
365.194	52.26
365.405	32.08
365.616	23.06
365.827	31.18
366.038	25.33
366.25	38.28
366.461	56.23
366.672	50.9
366.883	49.5
367.094	45.46
367.305	26.5
367.516	23.22
367.727	21.42
367.938	9.39
368.149	12.7
368.36	15.38
368.571	28.77
368.781	40.59
368.992	52.01
369.203	60.63
369.414	61.24
369.625	75.2
369.836	58.66
370.047	51.61
370.258	35.8
370.468	38.15
370.679	22.57
370.89	25.95
371.101	15.22
371.312	10.17
371.522	8.03
371.733	-1.19
371.944	3.5
372.155	16.47
372.365	24.36
372.576	21.98
372.787	27.9
372.997	22.3
373.208	15.77
373.419	23.26
373.629	20.98
373.84	21.19
374.05	21.34
374.261	29.99
374.472	22.72
374.682	34.54
374.893	36.56
375.103	59.72
375.314	40.82
375.524	34.99
375.735	27.02
375.945	25.82
376.156	8.72
376.366	20.39
376.577	32.24
376.787	33.93
376.997	36.9
377.208	46.73
377.418	44.65
377.629	36.86
377.839	33.22
378.049	32.77
378.26	33.23
378.47	35.91
378.68	38.75
378.89	41.78
379.101	41.19
379.311	26.14
379.521	19.87
379.732	25.11
379.942	24.17
380.152	25.08
380.362	31.71
380.572	28.58
380.783	25.44
380.993	30.29
381.203	25.9
381.413	26.17
381.623	30.48
381.833	29.05
382.043	17.27
382.253	5.25
382.463	-1.96
382.674	-3.14
382.884	-3.96
383.094	6.91
383.304	9
383.514	19.11
383.724	21.19
383.934	24.63
384.144	22.05
384.353	27.81
384.563	17.5
384.773	11.76
384.983	3.29
385.193	2.46
385.403	4.8
385.613	17.69
385.823	17.44
386.033	15.32
386.242	9.68
386.452	6.49
386.662	4.74
386.872	12.57
387.082	17.12
387.291	17.24
387.501	21.05
387.711	17.99
387.921	15.58
388.13	13.93
388.34	21.37
388.55	13.44
388.759	12.9
388.969	12.5
389.179	12.79
389.388	7.29
389.598	15.98
389.807	14.06
390.017	12.5
390.227	14.63
390.436	13.66
390.646	9.66
390.855	12.78
391.065	10.69
391.274	7.82
391.484	8.39
391.693	9.53
391.903	11.11
392.112	10.9
392.322	10.21
392.531	11.05
392.74	7.55
392.95	2.58
393.159	2.89
393.369	2.01
393.578	1.26
393.787	1.2
393.997	2.64
394.206	3.98
394.415	6.34
394.625	6.86
394.834	8.58
395.043	8.7
395.252	7.9
395.462	8.01
395.671	6.32
395.88	6.12
396.089	6.1
396.298	5.84
396.508	4.91
396.717	6.39
396.926	6.58
397.135	5.83
397.344	5.21
397.553	5.19
397.762	4.02
397.971	3.37
398.181	4.01
398.39	4.58
398.599	3.75
398.808	4.09
399.017	4.54
399.226	4.25
399.435	4.52
399.644	4.95
399.853	5.21
400.062	4.68
400.27	4.78
400.479	4.61
400.688	4.14
400.897	4.11
401.106	4.32
401.315	4.05
401.524	4.15
401.733	4.61
401.941	4.43
402.15	4.27
402.359	4.27
402.568	4.04
402.777	4.05
402.985	3.89
403.194	4.01
403.403	3.92
403.612	3.99
403.82	3.61
404.029	3.71
404.238	3.63
404.446	3.58
404.655	3.56
404.864	3.67
405.072	3.61
405.281	3.71
405.489	3.79
405.698	3.79
405.906	3.76
406.115	3.81
406.324	3.58
406.532	3.47
406.741	3.43
406.949	3.4
407.158	3.48
407.366	3.46
407.574	3.35
407.783	3.22
407.991	3.19
408.2	3.14
408.408	3.16
408.617	3.24
408.825	3.18
409.033	3.22
409.242	3.23
409.45	3.19
409.658	3.22
409.867	3.38
410.075	3.28
410.283	3.15
410.491	3.11
410.7	3.07
410.908	2.81
411.116	2.88
411.324	2.83
411.533	2.92
411.741	2.99
411.949	3.27
412.157	3.36
412.365	3.42
412.573	3.47
412.781	3.48
412.99	3.42
413.198	3.31
413.406	3.34
413.614	3.33
413.822	3.39
414.03	3.18
414.238	3.05
414.446	3.04
414.654	2.96
414.862	2.85
415.07	3.01
415.278	3.2
415.486	3.1
415.694	3.03
415.902	3
416.109	2.91
416.317	3.01
416.525	3
416.733	3.07
416.941	3.14
417.149	3.18
417.357	3.03
417.564	3.14
417.772	3.16
417.98	3.15
418.188	3
418.395	2.91
418.603	2.83
418.811	2.86
419.019	2.72
419.226	2.97
419.434	3
419.642	3.01
419.849	2.9
420.057	3.02
420.265	2.86
420.472	2.92
420.68	2.86
420.887	2.77
421.095	2.64
421.302	2.64
421.51	2.66
421.717	2.72
421.925	2.83
422.132	2.84
422.34	2.86
422.547	2.66
422.755	2.74
422.962	2.61
423.17	2.66
423.377	2.57
423.585	2.69
423.792	2.56
423.999	2.56
424.207	2.4
424.414	2.4
424.621	2.52
424.829	2.52
425.036	2.47
425.243	2.6
425.451	2.64
425.658	2.36
425.865	2.48
426.072	2.52
426.28	2.71
426.487	2.63
426.694	2.77
426.901	2.63
427.108	2.75
427.315	2.81
427.523	2.85
427.73	2.95
427.937	3
428.144	2.95
428.351	2.69
428.558	2.58
428.765	2.31
428.972	2.35
429.179	2.19
429.386	2.22
429.593	2.14
429.8	2.31
430.007	2.23
430.214	2.45
430.421	2.4
430.628	2.71
430.835	2.81
431.042	2.78
431.249	2.77
431.456	2.86
431.662	2.8
431.869	2.68
432.076	2.86
432.283	2.82
432.49	2.86
432.697	2.81
432.903	2.67
433.11	2.52
433.317	2.56
433.524	2.6
433.73	2.5
433.937	2.65
434.144	2.63
434.35	2.55
434.557	2.43
434.764	2.54
434.97	2.48
435.177	2.57
435.384	2.56
435.59	2.61
435.797	2.71
436.003	2.77
436.21	2.69
436.416	2.68
436.623	2.64
436.829	2.65
437.036	2.67
437.242	2.74
437.449	2.78
437.655	2.89
437.862	2.82
438.068	2.71
438.275	2.73
438.481	2.68
438.687	2.49
438.894	2.57
439.1	2.77
439.307	2.62
439.513	2.67
439.719	2.66
439.926	2.57
440.132	2.63
440.338	2.77
440.544	2.75
440.751	2.9
440.957	2.9
441.163	2.79
441.369	2.86
441.575	2.89
441.782	2.77
441.988	2.76
442.194	2.76
442.4	2.67
442.606	2.61
442.812	2.69
443.018	2.77
443.224	2.76
443.431	2.8
443.637	2.97
443.843	2.94
444.049	2.93
444.255	2.83
444.461	2.81
444.667	2.72
444.873	2.78
445.079	2.81
445.284	2.98
445.49	2.92
445.696	2.93
445.902	2.85
446.108	2.74
446.314	2.75
446.52	2.8
446.726	2.88
446.931	2.9
447.137	3.01
447.343	2.94
447.549	3.01
447.755	2.94
447.96	3.02
448.166	3.02
448.372	3.14
448.578	3.04
448.783	3.1
448.989	3.04
449.195	3
449.4	2.97
449.606	3.07
449.812	2.97
450.017	2.97
450.223	2.93
450.428	2.85
450.634	2.79
450.84	2.9
451.045	3.09
451.251	3.12
451.456	3.11
451.662	3.09
451.867	3.07
452.073	2.92
452.278	2.93
452.483	2.96
452.689	2.92
452.894	2.89
453.1	2.87
453.305	2.91
453.51	2.94
453.716	2.96
453.921	2.87
454.127	2.82
454.332	2.73
454.537	2.69
454.742	2.68
454.948	2.84
455.153	2.89
455.358	2.98
455.563	2.99
455.769	2.94
455.974	2.89
456.179	2.88
456.384	2.82
456.589	2.82
456.795	2.84
457	2.78
457.205	2.76
457.41	2.76
457.615	2.83
457.82	2.9
458.025	2.94
458.23	2.85
458.435	2.89
458.64	2.83
458.845	2.79
459.05	2.75
459.255	2.91
459.46	2.91
459.665	2.88
459.87	2.85
460.075	2.82
460.28	2.81
460.485	2.88
460.69	2.83
460.895	2.89
461.099	3
461.304	3.05
461.509	3.05
461.714	3.15
461.919	3.18
462.123	3.12
462.328	3.04
462.533	3.07
462.738	3.08
462.942	3.02
463.147	2.97
463.352	3
463.556	2.99
463.761	2.97
463.966	3
464.17	3.23
464.375	3.24
464.58	3.12
464.784	3.17
464.989	3.15
465.193	3.04
465.398	3.03
465.602	3.17
465.807	3.08
466.011	3.17
466.216	3.1
466.42	3.18
466.625	3.15
466.829	3.24
467.034	3.18
467.238	3.26
467.443	3.18
467.647	3.16
467.851	3.07
468.056	3.1
468.26	3.14
468.464	3.15
468.669	3.16
468.873	3.29
469.077	3.27
469.282	3.24
469.486	3.36
469.69	3.33
469.894	3.28
470.099	3.37
470.303	3.37
470.507	3.28
470.711	3.26
470.915	3.28
471.119	3.3
471.324	3.31
471.528	3.34
471.732	3.4
471.936	3.31
472.14	3.27
472.344	3.27
472.548	3.27
472.752	3.32
472.956	3.39
473.16	3.45
473.364	3.5
473.568	3.49
473.772	3.46
473.976	3.49
474.18	3.43
474.384	3.47
474.588	3.53
474.792	3.51
474.995	3.48
475.199	3.58
475.403	3.48
475.607	3.46
475.811	3.46
476.015	3.53
476.218	3.48
476.422	3.51
476.626	3.53
476.83	3.58
477.033	3.61
477.237	3.65
477.441	3.62
477.644	3.67
477.848	3.67
478.052	3.65
478.255	3.65
478.459	3.75
478.663	3.81
478.866	3.83
479.07	3.86
479.273	3.9
479.477	3.89
479.681	3.83
479.884	3.88
480.088	3.92
480.291	3.91
480.495	3.91
480.698	3.84
480.901	3.81
481.105	3.8
481.308	3.75
481.512	3.76
481.715	3.81
481.919	3.85
482.122	3.79
482.325	3.87
482.529	3.8
482.732	3.88
482.935	3.88
483.138	3.93
483.342	3.91
483.545	3.95
483.748	3.92
483.952	3.89
484.155	3.86
484.358	3.84
484.561	3.84
484.764	3.81
484.967	3.81
485.171	3.96
485.374	4.02
485.577	4.06
485.78	4.05
485.983	4.11
486.186	4.02
486.389	3.91
486.592	3.93
486.795	4
486.998	3.95
487.201	4.01
487.404	4.07
487.607	4.1
487.81	4.1
488.013	4.1
488.216	4.08
488.419	4.12
488.622	4.01
488.825	3.97
489.028	4.05
489.231	3.99
489.433	3.96
489.636	4.02
489.839	4.08
490.042	3.96
490.245	4.03
490.447	4.04
490.65	4.05
490.853	4.01
491.056	4.07
491.258	4.05
491.461	4.08
491.664	4.04
491.866	4.1
492.069	4.18
492.272	4.23
492.474	4.21
492.677	4.23
492.879	4.18
493.082	4.08
493.285	4.1
493.487	4.12
493.69	4.12
493.892	4.14
494.095	4.23
494.297	4.21
494.5	4.3
494.702	4.35
494.905	4.41
495.107	4.39
495.309	4.39
495.512	4.29
495.714	4.34
495.917	4.39
496.119	4.42
496.321	4.46
496.524	4.48
496.726	4.46
496.928	4.45
497.13	4.41
497.333	4.33
497.535	4.32
497.737	4.37
497.939	4.35
498.142	4.43
498.344	4.47
498.546	4.5
498.748	4.5
498.95	4.54
499.152	4.57
499.355	4.69
499.557	4.75
499.759	4.8
499.961	4.78
500.163	4.77
500.365	4.76
500.567	4.79
500.769	4.77
500.971	4.85
501.173	4.86
501.375	4.87
501.577	4.88
501.779	4.97
501.981	4.92
502.183	4.93
502.385	4.91
502.587	4.9
502.788	4.92
502.99	4.95
503.192	4.95
503.394	4.96
503.596	4.99
503.798	5.01
503.999	5.06
504.201	5.11
504.403	5.15
504.605	5.2
504.806	5.21
505.008	5.26
505.21	5.3
505.411	5.25
505.613	5.2
505.815	5.18
506.016	5.2
506.218	5.24
506.42	5.36
506.621	5.44
506.823	5.48
507.024	5.41
507.226	5.34
507.427	5.31
507.629	5.27
507.83	5.22
508.032	5.23
508.233	5.25
508.435	5.28
508.636	5.4
508.838	5.5
509.039	5.58
509.24	5.57
509.442	5.56
509.643	5.48
509.845	5.4
510.046	5.4
510.247	5.44
510.448	5.48
510.65	5.54
510.851	5.59
511.052	5.6
511.254	5.62
511.455	5.61
511.656	5.56
511.857	5.55
512.058	5.56
512.26	5.58
512.461	5.61
512.662	5.63
512.863	5.62
513.064	5.61
513.265	5.65
513.466	5.63
513.667	5.68
513.868	5.73
514.069	5.78
514.27	5.79
514.471	5.82
514.672	5.81
514.873	5.82
515.074	5.82
515.275	5.75
515.476	5.77
515.677	5.72
515.878	5.72
516.079	5.74
516.28	5.8
516.481	5.88
516.682	5.89
516.882	5.93
517.083	5.87
517.284	5.88
517.485	5.81
517.686	5.85
517.886	5.84
518.087	5.84
518.288	5.88
518.488	5.88
518.689	5.87
518.89	5.9
519.091	5.98
519.291	5.9
519.492	5.94
519.692	6.04
519.893	6.04
520.094	6.06
520.294	6.15
520.495	6.17
520.695	6.1
520.896	6.13
521.096	6.18
521.297	6.16
521.497	6.11
521.698	6.14
521.898	6.14
522.099	6.07
522.299	6.09
522.499	6.13
522.7	6.17
522.9	6.21
523.101	6.2
523.301	6.22
523.501	6.24
523.702	6.29
523.902	6.23
524.102	6.32
524.302	6.31
524.503	6.37
524.703	6.31
524.903	6.34
525.103	6.31
525.304	6.37
525.504	6.39
525.704	6.36
525.904	6.4
526.104	6.43
526.304	6.44
526.504	6.32
526.705	6.34
526.905	6.37
527.105	6.38
527.305	6.33
527.505	6.42
527.705	6.48
527.905	6.47
528.105	6.43
528.305	6.44
528.505	6.43
528.705	6.48
528.905	6.49
529.105	6.56
529.304	6.61
529.504	6.67
529.704	6.63
529.904	6.68
530.104	6.65
530.304	6.67
530.503	6.66
530.703	6.68
530.903	6.64
531.103	6.66
531.303	6.64
531.502	6.68
531.702	6.7
531.902	6.72
532.101	6.76
532.301	6.84
532.501	6.85
532.7	6.89
532.9	6.96
533.1	6.98
533.299	6.95
533.499	6.95
533.698	6.96
533.898	6.97
534.097	6.98
534.297	7.04
534.496	7.07
534.696	7.09
534.895	7.12
535.095	7.15
535.294	7.2
535.494	7.22
535.693	7.23
535.892	7.27
536.092	7.35
536.291	7.33
536.491	7.36
536.69	7.47
536.889	7.45
537.088	7.41
537.288	7.44
537.487	7.5
537.686	7.46
537.886	7.5
538.085	7.56
538.284	7.6
538.483	7.6
538.682	7.66
538.882	7.73
539.081	7.76
539.28	7.73
539.479	7.77
539.678	7.78
539.877	7.79
540.076	7.82
540.275	7.87
540.474	7.9
540.673	7.92
540.872	7.95
541.071	8.01
541.27	8.02
541.469	8.05
541.668	8.11
541.867	8.18
542.066	8.23
542.265	8.29
542.464	8.36
542.663	8.4
542.862	8.43
543.06	8.46
543.259	8.53
543.458	8.56
543.657	8.56
543.856	8.63
544.054	8.7
544.253	8.72
544.452	8.77
544.651	8.82
544.849	8.82
545.048	8.77
545.247	8.84
545.445	8.84
545.644	8.91
545.843	8.93
546.041	9.05
546.24	9.07
546.438	9.25
546.637	9.28
546.836	9.4
547.034	9.43
547.233	9.46
547.431	9.39
547.63	9.44
547.828	9.47
548.027	9.46
548.225	9.54
548.423	9.64
548.622	9.72
548.82	9.8
549.019	9.92
549.217	9.98
549.415	10.08
549.614	10.12
549.812	10.15
550.01	10.23
550.209	10.28
550.407	10.38
550.605	10.47
550.803	10.53
551.002	10.6
551.2	10.65
551.398	10.66
551.596	10.73
551.794	10.83
551.993	10.95
552.191	11.11
552.389	11.24
552.587	11.28
552.785	11.33
552.983	11.4
553.181	11.44
553.379	11.5
553.577	11.56
553.775	11.65
553.973	11.65
554.171	11.75
554.369	11.86
554.567	11.99
554.765	12.07
554.963	12.31
555.161	12.36
555.359	12.4
555.557	12.53
555.755	12.63
555.952	12.65
556.15	12.78
556.348	12.83
556.546	12.9
556.744	13
556.941	13.07
557.139	13.08
557.337	13.27
557.535	13.36
557.732	13.44
557.93	13.49
558.128	13.63
558.325	13.68
558.523	13.81
558.721	13.94
558.918	14.08
559.116	14.14
559.313	14.2
559.511	14.29
559.708	14.32
559.906	14.45
560.104	14.7
560.301	14.87
560.498	15
560.696	15.16
560.893	15.25
561.091	15.22
561.288	15.41
561.486	15.49
561.683	15.56
561.88	15.64
562.078	15.8
562.275	15.79
562.473	15.88
562.67	16.05
562.867	16.16
563.064	16.29
563.262	16.4
563.459	16.51
563.656	16.59
563.853	16.72
564.051	16.84
564.248	16.98
564.445	17.09
564.642	17.26
564.839	17.34
565.036	17.42
565.234	17.48
565.431	17.57
565.628	17.63
565.825	17.77
566.022	17.85
566.219	17.92
566.416	17.96
566.613	18.05
566.81	18.22
567.007	18.34
567.204	18.43
567.401	18.52
567.598	18.67
567.795	18.63
567.991	18.7
568.188	18.85
568.385	18.9
568.582	18.96
568.779	19.01
568.976	19.11
569.172	19.17
569.369	19.34
569.566	19.31
569.763	19.44
569.96	19.51
570.156	19.57
570.353	19.55
570.55	19.73
570.746	19.8
570.943	19.86
571.14	19.91
571.336	20.04
571.533	19.99
571.729	20.01
571.926	20.02
572.123	20.01
572.319	20.11
572.516	20.17
572.712	20.24
572.909	20.3
573.105	20.45
573.302	20.42
573.498	20.52
573.695	20.5
573.891	20.55
574.087	20.52
574.284	20.59
574.48	20.65
574.677	20.72
574.873	20.82
575.069	20.9
575.266	20.92
575.462	20.96
575.658	20.97
575.854	20.91
576.051	20.81
576.247	20.82
576.443	20.78
576.639	20.86
576.835	20.91
577.032	21.06
577.228	21.15
577.424	21.13
577.62	21.11
577.816	21.14
578.012	21.05
578.208	20.99
578.404	21.11
578.6	21.13
578.796	21.15
578.993	21.22
579.189	21.22
579.384	21.14
579.58	21.17
579.776	21.14
579.972	21.09
580.168	21.11
580.364	21.12
580.56	21.11
580.756	21.06
580.952	21.09
581.148	21.11
581.343	21.03
581.539	20.99
581.735	21.06
581.931	20.99
582.127	20.89
582.322	20.96
582.518	20.91
582.714	20.94
582.909	20.99
583.105	21.03
583.301	20.98
583.496	20.89
583.692	20.82
583.888	20.72
584.083	20.62
584.279	20.58
584.474	20.59
584.67	20.55
584.866	20.61
585.061	20.66
585.257	20.67
585.452	20.76
585.648	20.68
585.843	20.69
586.039	20.69
586.234	20.69
586.429	20.62
586.625	20.66
586.82	20.66
587.015	20.57
587.211	20.54
587.406	20.53
587.601	20.54
587.797	20.48
587.992	20.57
588.187	20.57
588.383	20.66
588.578	20.67
588.773	20.72
588.968	20.76
589.163	20.83
589.359	20.82
589.554	20.76
589.749	20.81
589.944	20.75
590.139	20.8
590.334	20.86
590.529	20.95
590.724	20.94
590.919	21.05
591.114	21.15
591.309	21.09
591.504	21.13
591.699	21.14
591.894	21.11
592.089	21.03
592.284	21.09
592.479	21.11
592.674	21.1
592.869	21.19
593.064	21.25
593.259	21.38
593.454	21.51
593.648	21.63
593.843	21.68
594.038	21.7
594.233	21.77
594.428	21.8
594.622	21.93
594.817	22.01
595.012	22.07
595.206	22.04
595.401	22.02
595.596	21.99
595.79	22.04
595.985	22.18
596.18	22.3
596.374	22.44
596.569	22.58
596.763	22.62
596.958	22.71
597.153	22.75
597.347	22.84
597.542	22.97
597.736	23.01
597.931	23.04
598.125	23.1
598.319	23.13
598.514	23.15
598.708	23.29
598.903	23.32
599.097	23.43
599.291	23.54
599.486	23.57
599.68	23.65
599.874	23.77
600.069	23.85
600.263	23.87
600.457	23.9
600.651	23.94
600.846	23.96
601.04	23.94
601.234	24.07
601.428	24.13
601.622	24.1
601.817	24.21
602.011	24.21
602.205	24.08
602.399	24.12
602.593	24.25
602.787	24.17
602.981	24.21
603.175	24.34
603.369	24.34
603.563	24.27
603.757	24.27
603.951	24.24
604.145	24.08
604.339	24.08
604.533	24.1
604.727	24.17
604.921	24.15
605.115	24.16
605.309	24.2
605.502	24.15
605.696	24.09
605.89	24.06
606.084	24.1
606.278	24.04
606.471	24.02
606.665	23.95
606.859	23.96
607.053	23.84
607.246	23.74
607.44	23.65
607.634	23.61
607.827	23.52
608.021	23.62
608.214	23.61
608.408	23.51
608.602	23.48
608.795	23.52
608.989	23.3
609.182	23.21
609.376	23.26
609.569	23.14
609.763	22.96
609.956	22.97
610.15	22.78
610.343	22.6
610.537	22.55
610.73	22.51
610.923	22.41
611.117	22.38
611.31	22.32
611.504	22.27
611.697	22.12
611.89	22.09
612.083	22.02
612.277	21.93
612.47	21.78
612.663	21.75
612.856	21.63
613.05	21.53
613.243	21.48
613.436	21.38
613.629	21.28
613.822	21.21
614.015	21.13
614.209	21.03
614.402	20.95
614.595	20.89
614.788	20.8
614.981	20.78
615.174	20.66
615.367	20.64
615.56	20.57
615.753	20.49
615.946	20.37
616.139	20.3
616.332	20.17
616.525	20.12
616.718	20.12
616.911	20.21
617.103	20.17
617.296	20.14
617.489	20.13
617.682	19.9
617.875	19.66
618.067	19.66
618.26	19.61
618.453	19.58
618.646	19.58
618.838	19.61
619.031	19.51
619.224	19.49
619.417	19.43
619.609	19.5
619.802	19.49
619.994	19.47
620.187	19.39
620.38	19.27
620.572	19.14
620.765	19.03
620.957	18.98
621.15	18.96
621.342	18.88
621.535	18.88
621.727	18.91
621.92	18.92
622.112	18.83
622.305	18.95
622.497	18.93
622.69	18.77
622.882	18.7
623.074	18.82
623.267	18.71
623.459	18.73
623.651	18.81
623.844	18.78
624.036	18.63
624.228	18.68
624.42	18.62
624.613	18.63
624.805	18.63
624.997	18.62
625.189	18.63
625.381	18.64
625.574	18.49
625.766	18.42
625.958	18.42
626.15	18.32
626.342	18.27
626.534	18.32
626.726	18.29
626.918	18.3
627.11	18.21
627.302	18.18
627.494	18.16
627.686	18.12
627.878	18.06
628.07	18.05
628.262	18.04
628.454	17.99
628.646	17.97
628.838	17.9
629.029	17.91
629.221	17.85
629.413	17.8
629.605	17.84
629.797	17.82
629.989	17.76
630.18	17.7
630.372	17.65
630.564	17.54
630.755	17.5
630.947	17.5
631.139	17.47
631.33	17.42
631.522	17.44
631.714	17.37
631.905	17.24
632.097	17.21
632.289	17.21
632.48	17.13
632.672	17.09
632.863	17.13
633.055	17.09
633.246	17.08
633.438	17.04
633.629	16.97
633.821	16.91
634.012	16.86
634.203	16.79
634.395	16.9
634.586	16.96
634.777	17
634.969	17.04
635.16	17.06
635.351	16.96
635.543	16.96
635.734	16.87
635.925	16.86
636.117	16.84
636.308	16.94
636.499	16.84
636.69	16.84
636.881	16.83
637.073	16.83
637.264	16.76
637.455	16.79
637.646	16.81
637.837	16.76
638.028	16.67
638.219	16.61
638.41	16.53
638.601	16.47
638.792	16.48
638.983	16.55
639.174	16.48
639.365	16.54
639.556	16.54
639.747	16.53
639.938	16.51
640.129	16.5
640.32	16.45
640.511	16.43
640.701	16.41
640.892	16.34
641.083	16.34
641.274	16.3
641.465	16.29
641.655	16.3
641.846	16.26
642.037	16.23
642.228	16.15
642.418	16.21
642.609	16.16
642.8	16.11
642.99	16.05
643.181	16.08
643.372	15.97
643.562	15.87
643.753	15.83
643.943	15.84
644.134	15.85
644.324	15.83
644.515	15.81
644.705	15.73
644.896	15.7
645.086	15.68
645.277	15.62
645.467	15.64
645.658	15.65
645.848	15.65
646.038	15.68
646.229	15.71
646.419	15.69
646.61	15.66
646.8	15.6
646.99	15.53
647.18	15.54
647.371	15.5
647.561	15.53
647.751	15.61
647.941	15.55
648.132	15.44
648.322	15.45
648.512	15.44
648.702	15.4
648.892	15.4
649.082	15.35
649.272	15.27
649.462	15.23
649.653	15.17
649.843	15.2
650.033	15.21
650.223	15.2
650.413	15.17
650.603	15.18
650.793	15.11
650.983	15.14
651.172	15.15
651.362	15.1
651.552	15
651.742	14.87
651.932	14.68
652.122	14.6
652.312	14.56
652.502	14.49
652.691	14.39
652.881	14.42
653.071	14.28
653.261	14.11
653.45	14.05
653.64	14.02
653.83	13.91
654.019	13.87
654.209	13.79
654.399	13.67
654.588	13.62
654.778	13.5
654.968	13.32
655.157	13.31
655.347	13.22
655.536	13.02
655.726	12.85
655.915	12.7
656.105	12.58
656.294	12.38
656.484	12.23
656.673	12.17
656.863	12.07
657.052	11.83
657.241	11.65
657.431	11.51
657.62	11.38
657.809	11.26
657.999	11.22
658.188	11.16
658.377	11.05
658.567	10.92
658.756	10.74
658.945	10.57
659.134	10.42
659.324	10.22
659.513	9.95
659.702	9.79
659.891	9.63
660.08	9.49
660.269	9.34
660.458	9.31
660.648	9.3
660.837	9.13
661.026	8.96
661.215	8.87
661.404	8.64
661.593	8.45
661.782	8.27
661.971	8.12
662.16	7.89
662.349	7.8
662.538	7.62
662.726	7.63
662.915	7.42
663.104	7.43
663.293	7.38
663.482	7.3
663.671	7.13
663.86	7.16
664.048	7.03
664.237	6.88
664.426	6.87
664.615	6.77
664.803	6.74
664.992	6.58
665.181	6.51
665.369	6.42
665.558	6.34
665.747	6.22
665.935	6.26
666.124	6.2
666.312	6.1
666.501	6.14
666.69	6.12
666.878	6.1
667.067	6.02
667.255	6.05
667.444	6.01
667.632	5.93
667.82	5.92
668.009	5.94
668.197	5.85
668.386	5.75
668.574	5.77
668.762	5.67
668.951	5.73
669.139	5.69
669.327	5.79
669.516	5.83
669.704	5.78
669.892	5.76
670.08	5.81
670.269	5.71
670.457	5.72
670.645	5.84
670.833	5.79
671.021	5.93
671.21	6
671.398	6.01
671.586	6.02
671.774	6.09
671.962	6.07
672.15	6.07
672.338	6.02
672.526	6
672.714	5.96
672.902	5.98
673.09	6
673.278	6.15
673.466	6.3
673.654	6.57
673.842	6.6
674.03	6.61
674.218	6.57
674.405	6.52
674.593	6.36
674.781	6.43
674.969	6.59
675.157	6.66
675.344	6.73
675.532	6.83
675.72	6.88
675.908	6.95
676.095	6.96
676.283	7.02
676.471	7.07
676.658	7.14
676.846	7.15
677.033	7.36
677.221	7.55
677.409	7.51
677.596	7.6
677.784	7.72
677.971	7.72
678.159	7.75
678.346	8.01
678.534	8.11
678.721	8.19
678.909	8.28
679.096	8.3
679.283	8.43
679.471	8.38
679.658	8.54
679.846	8.67
680.033	8.9
680.22	8.96
680.408	9.17
680.595	9.17
680.782	9.19
680.969	9.22
681.157	9.39
681.344	9.43
681.531	9.54
681.718	9.79
681.905	10.04
682.093	10.14
682.28	10.3
682.467	10.48
682.654	10.66
682.841	10.66
683.028	10.65
683.215	10.8
683.402	11.04
683.589	11.05
683.776	11.29
683.963	11.56
684.15	11.9
684.337	11.99
684.524	12.27
684.711	12.57
684.898	12.85
685.085	13.05
685.271	13.44
685.458	13.67
685.645	13.9
685.832	14.2
686.019	14.51
686.205	14.68
686.392	15.08
686.579	15.42
686.766	15.68
686.952	15.96
687.139	16.29
687.326	16.67
687.512	17.03
687.699	17.56
687.886	17.95
688.072	18.39
688.259	18.77
688.445	19.2
688.632	19.71
688.818	20.22
689.005	20.78
689.191	21.34
689.378	21.94
689.564	22.32
689.751	22.93
689.937	23.53
690.124	24.09
690.31	24.66
690.496	25.31
690.683	25.94
690.869	26.61
691.055	27.29
691.242	27.93
691.428	28.65
691.614	29.2
691.8	29.66
691.987	30.33
692.173	30.99
692.359	31.67
692.545	32.49
692.731	33.33
692.918	34
693.104	34.55
693.29	35.2
693.476	35.95
693.662	36.67
693.848	37.49
694.034	38.31
694.22	38.9
694.406	39.4
694.592	40.01
694.778	40.62
694.964	41.47
695.15	42.33
695.336	43.36
695.522	44.27
695.708	45.13
695.894	45.88
696.08	46.7
696.265	47.16
696.451	47.99
696.637	48.84
696.823	49.46
697.009	50.34
697.194	51.05
697.38	51.59
697.566	52.25
697.751	52.91
697.937	53.27
698.123	53.96
698.308	54.63
698.494	55.05
698.68	55.65
698.865	56.27
699.051	57.08
699.236	57.68
699.422	58.42
699.607	59.11
699.793	59.53
699.978	60.03
700.164	60.66
700.349	61.13
700.535	61.68
700.72	62.71
700.906	63.2
701.091	63.82
701.276	64.2
701.462	64.64
701.647	64.81
701.832	65.22
702.018	65.38
702.203	65.83
702.388	66.22
702.573	66.88
702.759	67.28
702.944	67.74
703.129	68.35
703.314	68.74
703.499	69.1
703.684	69.35
703.87	69.77
704.055	70.16
704.24	70.53
704.425	70.71
704.61	70.86
704.795	70.96
704.98	71.14
705.165	71.56
705.35	71.64
705.535	72.59
705.72	73.04
705.905	73.13
706.09	73.19
706.275	73.62
706.459	73.51
706.644	73.88
706.829	74.13
707.014	74.59
707.199	74.88
707.384	75.34
707.568	75.54
707.753	76.04
707.938	76.2
708.123	76.47
708.307	76.39
708.492	76.79
708.677	76.68
708.861	76.77
709.046	77.21
709.231	77.76
709.415	77.67
709.6	78.01
709.784	78.5
709.969	78.32
710.153	78.47
710.338	78.85
710.522	79.21
710.707	79.35
710.891	79.54
711.076	79.32
711.26	79.26
711.445	79.13
711.629	79.51
711.813	80.04
711.998	80.46
712.182	80.23
712.366	80.58
712.551	80.23
712.735	79.56
712.919	79.83
713.103	80.29
713.288	80.33
713.472	80.9
713.656	81.78
713.84	81.69
714.024	82.28
714.208	82.61
714.393	82.32
714.577	82.13
714.761	82.07
714.945	82.16
715.129	82.41
715.313	82.52
715.497	82.99
715.681	83.47
715.865	83.62
716.049	83.45
716.233	83.82
716.417	84.02
716.601	83.89
716.785	83.72
716.968	84.06
717.152	84.16
717.336	84.13
717.52	84.2
717.704	84.53
717.888	84.35
718.071	84.32
718.255	84.19
718.439	84.25
718.622	84.05
718.806	84.2
718.99	84.72
719.174	84.57
719.357	84.66
719.541	84.9
719.724	85.13
719.908	84.75
720.092	85.34
720.275	85.92
720.459	86.42
720.642	86.64
720.826	86.94
721.009	86.99
721.193	86.71
721.376	86
721.559	85.29
721.743	84.76
721.926	84.8
722.11	84.4
722.293	84.67
722.476	85.66
722.66	85.99
722.843	85.9
723.026	86.42
723.21	86.29
723.393	86.39
723.576	86.76
723.759	87.02
723.942	87.56
724.126	87.83
724.309	87.77
724.492	87.57
724.675	87.98
724.858	87.38
725.041	87.64
725.224	88.21
725.407	88.42
725.59	88
725.774	88.31
725.957	88.74
726.14	88.06
726.322	87.73
726.505	87.73
726.688	87.72
726.871	87.11
727.054	86.93
727.237	87.72
727.42	87.8
727.603	88.19
727.786	88.27
727.968	88.87
728.151	88.79
728.334	88.84
728.517	88.62
728.699	88.74
728.882	88.56
729.065	88.25
729.248	88.78
729.43	88.66
729.613	89.24
729.796	88.93
729.978	89.31
730.161	89.08
730.343	89.24
730.526	88.86
730.708	89.52
730.891	89.57
731.073	89.64
731.256	90.2
731.438	90.22
731.621	90.14
731.803	90.08
731.986	89.8
732.168	89.55
732.35	89.69
732.533	89.05
732.715	88.58
732.898	89.35
733.08	89.26
733.262	89.45
733.444	89.92
733.627	90.47
733.809	90.25
733.991	90.75
734.173	90.9
734.355	91.94
734.538	91.89
734.72	91.57
734.902	91.16
735.084	90.98
735.266	90.59
735.448	90.88
735.63	91.83
735.812	92.29
735.994	93.06
736.176	93.71
736.358	94.16
736.54	94.19
736.722	94.57
736.904	93.66
737.086	92.98
737.268	92.71
737.45	92.18
737.632	92.67
737.814	93.04
737.995	93.25
738.177	93.91
738.359	94.1
738.541	93.31
738.723	93.53
738.904	93.69
739.086	93.96
739.268	93.36
739.449	93.8
739.631	93.53
739.813	92.81
739.994	91.84
740.176	91.99
740.358	92.22
740.539	92.1
740.721	92.91
740.902	93.17
741.084	94
741.265	93.51
741.447	92.89
741.628	92.16
741.81	92.1
741.991	90.97
742.172	91.17
742.354	92.3
742.535	92.95
742.717	92.39
742.898	93.09
743.079	93.12
743.261	93.93
743.442	92.61
743.623	93.2
743.804	93.13
743.986	92.58
744.167	91.02
744.348	91.56
744.529	90.93
744.71	91.01
744.891	91.6
745.073	92.83
745.254	92.88
745.435	93.31
745.616	92.99
745.797	92.37
745.978	91.24
746.159	92.76
746.34	92.01
746.521	93.06
746.702	93.5
746.883	93.55
747.064	92.76
747.245	92.91
747.426	91.76
747.606	90.69
747.787	91.1
747.968	91.04
748.149	92.94
748.33	93.04
748.51	93.46
748.691	93.67
748.872	93.2
749.053	92.18
749.233	93.53
749.414	93.91
749.595	94.05
749.775	94.14
749.956	94.76
750.137	93.04
750.317	92.57
750.498	92.65
750.678	93.07
750.859	92.46
751.04	92.26
751.22	93.55
751.4	92.39
751.581	92.21
751.761	91.94
751.942	91.58
752.122	91.46
752.303	91.43
752.483	91.52
752.663	91.19
752.844	92.09
753.024	91.21
753.204	92.39
753.385	92.11
753.565	92.22
753.745	91.65
753.925	91.89
754.106	91.68
754.286	92.2
754.466	91.98
754.646	93.12
754.826	93.7
755.006	93.5
755.187	93.23
755.367	94.04
755.547	94.52
755.727	93.66
755.907	92.38
756.087	91.13
756.267	91.53
756.447	90.14
756.627	90.88
756.807	91.47
756.987	91.54
757.167	91.32
757.346	91.96
757.526	91.62
757.706	93
757.886	94.25
758.066	92.86
758.246	92.09
758.425	91.27
758.605	91.87
758.785	91.75
758.965	92.54
759.144	92.6
759.324	93.29
759.504	91.74
759.683	91.45
759.863	91.94
760.043	92.43
760.222	92.17
760.402	91.75
760.581	91.85
760.761	91.16
760.94	90.87
761.12	91.69
761.299	92.16
761.479	91.21
761.658	90.94
761.838	91.72
762.017	91.65
762.197	91.16
762.376	91.93
762.555	91.7
762.735	91.58
762.914	89.35
763.093	89.25
763.273	88.68
763.452	89.11
763.631	88.35
763.81	89.84
763.99	90.24
764.169	90.45
764.348	90.67
764.527	91.31
764.706	92.28
764.885	92.38
765.064	92.49
765.243	91.9
765.423	90.2
765.602	89.36
765.781	88.36
765.96	88.5
766.139	88.8
766.318	90.22
766.497	88.76
766.676	89.84
766.854	88.86
767.033	89.49
767.212	89.99
767.391	91.43
767.57	91.22
767.749	91.02
767.928	91.29
768.106	90.71
768.285	89.7
768.464	89.53
768.643	90.14
768.821	90.43
769	91.21
769.179	91.62
769.357	92.28
769.536	93.25
769.715	92.01
769.893	90.58
770.072	90.72
770.25	89.26
770.429	88.27
770.607	87.53
770.786	89.35
770.964	89.57
771.143	90.57
771.321	92.4
771.5	92.36
771.678	91.17
771.857	90.87
772.035	91.05
772.213	88.92
772.392	90.13
772.57	90.27
772.748	90.3
772.927	91.61
773.105	91.9
773.283	90.2
773.461	87.08
773.64	87.18
773.818	86.83
773.996	87.59
774.174	88.52
774.352	92.86
774.531	90.67
774.709	90.53
774.887	89.12
775.065	88.8
775.243	87.83
775.421	90.45
775.599	89.65
775.777	90.14
775.955	89.92
776.133	89.96
776.311	88.05
776.489	87.31
776.667	88.31
776.844	88.79
777.022	88.35
777.2	89.02
777.378	89.16
777.556	87.8
777.734	88.67
777.911	88.71
778.089	89.35
778.267	88.73
778.445	87.65
778.622	86.16
778.8	84.83
778.978	85.25
779.155	86.17
779.333	87.51
779.511	88.02
779.688	89.14
779.866	90.01
780.043	89.45
780.221	91.35
780.398	90.45
780.576	89.07
780.753	88.96
780.931	89.41
781.108	85.96
781.286	84.61
781.463	84.65
781.64	82.75
781.818	83.96
781.995	85.51
782.172	87.94
782.35	88.96
782.527	88.87
782.704	87.37
782.882	86.96
783.059	85.83
783.236	85.83
783.413	87.22
783.59	86.17
783.768	86.28
783.945	88.23
784.122	90.4
784.299	89.06
784.476	90.6
784.653	93.36
784.83	92.32
785.007	89.53
785.184	90.02
785.361	89.61
785.538	86.39
785.715	85.61
785.892	87.58
786.069	87.18
786.246	89.25
786.423	89.89
786.6	92.33
786.776	91.95
786.953	88.83
787.13	85.03
787.307	85.69
787.484	81.79
787.66	79.41
787.837	81.68
788.014	83.52
788.191	84.25
788.367	85.4
788.544	91.43
788.721	91.79
788.897	90.21
789.074	86.03
789.25	85.66
789.427	85.09
789.603	85.79
789.78	88.17
789.956	90.16
790.133	91.43
790.309	85.13
790.486	86.13
790.662	82.66
790.839	82.7
791.015	83.63
791.192	83.11
791.368	79.28
791.544	82.58
791.721	84.9
791.897	84.55
792.073	91.95
792.249	94.34
792.426	91.68
792.602	88.81
792.778	86.98
792.954	82.66
793.13	83.71
793.307	86.53
793.483	87.83
793.659	86.79
793.835	89.94
794.011	89.37
794.187	85.6
794.363	83.12
794.539	84.48
794.715	82.99
794.891	86.83
795.067	88.76
795.243	86.91
795.419	88.92
795.595	86.95
795.771	83.17
795.947	83.79
796.122	90.74
796.298	88.11
796.474	91.55
796.65	88.05
796.826	86.84
797.001	84.41
797.177	85.48
797.353	84.6
797.529	87.85
797.704	84.19
797.88	81.18
798.056	80.05
798.231	76.76
798.407	77.55
798.582	83.89
798.758	87.6
798.934	90.5
799.109	96.67
799.285	93.74
799.46	92.64
799.636	86.2
799.811	86.39
799.986	84.53
800.162	82.59
800.337	81.9
800.513	85.28
800.688	79.59
800.863	75.98
801.039	81.06
801.214	80.83
801.389	83.75
801.565	87.69
801.74	91.37
801.915	86.07
802.09	83.45
802.265	81.46
802.441	83.32
802.616	79.94
802.791	80.16
802.966	78.62
803.141	77.55
803.316	74.01
803.491	73.6
803.666	75.1
803.841	74.01
804.016	74.79
804.191	83.84
804.366	84.1
804.541	87.75
804.716	89.72
804.891	88.7
805.066	82.31
805.241	93.5
805.416	89.97
805.591	96.85
805.765	105.45
805.94	105.67
806.115	94.22
806.29	95.23
806.464	97.22
806.639	91.48
806.814	88.54
806.989	94.38
807.163	88.78
807.338	86.08
807.512	90.02
807.687	88.99
807.862	91.68
808.036	98.84
808.211	97.23
808.385	88.29
808.56	86.3
808.734	83.97
808.909	83.05
809.083	82.41
809.258	87.84
809.432	90.71
809.606	85.86
809.781	90.88
809.955	88.54
810.13	85.89
810.304	86.08
810.478	84
810.652	81.34
810.827	80.47
811.001	82.27
811.175	89.91
811.349	101.28
811.524	100.71
811.698	100.32
811.872	93.84
812.046	84.54
812.22	78.93
812.394	87.46
812.568	86.97
812.742	94.13
812.916	93.99
813.09	94.63
813.264	84.98
813.438	86.19
813.612	90.5
813.786	94.1
813.96	96.49
814.134	103.49
814.308	105.87
814.482	94.51
814.656	87.89
814.83	76.74
815.003	82.12
815.177	84.88
815.351	87.22
815.525	83.19
815.698	97.8
815.872	93.3
816.046	86.66
816.219	82.94
816.393	78.2
816.567	65.03
816.74	64.3
816.914	69.07
817.088	69.73
817.261	80.06
817.435	83.5
817.608	89.3
817.782	79.58
817.955	91.86
818.129	104.14
818.302	99.29
818.475	97.12
818.649	101.43
818.822	87.07
818.996	79.2
819.169	83.67
819.342	75.43
819.516	67.88
819.689	65.4
819.862	59.38
820.035	58.38
820.209	61.77
820.382	76.29
820.555	75.99
820.728	92.06
820.901	94.17
821.075	113.66
821.248	105.11
821.421	105.12
821.594	101.14
821.767	106.94
821.94	100.95
822.113	109.62
822.286	117.73
822.459	111.7
822.632	99.1
822.805	88.61
822.978	77.02
823.151	72.94
823.324	70.33
823.496	76.32
823.669	79.4
823.842	88.94
824.015	90.38
824.188	71.4
824.361	66.57
824.533	63.95
824.706	63.65
824.879	70.34
825.051	104.16
825.224	98.68
825.397	99.22
825.569	88.74
825.742	89.06
825.915	75.17
826.087	90.02
826.26	98.42
826.432	114.91
826.605	100.05
826.777	103.17
826.95	95.52
827.122	72.94
827.295	72.08
827.467	79.43
827.64	83.06
827.812	79.63
827.984	95.76
828.157	89.18
828.329	73.6
828.501	74.44
828.674	88.09
828.846	99.43
829.018	98.74
829.19	100.16
829.363	103.05
829.535	101.54
829.707	75.67
829.879	75.4
830.051	78.14
830.223	69.61
830.395	63.05
830.568	72.06
830.74	53.21
830.912	57.28
831.084	66.43
831.256	72.85
831.428	79.73
831.6	113.29
831.772	120.8
831.943	110.16
832.115	121.77
832.287	109.17
832.459	116.21
832.631	128.78
832.803	129.58
832.975	92.31
833.146	100.44
833.318	101.4
833.49	101.43
833.662	87.16
833.833	97.68
834.005	99.89
834.177	85.58
834.348	89.33
834.52	102.41
834.692	97.77
834.863	88.47
835.035	96.95
835.206	101.27
835.378	109.97
835.549	141.01
835.721	208.63
835.892	219.21
836.064	161.29
836.235	107.87
836.407	118.26
836.578	90.75
836.749	81.69
836.921	80.31
837.092	81.44
837.264	73.28
837.435	82.49
837.606	73.4
837.777	75.15
837.949	74.3
838.12	83.06
838.291	92.02
838.462	121.26
838.633	139.46
838.805	139.88
838.976	111.82
839.147	82.95
839.318	69.38
839.489	58.83
839.66	73.35
839.831	81.46
840.002	94.32
840.173	95.66
840.344	148.58
840.515	107.88
840.686	109.4
840.857	112.46
841.028	135.85
841.199	105.91
841.369	118.77
841.54	108.12
841.711	111.84
841.882	94.4
842.053	85.36
842.223	71.7
842.394	95.63
842.565	100.65
842.736	139.22
842.906	123.98
843.077	142.26
843.248	215.32
843.418	174.59
843.589	141.86
843.759	128.57
843.93	114.95
844.101	98.22
844.271	102.04
844.442	106.09
844.612	149.69
844.783	119.21
844.953	204.1
845.123	-46800
845.294	161.64
845.464	130.01
845.635	183.03
845.805	84.55
845.975	88.88
846.146	99.27
846.316	89.77
846.486	68.89
846.656	97.09
846.827	79.57
846.997	71.74
847.167	66.35
847.337	72.25
847.507	53.15
847.677	52.39
847.848	77.35
848.018	140.5
848.188	150.19
848.358	198.33
848.528	273.23
848.698	189.04
848.868	145.38
849.038	140.29
849.208	217.29
849.378	129.21
849.548	165.95
849.718	141.69
849.887	187.33
850.057	118.4
850.227	119.64
850.397	97.46
850.567	88.97
850.737	85.19
850.906	84.45
851.076	76.13
851.246	74.28
851.415	75.48
851.585	79.79
851.755	122.68
851.924	138.99
852.094	167.73
852.264	180.85
852.433	189.97
852.603	127.48
852.772	146.11
852.942	133.9
853.111	146.55
853.281	131.43
853.45	133.24
853.62	101.98
853.789	101.78
853.959	89.25
854.128	80.72
854.297	81.82
854.467	97.97
854.636	125.87
854.805	98.95
854.975	109.71
855.144	66.63
855.313	76.57
855.482	92.01
855.652	110.11
855.821	98.87
855.99	112.45
856.159	141.63
856.328	139.29
856.497	127.56
856.667	183.55
856.836	245.55
857.005	195.52
857.174	208.7
857.343	177.09
857.512	164.15
857.681	99.61
857.85	98.36
858.019	133.7
858.188	171.7
858.356	131.27
858.525	114.21
858.694	105.81
858.863	64.75
859.032	75.68
859.201	63.16
859.369	135.15
859.538	110.31
859.707	131.11
859.876	91.03
860.044	96.33
860.213	79.38
860.382	101.35
860.55	90.28
860.719	79.65
860.888	83.93
861.056	80.95
861.225	57.09
861.393	103.92
861.562	103.68
861.73	91.09
861.899	84.03
862.067	100.63
862.236	58.55
862.404	73.27
862.572	200.48
862.741	228.61
862.909	188.43
863.078	143.98
863.246	143.11
863.414	36.11
863.582	67.44
863.751	38.08
863.919	108.94
864.087	307.74
864.255	-743.84
864.424	372.48
864.592	189
864.76	77.99
864.928	82.35
865.096	78.44
865.264	85.4
865.432	71.04
865.6	117.45
865.768	93.38
865.936	76.95
866.104	67.1
866.272	71.42
866.44	37.24
866.608	47.58
866.776	45.52
866.944	24.14
867.112	46.5
867.28	70.72
867.448	177.91
867.615	204.58
867.783	123.53
867.951	107.48
868.119	82.04
868.286	53.77
868.454	35.12
868.622	40.82
868.789	26.23
868.957	76.2
869.125	84.45
869.292	76.12
869.46	92.6
869.627	140.73
869.795	485.29
869.963	98.86
870.13	-496.72
870.298	196.4
870.465	135.54
870.632	61.35
870.8	107.4
870.967	76.38
871.135	91.57
871.302	112.28
871.469	128.41
871.637	127.92
871.804	98.45
871.971	79.52
872.139	63.49
872.306	67.09
872.473	66.33
872.64	80.54
872.807	83.08
872.975	140.65
873.142	143.18
873.309	93.32
873.476	161.88
873.643	161.1
873.81	157.59
873.977	112.07
874.144	91.65
874.311	57.71
874.478	37.01
874.645	52.33
874.812	84.98
874.979	101.71
875.146	76.43
875.313	84.99
875.48	70.01
875.647	59.73
875.813	75.59
875.98	118
876.147	87.65
876.314	55.86
876.481	41.88
876.647	15.41
876.814	-29.4
876.981	-82.17
877.147	-11700
877.314	46.55
877.481	-122.73
877.647	-1718.18
877.814	150.87
877.98	161.94
878.147	131.08
878.314	238.77
878.48	179.92
878.647	155.96
878.813	126.81
878.979	117.95
879.146	91.98
879.312	111.66
879.479	163.02
879.645	167.05
879.811	345.11
879.978	255.86
880.144	157.87
880.31	108.19
880.477	92.71
880.643	78.8
880.809	67.67
880.975	98.91
881.142	116.76
881.308	1854.55
881.474	-127.7
881.64	-4.92
881.806	-4.57
881.972	-89.72
882.138	-612.33
882.304	393.75
882.47	60.65
882.636	89.03
882.802	130.33
882.968	401.41
883.134	103.31
883.3	118.11
883.466	135.66
883.632	134.65
883.798	130.99
883.964	156.59
884.129	574.77
884.295	190.24
884.461	199.68
884.627	83.79
884.793	74.81
884.958	68.06
885.124	67.91
885.29	19.55
885.455	63.91
885.621	129.24
885.787	-311.39
885.952	654.22
886.118	230.57
886.283	211.32
886.449	190.32
886.614	127.43
886.78	99.82
886.945	115.48
887.111	93.43
887.276	90.43
887.442	121
887.607	129.54
887.773	121.93
887.938	167.94
888.103	345.51
888.269	300
888.434	304.52
888.599	391.5
888.764	201.53
888.93	165.52
889.095	102.1
889.26	171.13
889.425	165.58
889.59	159.63
889.756	140.52
889.921	146.22
890.086	147.39
890.251	155.46
890.416	145.15
890.581	148.07
890.746	87.78
890.911	62.67
891.076	34.55
891.241	38.37
891.406	76.52
891.571	126.34
891.736	122.25
891.901	126.74
892.065	190.7
892.23	227.09
892.395	126.16
892.56	101.06
892.725	78.5
892.889	69.55
893.054	93.5
893.219	183.58
893.384	281.34
893.548	-615.19
893.713	-672.58
893.878	-50.85
