Data from Ofra_PS_Phys_0CX5_Reflection_3.txt Node
Date: Tue Jul 20 14:44:39 EDT 2021
User: USUARIO
Spectrometer: FLMT01687
Trigger mode: 0
Integration Time (sec): 1.200000E0
Scans to average: 2
Electric dark correction enabled: true
Nonlinearity correction enabled: false
Boxcar width: 2
XAxis mode: Wavelengths
Number of Pixels in Spectrum: 3648
>>>>>Begin Spectral Data<<<<<
179.494	76.28
179.716	757.58
179.937	-368.21
180.158	-19.98
180.38	31.92
180.601	30.23
180.823	553.91
181.044	247.28
181.265	-245.65
181.486	63.6
181.708	108.61
181.929	196.92
182.15	103.22
182.372	-798.37
182.593	112.18
182.814	-5346.67
183.035	-379.08
183.257	-51.67
183.478	-14.71
183.699	36.73
183.92	13.12
184.141	23.35
184.363	49.12
184.584	18.05
184.805	-11.84
185.026	8.03
185.247	16.83
185.468	0.56
185.689	21.31
185.91	18.82
186.132	33.45
186.353	26.29
186.574	36.13
186.795	28.92
187.016	36.79
187.237	40.42
187.458	44.95
187.679	46.61
187.9	54.16
188.121	33.54
188.342	21.85
188.563	25.29
188.784	25.02
189.005	20.23
189.226	59.53
189.447	51.4
189.667	38.46
189.888	41.04
190.109	44.25
190.33	41.79
190.551	49.16
190.772	41.07
190.993	39.22
191.214	29.03
191.434	19.6
191.655	18.72
191.876	12.5
192.097	9.21
192.318	19.12
192.538	30.35
192.759	21.68
192.98	38.29
193.201	30.93
193.421	17.16
193.642	11.88
193.863	18.76
194.083	29.41
194.304	28.63
194.525	22
194.745	32.99
194.966	32.66
195.187	-4.66
195.407	-24.18
195.628	-7.68
195.848	-13.79
196.069	-8.36
196.29	-8.3
196.51	18.6
196.731	18.49
196.951	6.77
197.172	4.27
197.392	22.61
197.613	8.87
197.833	10.85
198.054	17.09
198.274	20.48
198.495	9.84
198.715	-5.55
198.936	1.18
199.156	2.74
199.377	-92.41
199.597	-100.87
199.817	-27.02
200.038	-60.54
200.258	-56.82
200.479	-7.43
200.699	-20.69
200.919	-29.12
201.14	21.38
201.36	34.35
201.58	22.16
201.801	28.59
202.021	14.65
202.241	19.71
202.461	19.46
202.682	27.26
202.902	35.72
203.122	36.45
203.342	29.26
203.563	16.3
203.783	18.16
204.003	-2.97
204.223	-1.54
204.443	5.25
204.663	12.37
204.884	8.58
205.104	34.61
205.324	50.26
205.544	48.25
205.764	58.64
205.984	43.46
206.204	46.72
206.424	27.6
206.644	6.88
206.864	-9.25
207.084	9.61
207.304	-5.48
207.525	-8.84
207.745	1.36
207.964	6.6
208.184	3.92
208.404	0.91
208.624	17.43
208.844	12.68
209.064	11.85
209.284	10.83
209.504	14.9
209.724	-3.2
209.944	10.51
210.164	6.4
210.384	21.96
210.604	8.71
210.823	30.25
211.043	31.01
211.263	20.52
211.483	8.47
211.703	25.83
211.922	13.78
212.142	19.66
212.362	28.21
212.582	16.34
212.801	5.41
213.021	17.24
213.241	9.99
213.461	-2.63
213.68	3.64
213.9	20.6
214.12	13.02
214.339	-6.13
214.559	-3.67
214.779	12.6
214.998	6.41
215.218	-11.46
215.438	7.84
215.657	25.97
215.877	10.92
216.096	14.28
216.316	21.25
216.535	15.18
216.755	16.98
216.974	30.21
217.194	28.05
217.413	37.17
217.633	39.55
217.852	61.34
218.072	50.73
218.291	54.81
218.511	41.09
218.73	30.58
218.95	15.01
219.169	14.26
219.389	6.85
219.608	7.34
219.827	22.5
220.047	31.07
220.266	32.13
220.485	51.63
220.705	63.64
220.924	67.31
221.143	50.87
221.363	39.39
221.582	27.53
221.801	13.15
222.021	1.25
222.24	3.68
222.459	0.17
222.678	-2.52
222.897	7.61
223.117	-8.1
223.336	-1.78
223.555	-8.42
223.774	-1.36
223.993	14.78
224.213	24.68
224.432	19.3
224.651	44.99
224.87	45.39
225.089	35.91
225.308	44.98
225.527	41.56
225.746	23.98
225.965	24.08
226.184	27.36
226.404	22.11
226.623	38.43
226.842	28.42
227.061	30.19
227.28	18.9
227.499	19.95
227.718	1.81
227.936	31.15
228.155	35.55
228.374	38.38
228.593	36.73
228.812	34.81
229.031	8.42
229.25	-9.7
229.469	-7.65
229.688	-12.45
229.907	-3.13
230.125	1.71
230.344	10.3
230.563	13.86
230.782	13.82
231.001	-11.64
231.22	6.85
231.438	-0.42
231.657	-2.43
231.876	-5.94
232.095	14.45
232.313	28.41
232.532	41.98
232.751	40.57
232.969	46.09
233.188	42.26
233.407	28.16
233.625	0.56
233.844	5.84
234.063	5.97
234.281	8.45
234.5	8.57
234.719	18.83
234.937	10.46
235.156	19.52
235.374	30.03
235.593	31.64
235.811	32.1
236.03	37.23
236.249	27.96
236.467	23.96
236.686	29.65
236.904	29.29
237.123	28.62
237.341	26.07
237.559	24.4
237.778	25.44
237.996	23.68
238.215	21.65
238.433	29.23
238.652	30.44
238.87	3.93
239.088	1.04
239.307	6.65
239.525	-18.76
239.743	-5.05
239.962	-5.13
240.18	3.36
240.398	-11.84
240.617	-0.32
240.835	-0.87
241.053	10.19
241.271	23.32
241.49	34.49
241.708	41.63
241.926	59.56
242.144	62.69
242.363	48.11
242.581	54.64
242.799	56.54
243.017	16.27
243.235	20.76
243.453	23.18
243.672	22.92
243.89	13.88
244.108	34.05
244.326	38.78
244.544	36.64
244.762	28.4
244.98	25.65
245.198	11.91
245.416	10.42
245.634	21.58
245.852	27.36
246.07	20.95
246.288	28.05
246.506	18.59
246.724	13.75
246.942	-1.39
247.16	14.79
247.378	4.95
247.596	3.25
247.814	-3.22
248.032	-1.09
248.25	-18.3
248.468	-15.43
248.685	-7.65
248.903	14.53
249.121	27.96
249.339	31.4
249.557	26.27
249.775	34.6
249.992	18.47
250.21	16.12
250.428	26.22
250.646	14.76
250.863	15.23
251.081	21.95
251.299	22.98
251.517	20.89
251.734	35.61
251.952	28.07
252.17	20.07
252.387	15.76
252.605	9.89
252.823	-5.39
253.04	3.22
253.258	8.74
253.475	25.2
253.693	38.82
253.911	45.12
254.128	32.76
254.346	18.77
254.563	-7.16
254.781	-8.43
254.998	-8.2
255.216	7.42
255.433	26.43
255.651	48.19
255.868	33.49
256.086	23.84
256.303	28.97
256.521	31.68
256.738	16.57
256.956	15.92
257.173	24.17
257.39	21.35
257.608	3.45
257.825	-5.25
258.043	-7.46
258.26	-6.95
258.477	-9.07
258.695	-6.31
258.912	30.95
259.129	32.55
259.346	19.17
259.564	6.16
259.781	-14.58
259.998	-0.81
260.216	2.07
260.433	22.44
260.65	29.16
260.867	42.63
261.084	15.12
261.302	13.54
261.519	-0.64
261.736	8.93
261.953	14.48
262.17	26.61
262.387	23.82
262.604	43.69
262.822	31.48
263.039	30.91
263.256	30.43
263.473	26.82
263.69	-0.11
263.907	-1.14
264.124	0.02
264.341	-16.16
264.558	-24.53
264.775	-11.43
264.992	-14.74
265.209	-24.95
265.426	-2.52
265.643	31.82
265.86	27.9
266.077	46.38
266.294	41.4
266.51	35
266.727	20.67
266.944	21.2
267.161	21.15
267.378	25.04
267.595	27.94
267.812	17.8
268.028	17.91
268.245	-2.79
268.462	-4.39
268.679	-13.52
268.896	-19.61
269.112	-7.07
269.329	2.58
269.546	-15.19
269.763	1.32
269.979	8.6
270.196	0.34
270.413	10.58
270.629	22.98
270.846	16.85
271.063	11.69
271.279	13
271.496	-5.81
271.712	9.39
271.929	10.81
272.146	17.9
272.362	3.66
272.579	7.67
272.795	0.16
273.012	-6.72
273.228	1.94
273.445	17.93
273.661	22.45
273.878	14.27
274.094	8.37
274.311	-4.1
274.527	-11.68
274.744	-25.75
274.96	-9.12
275.177	-8.17
275.393	-16.04
275.609	-11.05
275.826	6.49
276.042	0.64
276.259	-1.97
276.475	1.23
276.691	2.5
276.908	9.3
277.124	12.98
277.34	16.58
277.557	29.31
277.773	16.62
277.989	15.61
278.205	15.69
278.422	21.63
278.638	19.22
278.854	30.94
279.07	14.13
279.286	7.94
279.503	1.14
279.719	8.78
279.935	6.39
280.151	15.75
280.367	25.14
280.583	38.14
280.799	25.04
281.016	26.39
281.232	29.19
281.448	30.13
281.664	14.58
281.88	20.19
282.096	22.39
282.312	18.78
282.528	9.34
282.744	17.62
282.96	14.03
283.176	13.18
283.392	7.24
283.608	10.24
283.824	8.86
284.04	13.24
284.256	1.56
284.471	-3.8
284.687	-10.06
284.903	-22.35
285.119	-16.83
285.335	3.51
285.551	11.87
285.767	14.32
285.982	26.87
286.198	29
286.414	24.02
286.63	33.92
286.846	28.21
287.061	38.61
287.277	11.92
287.493	3.63
287.709	-17.66
287.924	-12.16
288.14	-12.68
288.356	5.86
288.571	8.19
288.787	7.62
289.003	2.01
289.218	-3.94
289.434	-7.88
289.65	-4.79
289.865	-17.35
290.081	-9.87
290.296	-12.4
290.512	-23.12
290.727	-31.33
290.943	-10.72
291.159	-9.49
291.374	-6.53
291.59	3.69
291.805	11.91
292.021	5.29
292.236	4.55
292.451	10.07
292.667	7.52
292.882	2.11
293.098	0.57
293.313	10.43
293.529	3.48
293.744	7.02
293.959	1.72
294.175	7.93
294.39	-18.49
294.605	-6.04
294.821	-15.49
295.036	7.04
295.251	18.5
295.467	36.41
295.682	31.67
295.897	31.77
296.112	29.7
296.328	22.77
296.543	14.61
296.758	23.06
296.973	21.77
297.188	35.8
297.404	28.17
297.619	32.47
297.834	28.99
298.049	33.4
298.264	11.08
298.479	23
298.694	17.19
298.909	19.32
299.125	19.25
299.34	13.33
299.555	5.07
299.77	13.45
299.985	7.53
300.2	1.91
300.415	1.48
300.63	-5.93
300.845	-9.06
301.06	-19.48
301.275	-19.7
301.49	-15.2
301.704	5.49
301.919	6.78
302.134	25.91
302.349	22.5
302.564	35.24
302.779	20.29
302.994	16.76
303.209	15.63
303.423	23.43
303.638	5.6
303.853	9.32
304.068	-7.55
304.283	-21.51
304.497	-15.26
304.712	-15.34
304.927	-1.79
305.142	7.18
305.356	10.29
305.571	8.79
305.786	17.23
306	5.77
306.215	5.57
306.43	21.85
306.644	22.49
306.859	18.17
307.074	17.99
307.288	10.83
307.503	-0.22
307.717	5.04
307.932	3.39
308.147	1.48
308.361	14.9
308.576	15.18
308.79	8.82
309.005	0.65
309.219	0.03
309.434	1.02
309.648	-4.69
309.863	-7
310.077	-4.2
310.292	-17.48
310.506	-25.81
310.72	1.36
310.935	1.04
311.149	14.01
311.364	31.72
311.578	42.1
311.792	18.15
312.007	23.34
312.221	25.93
312.435	31.21
312.649	24.82
312.864	44.83
313.078	34.42
313.292	12.22
313.507	3.81
313.721	-2.78
313.935	-4.77
314.149	-7.98
314.363	9.84
314.578	17.64
314.792	8.41
315.006	7.24
315.22	-0.42
315.434	-7.98
315.648	-10.2
315.862	-14.59
316.077	-7.36
316.291	8.47
316.505	7.07
316.719	-2.57
316.933	15.11
317.147	11.45
317.361	-3.74
317.575	-5.27
317.789	4.21
318.003	-5.96
318.217	-8.43
318.431	-3.18
318.645	3.87
318.859	-5.53
319.073	0.7
319.287	1.93
319.5	8.8
319.714	17.67
319.928	23.55
320.142	14.71
320.356	11.47
320.57	7.77
320.784	-0.21
320.997	-2.67
321.211	1.43
321.425	17.07
321.639	11.82
321.853	17.65
322.066	8.61
322.28	-21.35
322.494	-11.16
322.707	6.2
322.921	4.05
323.135	15.97
323.349	20.17
323.562	13.53
323.776	6.1
323.989	3.2
324.203	6.1
324.417	24.8
324.63	14.56
324.844	23.26
325.057	32.19
325.271	25.35
325.485	6.99
325.698	13.29
325.912	7.87
326.125	-2.24
326.339	0.92
326.552	7.1
326.766	1.2
326.979	1.1
327.193	15.54
327.406	16.25
327.619	20.13
327.833	41.61
328.046	47.13
328.26	24.09
328.473	25.72
328.686	25.34
328.9	6.83
329.113	-2.19
329.326	9.72
329.54	11.52
329.753	12.42
329.966	15.44
330.179	20.79
330.393	31.27
330.606	28.02
330.819	21.66
331.032	16.64
331.246	13.02
331.459	9.36
331.672	-7.55
331.885	-9.47
332.098	-8.73
332.311	-14.07
332.525	-24.44
332.738	9
332.951	32.89
333.164	30.66
333.377	23.83
333.59	18.37
333.803	11.24
334.016	-1.35
334.229	18.41
334.442	15.27
334.655	12.91
334.868	17.07
335.081	7.74
335.294	-4.21
335.507	-1.88
335.72	13.73
335.933	7.82
336.146	11.49
336.359	7.17
336.572	20.68
336.785	-5.76
336.997	-10.9
337.21	-26.05
337.423	-21.81
337.636	-55.65
337.849	-23.19
338.062	-12.36
338.274	4.37
338.487	6.79
338.7	7.83
338.913	0.15
339.125	5.26
339.338	-3.57
339.551	1.93
339.763	9.06
339.976	29.7
340.189	24.24
340.402	34.57
340.614	33.26
340.827	28.68
341.039	11.35
341.252	11.61
341.465	13.44
341.677	12.53
341.89	12.27
342.102	13.2
342.315	19.81
342.527	18.85
342.74	20.82
342.952	30.15
343.165	28.5
343.377	23.54
343.59	16.54
343.802	7.41
344.015	-0.22
344.227	1.42
344.44	4.37
344.652	14.74
344.864	16.49
345.077	20.97
345.289	38.57
345.502	35.17
345.714	19.18
345.926	15.42
346.139	17.04
346.351	-0.85
346.563	11.22
346.775	20.52
346.988	21.4
347.2	15
347.412	12.34
347.624	8.57
347.837	9.44
348.049	7.52
348.261	2.18
348.473	19.56
348.685	18.63
348.897	10.29
349.11	4.92
349.322	6.55
349.534	-5.34
349.746	-7.48
349.958	-2.15
350.17	6.02
350.382	-0.1
350.594	-9.09
350.806	-11.8
351.018	-2.34
351.23	-6.43
351.442	-4
351.654	-6.9
351.866	6.59
352.078	14.36
352.29	15.12
352.502	21.64
352.714	15.63
352.926	10.2
353.138	5.99
353.35	9.63
353.561	7.73
353.773	18.37
353.985	10.39
354.197	4.45
354.409	-3.04
354.621	0.16
354.832	-2.03
355.044	1.71
355.256	2.36
355.468	-1.12
355.679	-10.33
355.891	-3.89
356.103	-1.49
356.314	-10.48
356.526	-3.98
356.738	4.71
356.949	1.45
357.161	15.93
357.373	26.21
357.584	19.95
357.796	23.45
358.008	15.04
358.219	1.16
358.431	4.75
358.642	20.01
358.854	11.18
359.065	28.72
359.277	28.66
359.488	16.04
359.7	10.62
359.911	15.86
360.123	5.39
360.334	3.23
360.546	17.19
360.757	16.32
360.969	6.74
361.18	11.83
361.391	20.67
361.603	17.67
361.814	8.73
362.025	11.85
362.237	13.66
362.448	10.08
362.659	1.54
362.871	13.95
363.082	13.17
363.293	11.74
363.504	-1.19
363.716	-0.38
363.927	-7.85
364.138	-1.41
364.349	1.44
364.56	11
364.772	15.43
364.983	19
365.194	19.31
365.405	21.89
365.616	21.62
365.827	20.76
366.038	25.73
366.25	24.11
366.461	26.36
366.672	34.38
366.883	38.31
367.094	45.22
367.305	41.06
367.516	31.85
367.727	25.45
367.938	17.5
368.149	1.14
368.36	9.81
368.571	13.25
368.781	9.28
368.992	6.18
369.203	7.43
369.414	-5.95
369.625	-1.95
369.836	-1.14
370.047	2.77
370.258	4.96
370.468	14.04
370.679	10.42
370.89	11.13
371.101	2.17
371.312	-0.33
371.522	0.13
371.733	0.99
371.944	0.98
372.155	22.3
372.365	26.27
372.576	22.85
372.787	23.09
372.997	27.9
373.208	15.54
373.419	13.25
373.629	9.55
373.84	5.34
374.05	5.12
374.261	1.28
374.472	0.97
374.682	3.96
374.893	11.35
375.103	-0.6
375.314	10.62
375.524	5.78
375.735	6.53
375.945	11.56
376.156	16.87
376.366	6.85
376.577	16.9
376.787	17.15
376.997	16.47
377.208	14.86
377.418	11.29
377.629	7.35
377.839	12.27
378.049	0.69
378.26	6.65
378.47	11.32
378.68	22.42
378.89	12.65
379.101	16.68
379.311	17.13
379.521	19.33
379.732	9.25
379.942	4.33
380.152	-4.56
380.362	-7.52
380.572	-14.2
380.783	-4.76
380.993	13.14
381.203	20.58
381.413	23.79
381.623	28.01
381.833	22.53
382.043	8.91
382.253	-1.96
382.463	-1.98
382.674	0.24
382.884	3.9
383.094	12.13
383.304	25.43
383.514	18.63
383.724	20.73
383.934	18.24
384.144	20.47
384.353	7.32
384.563	2.74
384.773	1.29
384.983	6.86
385.193	4.69
385.403	10.73
385.613	12.49
385.823	9.9
386.033	3.33
386.242	0.81
386.452	-1.48
386.662	5.39
386.872	8.94
387.082	8.06
387.291	8.7
387.501	6.94
387.711	8.44
387.921	2.72
388.13	5.61
388.34	9.06
388.55	14.14
388.759	9.05
388.969	11.58
389.179	12.57
389.388	12.63
389.598	10.84
389.807	11.03
390.017	8.48
390.227	6.49
390.436	2.96
390.646	5.34
390.855	4.6
391.065	4.78
391.274	5.33
391.484	4.88
391.693	0.52
391.903	0.91
392.112	2.63
392.322	3.41
392.531	5.75
392.74	8.98
392.95	10.45
393.159	9.34
393.369	9.09
393.578	7.39
393.787	5.06
393.997	4.04
394.206	5.39
394.415	6.62
394.625	7.82
394.834	8.7
395.043	8.35
395.252	6.84
395.462	5.3
395.671	3.81
395.88	3.71
396.089	3.44
396.298	3.39
396.508	4.4
396.717	4.87
396.926	5.09
397.135	4.9
397.344	5.17
397.553	5.49
397.762	6.04
397.971	5.3
398.181	5.46
398.39	5.33
398.599	4.73
398.808	4.21
399.017	5.03
399.226	5.48
399.435	5.29
399.644	4.81
399.853	5.1
400.062	4.86
400.27	4.14
400.479	4.28
400.688	4.91
400.897	4.78
401.106	4.68
401.315	4.95
401.524	4.81
401.733	4.63
401.941	4.91
402.15	4.9
402.359	4.75
402.568	5.01
402.777	4.86
402.985	4.71
403.194	4.57
403.403	4.63
403.612	4.32
403.82	4.19
404.029	4.03
404.238	4.31
404.446	4.47
404.655	4.54
404.864	4.59
405.072	4.64
405.281	4.46
405.489	4.41
405.698	4.45
405.906	4.39
406.115	4.43
406.324	4.37
406.532	4.2
406.741	4.07
406.949	4.11
407.158	4.03
407.366	3.93
407.574	3.96
407.783	3.97
407.991	3.99
408.2	4.2
408.408	4.44
408.617	4.37
408.825	4.43
409.033	4.5
409.242	4.16
409.45	4.14
409.658	4.09
409.867	4.04
410.075	4.03
410.283	4.08
410.491	3.94
410.7	3.95
410.908	4.04
411.116	3.93
411.324	3.94
411.533	3.88
411.741	4
411.949	3.95
412.157	3.97
412.365	3.99
412.573	3.99
412.781	3.87
412.99	3.87
413.198	3.92
413.406	3.92
413.614	3.92
413.822	3.89
414.03	4
414.238	3.81
414.446	3.74
414.654	3.68
414.862	3.74
415.07	3.52
415.278	3.54
415.486	3.45
415.694	3.45
415.902	3.52
416.109	3.54
416.317	3.64
416.525	3.66
416.733	3.75
416.941	3.64
417.149	3.67
417.357	3.77
417.564	3.72
417.772	3.6
417.98	3.63
418.188	3.54
418.395	3.4
418.603	3.5
418.811	3.54
419.019	3.64
419.226	3.79
419.434	3.83
419.642	3.8
419.849	3.78
420.057	3.63
420.265	3.48
420.472	3.36
420.68	3.29
420.887	3.32
421.095	3.35
421.302	3.29
421.51	3.28
421.717	3.22
421.925	3.19
422.132	3.17
422.34	3.33
422.547	3.44
422.755	3.5
422.962	3.51
423.17	3.46
423.377	3.3
423.585	3.17
423.792	3.17
423.999	3.03
424.207	3.09
424.414	3.16
424.621	3.19
424.829	3.06
425.036	3.18
425.243	3.15
425.451	3.33
425.658	3.33
425.865	3.54
426.072	3.37
426.28	3.44
426.487	3.18
426.694	3.21
426.901	3.02
427.108	3.11
427.315	2.99
427.523	3.07
427.73	3.04
427.937	3.17
428.144	3.15
428.351	3.25
428.558	3.15
428.765	3.23
428.972	3.2
429.179	3.23
429.386	3.38
429.593	3.51
429.8	3.38
430.007	3.41
430.214	3.6
430.421	3.54
430.628	3.38
430.835	3.36
431.042	3.37
431.249	3.24
431.456	3.02
431.662	3.07
431.869	3.15
432.076	3.25
432.283	3.08
432.49	3.18
432.697	3.18
432.903	3.12
433.11	2.99
433.317	3.15
433.524	3.27
433.73	3.39
433.937	3.42
434.144	3.41
434.35	3.42
434.557	3.34
434.764	3.27
434.97	3.26
435.177	3.32
435.384	3.36
435.59	3.33
435.797	3.44
436.003	3.47
436.21	3.44
436.416	3.45
436.623	3.51
436.829	3.42
437.036	3.47
437.242	3.43
437.449	3.3
437.655	3.29
437.862	3.37
438.068	3.36
438.275	3.44
438.481	3.62
438.687	3.63
438.894	3.6
439.1	3.64
439.307	3.66
439.513	3.58
439.719	3.54
439.926	3.5
440.132	3.54
440.338	3.57
440.544	3.61
440.751	3.65
440.957	3.72
441.163	3.59
441.369	3.65
441.575	3.65
441.782	3.76
441.988	3.73
442.194	3.8
442.4	3.72
442.606	3.71
442.812	3.68
443.018	3.74
443.224	3.7
443.431	3.72
443.637	3.62
443.843	3.57
444.049	3.53
444.255	3.54
444.461	3.58
444.667	3.64
444.873	3.67
445.079	3.67
445.284	3.69
445.49	3.71
445.696	3.74
445.902	3.74
446.108	3.86
446.314	3.85
446.52	3.78
446.726	3.79
446.931	3.83
447.137	3.8
447.343	3.84
447.549	3.86
447.755	3.9
447.96	3.84
448.166	3.78
448.372	3.81
448.578	3.82
448.783	3.77
448.989	3.86
449.195	3.83
449.4	3.78
449.606	3.73
449.812	3.75
450.017	3.79
450.223	3.83
450.428	3.86
450.634	3.92
450.84	3.95
451.045	3.87
451.251	3.83
451.456	3.86
451.662	3.88
451.867	3.87
452.073	3.83
452.278	3.83
452.483	3.72
452.689	3.78
452.894	3.74
453.1	3.8
453.305	3.72
453.51	3.86
453.716	3.83
453.921	3.92
454.127	3.89
454.332	4.02
454.537	3.96
454.742	3.82
454.948	3.8
455.153	3.82
455.358	3.75
455.563	3.7
455.769	3.87
455.974	3.78
456.179	3.76
456.384	3.73
456.589	3.77
456.795	3.56
457	3.58
457.205	3.67
457.41	3.72
457.615	3.73
457.82	3.83
458.025	3.91
458.23	3.8
458.435	3.8
458.64	3.75
458.845	3.76
459.05	3.75
459.255	3.83
459.46	3.83
459.665	3.84
459.87	3.93
460.075	3.98
460.28	3.9
460.485	3.95
460.69	4.05
460.895	3.93
461.099	3.86
461.304	3.88
461.509	3.89
461.714	3.87
461.919	3.92
462.123	3.99
462.328	3.98
462.533	3.94
462.738	3.97
462.942	3.91
463.147	3.84
463.352	3.79
463.556	3.81
463.761	3.63
463.966	3.63
464.17	3.66
464.375	3.76
464.58	3.86
464.784	3.98
464.989	4.11
465.193	4.06
465.398	4.04
465.602	3.95
465.807	3.95
466.011	3.9
466.216	3.94
466.42	3.88
466.625	3.92
466.829	3.99
467.034	3.97
467.238	4.03
467.443	4.07
467.647	3.99
467.851	4.01
468.056	4.03
468.26	4.02
468.464	4.11
468.669	4.16
468.873	4.21
469.077	4.21
469.282	4.23
469.486	4.11
469.69	4.17
469.894	4.12
470.099	4.17
470.303	4.21
470.507	4.32
470.711	4.36
470.915	4.36
471.119	4.41
471.324	4.34
471.528	4.44
471.732	4.41
471.936	4.38
472.14	4.34
472.344	4.37
472.548	4.23
472.752	4.23
472.956	4.26
473.16	4.28
473.364	4.25
473.568	4.3
473.772	4.4
473.976	4.4
474.18	4.49
474.384	4.52
474.588	4.51
474.792	4.41
474.995	4.43
475.199	4.37
475.403	4.41
475.607	4.49
475.811	4.55
476.015	4.58
476.218	4.56
476.422	4.58
476.626	4.53
476.83	4.54
477.033	4.57
477.237	4.63
477.441	4.63
477.644	4.7
477.848	4.68
478.052	4.68
478.255	4.67
478.459	4.69
478.663	4.64
478.866	4.68
479.07	4.68
479.273	4.68
479.477	4.65
479.681	4.72
479.884	4.7
480.088	4.75
480.291	4.75
480.495	4.81
480.698	4.83
480.901	4.86
481.105	4.87
481.308	4.89
481.512	4.88
481.715	4.88
481.919	4.89
482.122	4.84
482.325	4.86
482.529	4.93
482.732	4.92
482.935	4.89
483.138	4.93
483.342	4.89
483.545	4.81
483.748	4.79
483.952	4.82
484.155	4.83
484.358	4.88
484.561	4.9
484.764	4.92
484.967	4.99
485.171	5.02
485.374	5
485.577	5.04
485.78	5.03
485.983	5.02
486.186	5.03
486.389	5.1
486.592	5.02
486.795	5.06
486.998	4.98
487.201	4.93
487.404	4.9
487.607	4.97
487.81	5.01
488.013	5.08
488.216	5.09
488.419	5.1
488.622	5.11
488.825	5.07
489.028	4.99
489.231	5.03
489.433	5.04
489.636	4.99
489.839	5.05
490.042	5.15
490.245	5.16
490.447	5.18
490.65	5.23
490.853	5.2
491.056	5.19
491.258	5.12
491.461	5.1
491.664	5.07
491.866	5.06
492.069	5.05
492.272	5.04
492.474	5.04
492.677	5.13
492.879	5.17
493.082	5.2
493.285	5.3
493.487	5.33
493.69	5.27
493.892	5.24
494.095	5.24
494.297	5.2
494.5	5.24
494.702	5.23
494.905	5.26
495.107	5.21
495.309	5.28
495.512	5.26
495.714	5.37
495.917	5.37
496.119	5.45
496.321	5.44
496.524	5.53
496.726	5.45
496.928	5.54
497.13	5.54
497.333	5.58
497.535	5.53
497.737	5.51
497.939	5.44
498.142	5.43
498.344	5.32
498.546	5.37
498.748	5.49
498.95	5.51
499.152	5.53
499.355	5.57
499.557	5.52
499.759	5.58
499.961	5.6
500.163	5.62
500.365	5.74
500.567	5.8
500.769	5.75
500.971	5.73
501.173	5.7
501.375	5.65
501.577	5.67
501.779	5.71
501.981	5.77
502.183	5.85
502.385	5.91
502.587	5.88
502.788	5.86
502.99	5.91
503.192	5.88
503.394	5.86
503.596	5.88
503.798	5.93
503.999	5.9
504.201	5.92
504.403	5.97
504.605	6
504.806	5.97
505.008	6.04
505.21	6.06
505.411	6.03
505.613	6.09
505.815	6.14
506.016	6.14
506.218	6.21
506.42	6.21
506.621	6.16
506.823	6.19
507.024	6.18
507.226	6.21
507.427	6.28
507.629	6.33
507.83	6.33
508.032	6.33
508.233	6.29
508.435	6.31
508.636	6.33
508.838	6.3
509.039	6.29
509.24	6.35
509.442	6.37
509.643	6.35
509.845	6.41
510.046	6.46
510.247	6.46
510.448	6.45
510.65	6.51
510.851	6.54
511.052	6.55
511.254	6.53
511.455	6.55
511.656	6.55
511.857	6.62
512.058	6.67
512.26	6.68
512.461	6.67
512.662	6.71
512.863	6.67
513.064	6.69
513.265	6.7
513.466	6.77
513.667	6.75
513.868	6.77
514.069	6.76
514.27	6.79
514.471	6.83
514.672	6.86
514.873	6.82
515.074	6.86
515.275	6.93
515.476	6.88
515.677	6.83
515.878	6.91
516.079	6.89
516.28	6.86
516.481	6.92
516.682	6.95
516.882	6.94
517.083	7.03
517.284	7.05
517.485	6.96
517.686	6.96
517.886	6.9
518.087	6.89
518.288	6.96
518.488	6.98
518.689	7.01
518.89	7.05
519.091	7.08
519.291	7.08
519.492	7.2
519.692	7.23
519.893	7.29
520.094	7.28
520.294	7.26
520.495	7.22
520.695	7.25
520.896	7.22
521.096	7.24
521.297	7.26
521.497	7.29
521.698	7.29
521.898	7.34
522.099	7.32
522.299	7.36
522.499	7.36
522.7	7.38
522.9	7.41
523.101	7.46
523.301	7.45
523.501	7.48
523.702	7.5
523.902	7.48
524.102	7.5
524.302	7.49
524.503	7.5
524.703	7.49
524.903	7.46
525.103	7.44
525.304	7.44
525.504	7.41
525.704	7.4
525.904	7.44
526.104	7.51
526.304	7.56
526.504	7.58
526.705	7.64
526.905	7.69
527.105	7.66
527.305	7.64
527.505	7.67
527.705	7.71
527.905	7.71
528.105	7.72
528.305	7.76
528.505	7.78
528.705	7.83
528.905	7.83
529.105	7.86
529.304	7.84
529.504	7.9
529.704	7.87
529.904	7.87
530.104	7.91
530.304	7.97
530.503	7.91
530.703	7.9
530.903	7.95
531.103	7.92
531.303	7.95
531.502	7.99
531.702	8.07
531.902	8.06
532.101	8.09
532.301	8.12
532.501	8.18
532.7	8.17
532.9	8.19
533.1	8.24
533.299	8.26
533.499	8.29
533.698	8.32
533.898	8.36
534.097	8.4
534.297	8.45
534.496	8.41
534.696	8.44
534.895	8.43
535.095	8.45
535.294	8.46
535.494	8.52
535.693	8.51
535.892	8.58
536.092	8.59
536.291	8.59
536.491	8.68
536.69	8.74
536.889	8.74
537.088	8.74
537.288	8.74
537.487	8.73
537.686	8.73
537.886	8.79
538.085	8.81
538.284	8.87
538.483	8.84
538.682	8.88
538.882	8.89
539.081	8.94
539.28	8.94
539.479	9.01
539.678	9.04
539.877	9.06
540.076	9.07
540.275	9.09
540.474	9.09
540.673	9.07
540.872	9.07
541.071	9.1
541.27	9.19
541.469	9.23
541.668	9.31
541.867	9.38
542.066	9.45
542.265	9.4
542.464	9.44
542.663	9.43
542.862	9.45
543.06	9.46
543.259	9.5
543.458	9.58
543.657	9.63
543.856	9.68
544.054	9.71
544.253	9.81
544.452	9.84
544.651	9.89
544.849	9.98
545.048	10.02
545.247	10.03
545.445	10.06
545.644	10.09
545.843	10.11
546.041	10.17
546.24	10.16
546.438	10.2
546.637	10.29
546.836	10.36
547.034	10.41
547.233	10.55
547.431	10.63
547.63	10.61
547.828	10.6
548.027	10.64
548.225	10.69
548.423	10.71
548.622	10.83
548.82	10.92
549.019	11.02
549.217	11.03
549.415	11.04
549.614	11.02
549.812	11.06
550.01	11.08
550.209	11.17
550.407	11.2
550.605	11.27
550.803	11.37
551.002	11.4
551.2	11.43
551.398	11.6
551.596	11.77
551.794	11.81
551.993	11.91
552.191	11.99
552.389	12.02
552.587	12.08
552.785	12.15
552.983	12.26
553.181	12.37
553.379	12.51
553.577	12.54
553.775	12.57
553.973	12.64
554.171	12.72
554.369	12.77
554.567	12.8
554.765	12.91
554.963	12.92
555.161	13
555.359	13.09
555.557	13.2
555.755	13.27
555.952	13.41
556.15	13.45
556.348	13.54
556.546	13.61
556.744	13.73
556.941	13.71
557.139	13.75
557.337	13.81
557.535	13.94
557.732	13.98
557.93	14.14
558.128	14.34
558.325	14.43
558.523	14.49
558.721	14.66
558.918	14.79
559.116	14.87
559.313	14.96
559.511	15.05
559.708	15.11
559.906	15.16
560.104	15.27
560.301	15.44
560.498	15.63
560.696	15.73
560.893	15.87
561.091	15.93
561.288	15.99
561.486	16.01
561.683	16.07
561.88	16.14
562.078	16.19
562.275	16.29
562.473	16.39
562.67	16.6
562.867	16.74
563.064	16.87
563.262	16.99
563.459	17.14
563.656	17.29
563.853	17.38
564.051	17.47
564.248	17.43
564.445	17.5
564.642	17.48
564.839	17.61
565.036	17.73
565.234	17.93
565.431	18.03
565.628	18.17
565.825	18.2
566.022	18.25
566.219	18.34
566.416	18.36
566.613	18.42
566.81	18.61
567.007	18.71
567.204	18.74
567.401	18.86
567.598	18.92
567.795	18.95
567.991	19.04
568.188	19.13
568.385	19.19
568.582	19.28
568.779	19.32
568.976	19.34
569.172	19.53
569.369	19.59
569.566	19.64
569.763	19.74
569.96	19.87
570.156	19.81
570.353	19.96
570.55	20.09
570.746	20.09
570.943	20.14
571.14	20.28
571.336	20.21
571.533	20.22
571.729	20.33
571.926	20.32
572.123	20.26
572.319	20.43
572.516	20.47
572.712	20.44
572.909	20.54
573.105	20.66
573.302	20.59
573.498	20.66
573.695	20.81
573.891	20.85
574.087	20.88
574.284	20.96
574.48	20.98
574.677	20.95
574.873	21.02
575.069	21.01
575.266	21.06
575.462	21.13
575.658	21.2
575.854	21.22
576.051	21.22
576.247	21.31
576.443	21.34
576.639	21.35
576.835	21.34
577.032	21.32
577.228	21.3
577.424	21.39
577.62	21.41
577.816	21.41
578.012	21.47
578.208	21.46
578.404	21.39
578.6	21.42
578.796	21.43
578.993	21.54
579.189	21.53
579.384	21.52
579.58	21.48
579.776	21.47
579.972	21.44
580.168	21.47
580.364	21.5
580.56	21.59
580.756	21.6
580.952	21.57
581.148	21.52
581.343	21.5
581.539	21.47
581.735	21.53
581.931	21.45
582.127	21.53
582.322	21.54
582.518	21.37
582.714	21.32
582.909	21.41
583.105	21.34
583.301	21.3
583.496	21.39
583.692	21.32
583.888	21.32
584.083	21.3
584.279	21.19
584.474	21.1
584.67	21.11
584.866	21.07
585.061	21.03
585.257	21.11
585.452	21.29
585.648	21.27
585.843	21.28
586.039	21.29
586.234	21.2
586.429	21.04
586.625	21.13
586.82	21.12
587.015	21.15
587.211	21.27
587.406	21.35
587.601	21.22
587.797	21.22
587.992	21.25
588.187	21.26
588.383	21.27
588.578	21.3
588.773	21.31
588.968	21.3
589.163	21.27
589.359	21.18
589.554	21.16
589.749	21.12
589.944	21.14
590.139	21.15
590.334	21.27
590.529	21.32
590.724	21.38
590.919	21.49
591.114	21.54
591.309	21.59
591.504	21.64
591.699	21.73
591.894	21.61
592.089	21.53
592.284	21.55
592.479	21.6
592.674	21.63
592.869	21.8
593.064	21.9
593.259	21.93
593.454	21.99
593.648	22.11
593.843	22.08
594.038	22.21
594.233	22.28
594.428	22.29
594.622	22.3
594.817	22.53
595.012	22.64
595.206	22.67
595.401	22.82
595.596	22.89
595.79	22.85
595.985	22.83
596.18	22.89
596.374	22.97
596.569	23.06
596.763	23.14
596.958	23.34
597.153	23.52
597.347	23.58
597.542	23.62
597.736	23.73
597.931	23.67
598.125	23.67
598.319	23.76
598.514	23.83
598.708	23.87
598.903	23.97
599.097	24.11
599.291	24.14
599.486	24.22
599.68	24.24
599.874	24.32
600.069	24.33
600.263	24.39
600.457	24.44
600.651	24.57
600.846	24.61
601.04	24.62
601.234	24.59
601.428	24.76
601.622	24.81
601.817	24.84
602.011	24.89
602.205	25
602.399	24.88
602.593	24.85
602.787	24.8
602.981	24.75
603.175	24.8
603.369	24.84
603.563	24.81
603.757	24.92
603.951	24.99
604.145	24.9
604.339	24.82
604.533	24.87
604.727	24.82
604.921	24.78
605.115	24.79
605.309	24.84
605.502	24.76
605.696	24.74
605.89	24.67
606.084	24.6
606.278	24.54
606.471	24.53
606.665	24.44
606.859	24.43
607.053	24.31
607.246	24.29
607.44	24.27
607.634	24.16
607.827	24.05
608.021	24.08
608.214	24.05
608.408	23.88
608.602	23.88
608.795	23.91
608.989	23.8
609.182	23.69
609.376	23.67
609.569	23.6
609.763	23.5
609.956	23.42
610.15	23.42
610.343	23.35
610.537	23.35
610.73	23.28
610.923	23.24
611.117	23.07
611.31	22.93
611.504	22.86
611.697	22.79
611.89	22.74
612.083	22.69
612.277	22.69
612.47	22.54
612.663	22.46
612.856	22.38
613.05	22.31
613.243	22.18
613.436	22.11
613.629	22.03
613.822	21.99
614.015	21.92
614.209	21.89
614.402	21.84
614.595	21.79
614.788	21.7
614.981	21.69
615.174	21.65
615.367	21.6
615.56	21.55
615.753	21.54
615.946	21.46
616.139	21.46
616.332	21.43
616.525	21.41
616.718	21.26
616.911	21.19
617.103	21.05
617.296	20.96
617.489	20.82
617.682	20.82
617.875	20.78
618.067	20.72
618.26	20.71
618.453	20.76
618.646	20.6
618.838	20.51
619.031	20.5
619.224	20.47
619.417	20.39
619.609	20.45
619.802	20.4
619.994	20.35
620.187	20.25
620.38	20.25
620.572	20.27
620.765	20.26
620.957	20.19
621.15	20.11
621.342	19.96
621.535	19.87
621.727	19.86
621.92	19.84
622.112	19.91
622.305	19.97
622.497	19.95
622.69	19.91
622.882	19.87
623.074	19.81
623.267	19.82
623.459	19.77
623.651	19.8
623.844	19.78
624.036	19.87
624.228	19.86
624.42	19.87
624.613	19.81
624.805	19.78
624.997	19.63
625.189	19.49
625.381	19.44
625.574	19.45
625.766	19.49
625.958	19.44
626.15	19.47
626.342	19.47
626.534	19.41
626.726	19.37
626.918	19.34
627.11	19.36
627.302	19.35
627.494	19.35
627.686	19.27
627.878	19.29
628.07	19.28
628.262	19.25
628.454	19.15
628.646	19.14
628.838	19.12
629.029	18.98
629.221	18.9
629.413	18.84
629.605	18.79
629.797	18.71
629.989	18.77
630.18	18.81
630.372	18.81
630.564	18.77
630.755	18.76
630.947	18.72
631.139	18.61
631.33	18.55
631.522	18.6
631.714	18.53
631.905	18.44
632.097	18.48
632.289	18.53
632.48	18.51
632.672	18.44
632.863	18.45
633.055	18.36
633.246	18.25
633.438	18.2
633.629	18.25
633.821	18.23
634.012	18.26
634.203	18.22
634.395	18.17
634.586	18.14
634.777	18.03
634.969	17.99
635.16	18.03
635.351	18.06
635.543	18.03
635.734	18.11
635.925	18.05
636.117	18.04
636.308	18.02
636.499	18
636.69	18.04
636.881	18.1
637.073	18.08
637.264	18.01
637.455	17.97
637.646	17.84
637.837	17.78
638.028	17.75
638.219	17.78
638.41	17.75
638.601	17.75
638.792	17.8
638.983	17.8
639.174	17.75
639.365	17.81
639.556	17.78
639.747	17.72
639.938	17.71
640.129	17.73
640.32	17.76
640.511	17.73
640.701	17.66
640.892	17.64
641.083	17.61
641.274	17.49
641.465	17.47
641.655	17.52
641.846	17.5
642.037	17.44
642.228	17.38
642.418	17.42
642.609	17.29
642.8	17.28
642.99	17.26
643.181	17.25
643.372	17.19
643.562	17.23
643.753	17.16
643.943	17.12
644.134	17.14
644.324	17.13
644.515	17.12
644.705	17.14
644.896	17.11
645.086	17.08
645.277	17
645.467	16.93
645.658	16.82
645.848	16.76
646.038	16.73
646.229	16.74
646.419	16.73
646.61	16.77
646.8	16.76
646.99	16.77
647.18	16.72
647.371	16.59
647.561	16.5
647.751	16.5
647.941	16.46
648.132	16.53
648.322	16.63
648.512	16.64
648.702	16.64
648.892	16.5
649.082	16.45
649.272	16.39
649.462	16.42
649.653	16.36
649.843	16.41
650.033	16.33
650.223	16.33
650.413	16.35
650.603	16.37
650.793	16.36
650.983	16.44
651.172	16.45
651.362	16.33
651.552	16.19
651.742	16.17
651.932	16.06
652.122	15.99
652.312	15.95
652.502	15.88
652.691	15.77
652.881	15.66
653.071	15.53
653.261	15.42
653.45	15.4
653.64	15.32
653.83	15.22
654.019	15.07
654.209	15.09
654.399	14.97
654.588	14.88
654.778	14.86
654.968	14.75
655.157	14.62
655.347	14.46
655.536	14.26
655.726	14.01
655.915	13.97
656.105	13.73
656.294	13.57
656.484	13.5
656.673	13.37
656.863	13.22
657.052	13.19
657.241	13.15
657.431	13
657.62	12.99
657.809	12.74
657.999	12.55
658.188	12.33
658.377	12.22
658.567	12.04
658.756	11.91
658.945	11.72
659.134	11.62
659.324	11.39
659.513	11.22
659.702	11.13
659.891	11.01
660.08	10.84
660.269	10.71
660.458	10.52
660.648	10.37
660.837	10.15
661.026	9.97
661.215	9.85
661.404	9.66
661.593	9.43
661.782	9.35
661.971	9.25
662.16	9.1
662.349	9.01
662.538	8.95
662.726	8.82
662.915	8.83
663.104	8.77
663.293	8.66
663.482	8.54
663.671	8.4
663.86	8.18
664.048	8.08
664.237	7.96
664.426	8.01
664.615	7.88
664.803	7.76
664.992	7.59
665.181	7.56
665.369	7.37
665.558	7.42
665.747	7.36
665.935	7.33
666.124	7.24
666.312	7.12
666.501	6.99
666.69	6.88
666.878	6.76
667.067	6.75
667.255	6.72
667.444	6.71
667.632	6.67
667.82	6.62
668.009	6.47
668.197	6.4
668.386	6.41
668.574	6.42
668.762	6.41
668.951	6.44
669.139	6.43
669.327	6.33
669.516	6.36
669.704	6.39
669.892	6.41
670.08	6.39
670.269	6.39
670.457	6.29
670.645	6.21
670.833	6.23
671.021	6.29
671.21	6.24
671.398	6.32
671.586	6.29
671.774	6.32
671.962	6.24
672.15	6.31
672.338	6.28
672.526	6.36
672.714	6.26
672.902	6.31
673.09	6.31
673.278	6.38
673.466	6.45
673.654	6.62
673.842	6.61
674.03	6.67
674.218	6.68
674.405	6.62
674.593	6.61
674.781	6.68
674.969	6.7
675.157	6.67
675.344	6.82
675.532	6.8
675.72	6.87
675.908	6.94
676.095	7
676.283	7.06
676.471	7.16
676.658	7.19
676.846	7.2
677.033	7.33
677.221	7.29
677.409	7.34
677.596	7.36
677.784	7.4
677.971	7.4
678.159	7.47
678.346	7.6
678.534	7.73
678.721	7.83
678.909	7.97
679.096	8.12
679.283	8.19
679.471	8.23
679.658	8.3
679.846	8.39
680.033	8.55
680.22	8.52
680.408	8.66
680.595	8.89
680.782	8.95
680.969	8.96
681.157	9.1
681.344	9.18
681.531	9.21
681.718	9.32
681.905	9.51
682.093	9.61
682.28	9.75
682.467	9.87
682.654	9.99
682.841	10.1
683.028	10.22
683.215	10.37
683.402	10.54
683.589	10.79
683.776	10.85
683.963	11.06
684.15	11.37
684.337	11.55
684.524	11.79
684.711	12.02
684.898	12.3
685.085	12.52
685.271	12.65
685.458	12.96
685.645	13.28
685.832	13.52
686.019	13.75
686.205	14.11
686.392	14.12
686.579	14.35
686.766	14.7
686.952	14.99
687.139	15.41
687.326	15.95
687.512	16.43
687.699	16.98
687.886	17.44
688.072	17.84
688.259	18.3
688.445	18.61
688.632	18.95
688.818	19.36
689.005	19.73
689.191	20.18
689.378	20.92
689.564	21.38
689.751	21.97
689.937	22.69
690.124	23.11
690.31	23.51
690.496	24.1
690.683	24.76
690.869	25.34
691.055	26
691.242	26.59
691.428	27.21
691.614	27.63
691.8	28.19
691.987	28.79
692.173	29.34
692.359	29.93
692.545	30.71
692.731	31.42
692.918	32.22
693.104	33.07
693.29	33.92
693.476	34.38
693.662	35.04
693.848	35.74
694.034	36.28
694.22	36.92
694.406	37.72
694.592	38.33
694.778	38.99
694.964	39.92
695.15	40.58
695.336	41.38
695.522	41.96
695.708	42.55
695.894	43.08
696.08	43.84
696.265	44.28
696.451	45.13
696.637	45.77
696.823	46.29
697.009	46.78
697.194	47.41
697.38	47.7
697.566	48.33
697.751	49
697.937	49.58
698.123	50.13
698.308	51.2
698.494	51.9
698.68	52.61
698.865	53.2
699.051	53.8
699.236	54.18
699.422	54.65
699.607	55.01
699.793	55.69
699.978	56.43
700.164	57.06
700.349	57.52
700.535	58.23
700.72	58.61
700.906	58.86
701.091	59.12
701.276	59.42
701.462	59.97
701.647	60.37
701.832	61.12
702.018	61.7
702.203	62.45
702.388	62.5
702.573	62.86
702.759	62.9
702.944	63.1
703.129	63.24
703.314	63.71
703.499	64.28
703.684	65.05
703.87	65.48
704.055	66.13
704.24	66.18
704.425	66.24
704.61	66.8
704.795	67.13
704.98	67.35
705.165	68.02
705.35	68.83
705.535	69.04
705.72	69.22
705.905	69.55
706.09	69.82
706.275	69.78
706.459	69.69
706.644	70.21
706.829	70.18
707.014	70.59
707.199	71.19
707.384	71.51
707.568	71.75
707.753	72.25
707.938	72.36
708.123	72.32
708.307	72.57
708.492	73.11
708.677	73.22
708.861	73.42
709.046	73.59
709.231	73.75
709.415	73.88
709.6	74.15
709.784	74.75
709.969	75.14
710.153	75.33
710.338	75.65
710.522	75.94
710.707	76.07
710.891	76.28
711.076	76.37
711.26	76.27
711.445	76.16
711.629	75.85
711.813	75.56
711.998	76.08
712.182	76.43
712.366	76.59
712.551	77.14
712.735	77.91
712.919	77.69
713.103	77.69
713.288	78.19
713.472	78.19
713.656	77.98
713.84	78.29
714.024	78.52
714.208	78.59
714.393	78.65
714.577	78.8
714.761	79.06
714.945	79.22
715.129	79.47
715.313	79.3
715.497	79.2
715.681	79.18
715.865	79.11
716.049	78.97
716.233	79.3
716.417	79.51
716.601	79.66
716.785	80.19
716.968	80.25
717.152	80.78
717.336	81.2
717.52	81.44
717.704	81.24
717.888	81.53
718.071	80.86
718.255	80.54
718.439	80.81
718.622	80.69
718.806	80.98
718.99	81.57
719.174	82.15
719.357	81.87
719.541	82.18
719.724	82.18
719.908	81.95
720.092	81.71
720.275	81.88
720.459	81.57
720.642	81.81
720.826	82.31
721.009	82.2
721.193	82.24
721.376	82.79
721.559	82.54
721.743	82.69
721.926	83.08
722.11	83
722.293	83.04
722.476	83.04
722.66	82.71
722.843	82.54
723.026	82.47
723.21	81.82
723.393	82.24
723.576	82.66
723.759	82.73
723.942	83.2
724.126	83.97
724.309	83.73
724.492	83.57
724.675	83.75
724.858	83.88
725.041	83.27
725.224	83.18
725.407	83.47
725.59	83.53
725.774	83.22
725.957	83.71
726.14	83.99
726.322	84.06
726.505	84.51
726.688	84.93
726.871	85.06
727.054	84.84
727.237	84.44
727.42	84.25
727.603	84.12
727.786	83.87
727.968	84.37
728.151	84.57
728.334	84.61
728.517	84.67
728.699	85.2
728.882	85.12
729.065	85.21
729.248	85.48
729.43	85.43
729.613	85.32
729.796	85.53
729.978	85.62
730.161	85.25
730.343	85.2
730.526	85.9
730.708	85
730.891	84.8
731.073	85.05
731.256	85.66
731.438	85.43
731.621	86.42
731.803	86.87
731.986	86.79
732.168	86.98
732.35	86.89
732.533	86.45
732.715	86.55
732.898	87.27
733.08	86.84
733.262	86.39
733.444	87.25
733.627	87.18
733.809	87
733.991	86.56
734.173	86.69
734.355	85.91
734.538	86.14
734.72	85.83
734.902	85.83
735.084	86.38
735.266	86.83
735.448	87.25
735.63	87.15
735.812	88.24
735.994	87.79
736.176	88.18
736.358	88.28
736.54	88.64
736.722	88.47
736.904	88.62
737.086	87.78
737.268	87.29
737.45	86.94
737.632	87.25
737.814	86.56
737.995	86.68
738.177	86.58
738.359	86.41
738.541	85.74
738.723	86.42
738.904	86.86
739.086	87.35
739.268	88.66
739.449	89.73
739.631	89.8
739.813	89.58
739.994	88.76
740.176	87.07
740.358	86.64
740.539	86.56
740.721	86.66
740.902	87.63
741.084	88.9
741.265	89.15
741.447	89.77
741.628	90.25
741.81	89.93
741.991	89.57
742.172	88.68
742.354	88.02
742.535	88.71
742.717	88.95
742.898	88.95
743.079	89.01
743.261	89.45
743.442	87.92
743.623	87.8
743.804	87.62
743.986	87.52
744.167	87.34
744.348	88.32
744.529	88.63
744.71	88.19
744.891	89.06
745.073	89.47
745.254	88.58
745.435	87.66
745.616	88.57
745.797	88.48
745.978	88.2
746.159	89.06
746.34	89.42
746.521	88.59
746.702	87.97
746.883	88.42
747.064	87.47
747.245	88.16
747.426	88.7
747.606	89.13
747.787	89.55
747.968	90.3
748.149	89.18
748.33	89.78
748.51	89.84
748.691	89.25
748.872	89.86
749.053	90.49
749.233	89.8
749.414	88.64
749.595	88.79
749.775	87.77
749.956	86.81
750.137	87.25
750.317	88.62
750.498	88.48
750.678	89.08
750.859	89.55
751.04	89.05
751.22	88.65
751.4	88.79
751.581	88.62
751.761	89.71
751.942	91.07
752.122	90.89
752.303	90.67
752.483	90.59
752.663	90.27
752.844	89.46
753.024	89.66
753.204	89.75
753.385	89.96
753.565	88.94
753.745	89.55
753.925	88.94
754.106	89.34
754.286	89.27
754.466	89.01
754.646	88.18
754.826	88.23
755.006	86.94
755.187	86.48
755.367	86.83
755.547	86.4
755.727	86.71
755.907	87.38
756.087	87
756.267	87.41
756.447	88.1
756.627	87.63
756.807	86.26
756.987	87.31
757.167	86.15
757.346	87.47
757.526	87.52
757.706	89.57
757.886	89.75
758.066	90.14
758.246	87.88
758.425	87.54
758.605	86.65
758.785	85.43
758.965	85.71
759.144	86.46
759.324	87.32
759.504	88.08
759.683	88.82
759.863	89.18
760.043	88.41
760.222	86.84
760.402	85.41
760.581	84.13
760.761	83.64
760.94	83.32
761.12	85.02
761.299	85.8
761.479	87.16
761.658	87.72
761.838	88.11
762.017	87.31
762.197	85.63
762.376	85.41
762.555	84.56
762.735	84.44
762.914	84.9
763.093	86.81
763.273	86.16
763.452	86.31
763.631	85.35
763.81	84.75
763.99	84.62
764.169	84.6
764.348	84.27
764.527	85.55
764.706	84.44
764.885	84.16
765.064	83.2
765.243	84.29
765.423	83.91
765.602	85.82
765.781	85.47
765.96	86.37
766.139	85.6
766.318	85.93
766.497	84.85
766.676	86.06
766.854	87.21
767.033	87.72
767.212	87.53
767.391	87.38
767.57	85.8
767.749	85.51
767.928	83.97
768.106	83.78
768.285	83.33
768.464	83.39
768.643	82.56
768.821	83.61
769	85.03
769.179	85.03
769.357	85.14
769.536	84.45
769.715	85.65
769.893	85.05
770.072	85.77
770.25	85.11
770.429	86.48
770.607	84.57
770.786	82.2
770.964	82.06
771.143	82.48
771.321	81.21
771.5	82.68
771.678	84.41
771.857	85.23
772.035	83.83
772.213	85.51
772.392	83.82
772.57	84.65
772.748	85.13
772.927	86.43
773.105	86.01
773.283	87.24
773.461	87.27
773.64	85.68
773.818	87.22
773.996	86.17
774.174	84.71
774.352	81.94
774.531	81.41
774.709	79.31
774.887	79.02
775.065	81.37
775.243	81.5
775.421	81.63
775.599	83.27
775.777	84.35
775.955	82.59
776.133	84.42
776.311	85.55
776.489	83.87
776.667	81.99
776.844	83.23
777.022	82.8
777.2	82.81
777.378	84.53
777.556	86.59
777.734	85.1
777.911	83.98
778.089	83.89
778.267	82.34
778.445	82.3
778.622	82.79
778.8	85.71
778.978	84.58
779.155	84.71
779.333	83.55
779.511	81.99
779.688	81.17
779.866	82.42
780.043	81.64
780.221	81.31
780.398	83.16
780.576	82.37
780.753	81.34
780.931	82.79
781.108	83.48
781.286	81.78
781.463	79.24
781.64	77.57
781.818	76.94
781.995	74.79
782.172	75.85
782.35	77.05
782.527	78.24
782.704	76.86
782.882	78.63
783.059	78.12
783.236	79.05
783.413	79.46
783.59	81.55
783.768	81.26
783.945	77.58
784.122	76.6
784.299	77.78
784.476	76.74
784.653	77.92
784.83	82.01
785.007	82.91
785.184	81.93
785.361	82.38
785.538	81.72
785.715	80.19
785.892	79.93
786.069	79.45
786.246	79.57
786.423	76.34
786.6	81.55
786.776	80.99
786.953	84.08
787.13	84.16
787.307	83.51
787.484	78.39
787.66	77.79
787.837	75.62
788.014	76.47
788.191	79.26
788.367	79.76
788.544	81.19
788.721	79.59
788.897	75.94
789.074	74.7
789.25	74.23
789.427	74.53
789.603	76.97
789.78	79.45
789.956	83.17
790.133	84.87
790.309	84.76
790.486	82.82
790.662	82.63
790.839	78.77
791.015	76.16
791.192	74.32
791.368	72.71
791.544	73.86
791.721	75.89
791.897	76.87
792.073	76.59
792.249	79.31
792.426	75.75
792.602	75.62
792.778	73.84
792.954	76.87
793.13	72.4
793.307	74.18
793.483	71.39
793.659	75.58
793.835	75.54
794.011	79.92
794.187	83.38
794.363	83.55
794.539	83.67
794.715	81.18
794.891	77.52
795.067	73.56
795.243	76.28
795.419	73.59
795.595	74.8
795.771	76.97
795.947	78.41
796.122	75.96
796.298	77.58
796.474	76.8
796.65	79.31
796.826	82.11
797.001	86.04
797.177	83.29
797.353	80.13
797.529	75.42
797.704	74.36
797.88	76.12
798.056	79.48
798.231	82.12
798.407	86.31
798.582	84.48
798.758	82.93
798.934	81.59
799.109	82.6
799.285	82.88
799.46	83.23
799.636	82.31
799.811	80.22
799.986	77.84
800.162	70.97
800.337	72.61
800.513	68.04
800.688	68.39
800.863	68.34
801.039	73.64
801.214	69.86
801.389	72.59
801.565	73.61
801.74	74.02
801.915	74.19
802.09	74.63
802.265	73.12
802.441	71.07
802.616	72.26
802.791	72.54
802.966	73.75
803.141	75.75
803.316	76.99
803.491	77.95
803.666	73.72
803.841	67.68
804.016	64.25
804.191	63.54
804.366	61.32
804.541	64.14
804.716	72.09
804.891	77.13
805.066	76.75
805.241	72.24
805.416	70.02
805.591	64.26
805.765	61.07
805.94	61.13
806.115	66.46
806.29	72.37
806.464	78.81
806.639	74.25
806.814	69.29
806.989	68.42
807.163	64.56
807.338	58.59
807.512	62.77
807.687	67.27
807.862	73.91
808.036	74.2
808.211	78.3
808.385	77.44
808.56	81.07
808.734	67.63
808.909	66.17
809.083	66.1
809.258	64.83
809.432	61.66
809.606	66.72
809.781	64.13
809.955	63.01
810.13	67.99
810.304	67.35
810.478	65.06
810.652	64.32
810.827	62.35
811.001	54.78
811.175	52.02
811.349	54.33
811.524	58
811.698	59.5
811.872	63.62
812.046	66.91
812.22	75.09
812.394	81.85
812.568	82.97
812.742	78.3
812.916	76.2
813.09	69.66
813.264	67.43
813.438	65.36
813.612	70.95
813.786	77.16
813.96	75.38
814.134	74.89
814.308	74.86
814.482	70.96
814.656	67.09
814.83	68.72
815.003	65.06
815.177	69.95
815.351	65.83
815.525	65.02
815.698	64.29
815.872	72.79
816.046	69.98
816.219	73.79
816.393	74.76
816.567	78.05
816.74	71.12
816.914	71.16
817.088	77.85
817.261	73.52
817.435	67.17
817.608	69.69
817.782	63.69
817.955	64.68
818.129	74.83
818.302	84.86
818.475	79.17
818.649	85.65
818.822	78.41
818.996	73.84
819.169	73.09
819.342	78.61
819.516	81.63
819.689	87.18
819.862	79.74
820.035	79.26
820.209	71.96
820.382	69.53
820.555	65.13
820.728	68.5
820.901	69.8
821.075	72.36
821.248	64.95
821.421	66.29
821.594	60.73
821.767	61.91
821.94	64.59
822.113	72.9
822.286	79.88
822.459	85.06
822.632	67.29
822.805	48.63
822.978	43.58
823.151	36
823.324	37.06
823.496	43.23
823.669	53.89
823.842	55.77
824.015	62.94
824.188	63.06
824.361	72.28
824.533	65.06
824.706	55.43
824.879	44.71
825.051	40.16
825.224	32.05
825.397	38.49
825.569	45.37
825.742	50.86
825.915	62.5
826.087	63.63
826.26	64.02
826.432	65.71
826.605	63.01
826.777	55.85
826.95	62.51
827.122	58.7
827.295	50.48
827.467	52.62
827.64	51.46
827.812	50
827.984	56.87
828.157	65.65
828.329	62.66
828.501	62.31
828.674	59.29
828.846	49.64
829.018	56.7
829.19	49.8
829.363	49.7
829.535	45.35
829.707	53.72
829.879	46.07
830.051	55.28
830.223	49.93
830.395	64.34
830.568	60.16
830.74	53.59
830.912	55.11
831.084	60.98
831.256	50.82
831.428	46.56
831.6	49.43
831.772	62.74
831.943	61.44
832.115	67.77
832.287	69.63
832.459	70.94
832.631	55.46
832.803	61.71
832.975	67.5
833.146	66.78
833.318	57.61
833.49	71.16
833.662	74.65
833.833	63.81
834.005	68.85
834.177	78.46
834.348	73.93
834.52	62.3
834.692	61.67
834.863	56.98
835.035	53.82
835.206	46.41
835.378	47.85
835.549	54.75
835.721	48.75
835.892	39.09
836.064	43.96
836.235	52.38
836.407	49.94
836.578	60.06
836.749	78.95
836.921	56.83
837.092	42.7
837.264	44.19
837.435	37.85
837.606	44.72
837.777	69.28
837.949	77.94
838.12	63.34
838.291	67.14
838.462	51.12
838.633	47.84
838.805	47.54
838.976	57.32
839.147	55.6
839.318	51.97
839.489	41.35
839.66	39.48
839.831	36.1
840.002	38.11
840.173	41.87
840.344	45.01
840.515	42.32
840.686	23.2
840.857	30.42
841.028	42.33
841.199	44.65
841.369	55.03
841.54	72.08
841.711	67.29
841.882	61.03
842.053	63.91
842.223	65.25
842.394	56.69
842.565	53.56
842.736	57.09
842.906	59.17
843.077	53.75
843.248	62.35
843.418	71.98
843.589	66.35
843.759	50.83
843.93	43.98
844.101	48.58
844.271	37.47
844.442	26.35
844.612	41.35
844.783	44.22
844.953	39.08
845.123	43.72
845.294	68.8
845.464	66.82
845.635	64.59
845.805	61.03
845.975	62.14
846.146	34.2
846.316	41.81
846.486	42.28
846.656	33.82
846.827	26.41
846.997	28.25
847.167	30.42
847.337	31.58
847.507	31.73
847.677	28.22
847.848	37.91
848.018	42
848.188	46.65
848.358	49.7
848.528	55.96
848.698	61.84
848.868	53.54
849.038	36.32
849.208	30.49
849.378	39.12
849.548	20.38
849.718	27.53
849.887	41.82
850.057	54.76
850.227	44.3
850.397	44.73
850.567	48.53
850.737	37.17
850.906	33.74
851.076	45.85
851.246	57.31
851.415	47.58
851.585	55.38
851.755	52.35
851.924	47.07
852.094	41.72
852.264	42.12
852.433	46.16
852.603	45.31
852.772	48.25
852.942	59.68
853.111	51.72
853.281	58.95
853.45	63.84
853.62	67.36
853.789	49.26
853.959	71.48
854.128	68.94
854.297	61.27
854.467	50.01
854.636	44.98
854.805	49.62
854.975	27.96
855.144	14.39
855.313	11.27
855.482	29.81
855.652	-6.97
855.821	4.58
855.99	16.32
856.159	29.73
856.328	30.33
856.497	27.55
856.667	40.75
856.836	28.72
857.005	10.82
857.174	10.37
857.343	15.82
857.512	-21.09
857.681	-15.99
857.85	-4.05
858.019	-41.98
858.188	-33.67
858.356	-10.49
858.525	14.49
858.694	2.01
858.863	13.98
859.032	35.85
859.201	21.18
859.369	41.14
859.538	70.92
859.707	83.76
859.876	64.45
860.044	71.56
860.213	50.52
860.382	13.11
860.55	3.31
860.719	-0.65
860.888	-14.09
861.056	-13.2
861.225	-13.74
861.393	-15.47
861.562	-13.2
861.73	28.06
861.899	28.45
862.067	44.63
862.236	49.67
862.404	29.8
862.572	22.68
862.741	30.94
862.909	25.07
863.078	23.2
863.246	36.49
863.414	39.97
863.582	30.83
863.751	25.03
863.919	28.25
864.087	30.27
864.255	25.14
864.424	29.49
864.592	41.28
864.76	21.88
864.928	38.14
865.096	41.98
865.264	81.95
865.432	74.4
865.6	45.47
865.768	36.99
865.936	35.42
866.104	20.72
866.272	20.36
866.44	13.84
866.608	22.33
866.776	30.54
866.944	1.18
867.112	-23.86
867.28	-49.49
867.448	-78.6
867.615	-32.21
867.783	11.06
867.951	18.13
868.119	35.97
868.286	33.05
868.454	23.48
868.622	2.98
868.789	-4.3
868.957	-1.98
869.125	1.31
869.292	-16.7
869.46	-8.28
869.627	15.18
869.795	-1.84
869.963	-21.44
870.13	-6.89
870.298	-8.45
870.465	-9.74
870.632	45.37
870.8	51.24
870.967	64.54
871.135	57.15
871.302	59.49
871.469	9.28
871.637	37.07
871.804	-30.19
871.971	24.51
872.139	54.27
872.306	73.56
872.473	52.53
872.64	52.22
872.807	54.67
872.975	57.67
873.142	43.83
873.309	57.68
873.476	65.63
873.643	58.9
873.81	29.47
873.977	52.45
874.144	47.52
874.311	38.13
874.478	32.42
874.645	20.64
874.812	1.85
874.979	21.62
875.146	14.96
875.313	39.18
875.48	52.88
875.647	71.28
875.813	54.01
875.98	43.7
876.147	34.09
876.314	20.7
876.481	11.38
876.647	6.54
876.814	20.62
876.981	24.96
877.147	25.91
877.314	7.86
877.481	-1.79
877.647	-20.34
877.814	-36.77
877.98	-9.47
878.147	21.86
878.314	29.81
878.48	38.7
878.647	31.98
878.813	28.19
878.979	4.62
879.146	-39.28
879.312	-47.49
879.479	-59.79
879.645	-21.36
879.811	1.34
879.978	5.08
880.144	-2.7
880.31	5.55
880.477	-23.81
880.643	-13.46
880.809	8.73
880.975	-1.01
881.142	14.4
881.308	45.94
881.474	46.87
881.64	60.83
881.806	68.79
881.972	78.42
882.138	43.72
882.304	49.18
882.47	-47.62
882.636	-252.4
882.802	-517.79
882.968	-596.71
883.134	-34.79
883.3	88.33
883.466	58.69
883.632	155.42
883.798	102.09
883.964	61.46
884.129	39.68
884.295	44.03
884.461	-24.5
884.627	7.67
884.793	19.53
884.958	23.61
885.124	19.97
885.29	67.26
885.455	37.28
885.621	-33.58
885.787	-19.25
885.952	-45.42
886.118	-86.87
886.283	-61.99
886.449	9.59
886.614	25.79
886.78	45
886.945	66.13
887.111	53.65
887.276	38.05
887.442	46.64
887.607	44.43
887.773	39.81
887.938	35.97
888.103	38.62
888.269	16.91
888.434	8.54
888.599	39.57
888.764	57.9
888.93	63.12
889.095	69.97
889.26	69.89
889.425	33.99
889.59	21.62
889.756	10.13
889.921	5.35
890.086	9.06
890.251	14.78
890.416	-6.01
890.581	-10.63
890.746	10.2
890.911	51.34
891.076	44.42
891.241	37.72
891.406	48.88
891.571	17.96
891.736	9.97
891.901	-2.93
892.065	-11.58
892.23	14.59
892.395	34.35
892.56	41.82
892.725	67.24
892.889	89.15
893.054	80.37
893.219	78.53
893.384	49.79
893.548	40.64
893.713	29.56
893.878	11.16
