Data from Ofra_PS_Phys_8HS24_Reflection_2.txt Node
Date: Tue Jul 20 20:39:07 EDT 2021
User: USUARIO
Spectrometer: FLMT01687
Trigger mode: 0
Integration Time (sec): 1.042999E0
Scans to average: 2
Electric dark correction enabled: true
Nonlinearity correction enabled: false
Boxcar width: 2
XAxis mode: Wavelengths
Number of Pixels in Spectrum: 3648
>>>>>Begin Spectral Data<<<<<
179.494	-100
179.716	-84
179.937	-49.23
180.158	28.75
180.38	73.85
180.601	108.9
180.823	129.64
181.044	119.07
181.265	-1.12
181.486	180.75
181.708	240.61
181.929	289.43
182.15	446.53
182.372	40.06
182.593	36.69
182.814	-10.72
183.035	-4.74
183.257	-48.83
183.478	-316.59
183.699	-191.5
183.92	-59.38
184.141	-151.09
184.363	-39.39
184.584	8.73
184.805	11.62
185.026	20.4
185.247	-4.88
185.468	0.95
185.689	18.01
185.91	-5.21
186.132	-55.68
186.353	-23.31
186.574	-14.26
186.795	-18.46
187.016	38.5
187.237	49.43
187.458	56.46
187.679	52.3
187.9	60.19
188.121	42.17
188.342	48.76
188.563	51.16
188.784	56.91
189.005	33.55
189.226	46.79
189.447	53.91
189.667	56.65
189.888	48.42
190.109	96.34
190.33	102.27
190.551	82.18
190.772	142.29
190.993	90.26
191.214	72.47
191.434	87.05
191.655	79.76
191.876	52.98
192.097	64.76
192.318	57.72
192.538	52.42
192.759	49.82
192.98	37.13
193.201	19.66
193.421	30.19
193.642	39.92
193.863	36.08
194.083	48.08
194.304	56.91
194.525	49.01
194.745	43.11
194.966	35.89
195.187	33.71
195.407	12.73
195.628	-28.99
195.848	-38.57
196.069	8.77
196.29	11.9
196.51	14.72
196.731	41.87
196.951	32.11
197.172	21.76
197.392	16.14
197.613	36.42
197.833	39.64
198.054	58.18
198.274	58.93
198.495	75.9
198.715	56.77
198.936	38.16
199.156	26.3
199.377	28.64
199.597	18.78
199.817	24.73
200.038	19.22
200.258	35.26
200.479	37.62
200.699	57.18
200.919	60.42
201.14	75.64
201.36	71.18
201.58	109.2
201.801	55.74
202.021	38.47
202.241	40.02
202.461	27.56
202.682	29.01
202.902	10.17
203.122	10.38
203.342	-13.83
203.563	-22.21
203.783	-9.84
204.003	-5.42
204.223	29.7
204.443	32.49
204.663	55.27
204.884	38.92
205.104	49.13
205.324	43.3
205.544	52.6
205.764	37.66
205.984	52.45
206.204	59.26
206.424	61.19
206.644	58.14
206.864	54.12
207.084	43.82
207.304	27.07
207.525	4.32
207.745	18.2
207.964	6.36
208.184	20.9
208.404	12.16
208.624	28.82
208.844	31.4
209.064	30.11
209.284	13.61
209.504	10.08
209.724	1.08
209.944	-46.39
210.164	-9.63
210.384	11.52
210.604	24.35
210.823	14.38
211.043	31.13
211.263	28.44
211.483	9.58
211.703	0.82
211.922	21.74
212.142	10.64
212.362	29.86
212.582	23.78
212.801	27.81
213.021	22.26
213.241	38.89
213.461	42.5
213.68	56.52
213.9	35.68
214.12	29.92
214.339	-23.86
214.559	-8.9
214.779	4.9
214.998	22.37
215.218	31.04
215.438	32.09
215.657	34.5
215.877	43.25
216.096	36.24
216.316	13.6
216.535	26.75
216.755	24.76
216.974	7.83
217.194	3.55
217.413	23.18
217.633	25.91
217.852	22.76
218.072	33.63
218.291	23.03
218.511	36.46
218.73	27.62
218.95	37.51
219.169	36.26
219.389	45.04
219.608	37.67
219.827	40.91
220.047	23.96
220.266	6.43
220.485	11.86
220.705	11.56
220.924	0.19
221.143	4.19
221.363	7.01
221.582	6.52
221.801	11.73
222.021	19.55
222.24	13.97
222.459	21.65
222.678	17.9
222.897	8.98
223.117	10.91
223.336	28.98
223.555	34.91
223.774	42.88
223.993	56.49
224.213	51.5
224.432	45.58
224.651	46.72
224.87	37.91
225.089	23.55
225.308	18.96
225.527	30.59
225.746	17.71
225.965	37.06
226.184	40.87
226.404	45.73
226.623	22.36
226.842	15.12
227.061	14.33
227.28	-15.91
227.499	-6.76
227.718	-1.45
227.936	21.35
228.155	35.44
228.374	36.11
228.593	41.54
228.812	30.9
229.031	24.45
229.25	0.91
229.469	-5.67
229.688	-25.83
229.907	-13.42
230.125	-17.16
230.344	5.61
230.563	19.53
230.782	16.31
231.001	32.36
231.22	38.23
231.438	23.26
231.657	5
231.876	47.66
232.095	24.76
232.313	7.11
232.532	9.41
232.751	30.22
232.969	12.32
233.188	46.78
233.407	57.15
233.625	48.46
233.844	47.44
234.063	32.74
234.281	14.12
234.5	-1.35
234.719	-4.47
234.937	0.15
235.156	15.88
235.374	41.56
235.593	46.65
235.811	39.95
236.03	31.63
236.249	32.32
236.467	11.32
236.686	11.95
236.904	16.07
237.123	25.78
237.341	18.37
237.559	25.38
237.778	16.75
237.996	-3.88
238.215	-18.84
238.433	-0.05
238.652	0.36
238.87	1.39
239.088	26.55
239.307	17.1
239.525	12.92
239.743	12.24
239.962	30.24
240.18	16.22
240.398	40.81
240.617	39.77
240.835	22.57
241.053	19.31
241.271	18.42
241.49	1.7
241.708	9.79
241.926	13.31
242.144	19.59
242.363	23.98
242.581	37.06
242.799	34.94
243.017	57.81
243.235	59.26
243.453	51.79
243.672	55.3
243.89	46.43
244.108	32.79
244.326	16.99
244.544	30.8
244.762	36.57
244.98	42.63
245.198	37.3
245.416	36.89
245.634	32.38
245.852	25.2
246.07	20.75
246.288	11.49
246.506	7.64
246.724	-7.4
246.942	-6.93
247.16	-41.28
247.378	-20.61
247.596	2.03
247.814	5.92
248.032	10.48
248.25	30.27
248.468	14.85
248.685	3.5
248.903	0.43
249.121	0.59
249.339	2.58
249.557	24.79
249.775	42.26
249.992	39.66
250.21	47.27
250.428	33.9
250.646	29
250.863	3.04
251.081	-11.43
251.299	-4.62
251.517	7.39
251.734	-3.21
251.952	-25.36
252.17	-13.16
252.387	12.36
252.605	13.82
252.823	42.65
253.04	48.27
253.258	58.23
253.475	41.24
253.693	53.4
253.911	43.1
254.128	18.98
254.346	22.39
254.563	25.87
254.781	-8.09
254.998	23.42
255.216	37.75
255.433	1.8
255.651	23.01
255.868	72.66
256.086	40.66
256.303	31.32
256.521	52.22
256.738	29.22
256.956	7.79
257.173	-2.47
257.39	5.94
257.608	-1.34
257.825	13.05
258.043	26.27
258.26	34.35
258.477	50.95
258.695	54.21
258.912	59.11
259.129	58.52
259.346	65.6
259.564	41.41
259.781	46.72
259.998	36.88
260.216	35.94
260.433	25.57
260.65	39.98
260.867	39.7
261.084	26.19
261.302	16.8
261.519	33.78
261.736	24.1
261.953	14.7
262.17	10.44
262.387	23.31
262.604	20.18
262.822	28.01
263.039	32.52
263.256	40.42
263.473	37.18
263.69	26.8
263.907	31.86
264.124	21.79
264.341	30.91
264.558	17.23
264.775	17.42
264.992	-6.85
265.209	16.48
265.426	-10.79
265.643	-13.15
265.86	2.79
266.077	6.77
266.294	6.19
266.51	14.79
266.727	33.44
266.944	39.06
267.161	32.69
267.378	22.01
267.595	26.18
267.812	-13.31
268.028	-10.27
268.245	5.42
268.462	14.92
268.679	18.64
268.896	36.51
269.112	21.69
269.329	13.2
269.546	9.2
269.763	6.4
269.979	-2.29
270.196	-2.71
270.413	8.65
270.629	8.04
270.846	9.05
271.063	14.54
271.279	14.36
271.496	15.22
271.712	10.44
271.929	3.95
272.146	-9.84
272.362	-7.61
272.579	-1.22
272.795	14.02
273.012	-0.36
273.228	11.45
273.445	6.67
273.661	20.49
273.878	16.91
274.094	48.81
274.311	37.83
274.527	42.41
274.744	26.97
274.96	25.42
275.177	13.12
275.393	-8.99
275.609	-28.02
275.826	-4.77
276.042	-25.18
276.259	-0.79
276.475	34.25
276.691	34.38
276.908	11.62
277.124	35.25
277.34	41.56
277.557	41.52
277.773	36.76
277.989	29.11
278.205	32.51
278.422	11.71
278.638	21.36
278.854	31.1
279.07	36.59
279.286	32.26
279.503	28.29
279.719	7.22
279.935	15.42
280.151	17
280.367	12.3
280.583	24.46
280.799	28.67
281.016	22.13
281.232	23.77
281.448	28.48
281.664	18.71
281.88	13.33
282.096	11.71
282.312	17.48
282.528	18.77
282.744	34.99
282.96	55.4
283.176	48.63
283.392	21.48
283.608	25.96
283.824	21.18
284.04	11.61
284.256	23.63
284.471	46.14
284.687	36.94
284.903	37.12
285.119	26.71
285.335	-0.99
285.551	-5.25
285.767	-3.47
285.982	-5.61
286.198	3.46
286.414	26.37
286.63	24.2
286.846	31.55
287.061	10.83
287.277	14.46
287.493	6.97
287.709	-2.86
287.924	-4.12
288.14	8.94
288.356	6.32
288.571	-5.62
288.787	9.33
289.003	7.37
289.218	8.47
289.434	10.05
289.65	29.13
289.865	24.99
290.081	40.95
290.296	33.64
290.512	37.19
290.727	32.1
290.943	22.82
291.159	8.33
291.374	21.01
291.59	24.47
291.805	20.64
292.021	52.37
292.236	46.06
292.451	53.85
292.667	57.12
292.882	47.46
293.098	39.12
293.313	53.43
293.529	40.82
293.744	35.44
293.959	37.36
294.175	39.94
294.39	13.19
294.605	12.56
294.821	17.27
295.036	14.36
295.251	3.27
295.467	15.56
295.682	11.28
295.897	13.07
296.112	20.44
296.328	16.74
296.543	17.55
296.758	16.78
296.973	10.77
297.188	14.38
297.404	25.11
297.619	23.57
297.834	21.15
298.049	27.63
298.264	14.02
298.479	10.04
298.694	8.1
298.909	33.11
299.125	35.65
299.34	39.58
299.555	32.1
299.77	43.86
299.985	42.11
300.2	22.7
300.415	23.01
300.63	29.11
300.845	-3.34
301.06	1.3
301.275	17.01
301.49	21.03
301.704	17.76
301.919	33.74
302.134	8.13
302.349	0.8
302.564	-2.4
302.779	-9.02
302.994	-16.56
303.209	-13.65
303.423	-6.33
303.638	7.1
303.853	11.5
304.068	19.57
304.283	44.07
304.497	36
304.712	35.88
304.927	40.44
305.142	40.67
305.356	16.78
305.571	33.33
305.786	13.86
306	14.03
306.215	4.33
306.43	6.66
306.644	9.68
306.859	27.75
307.074	36.58
307.288	41.83
307.503	47.46
307.717	30.37
307.932	20.6
308.147	13.38
308.361	22.63
308.576	29.81
308.79	31.39
309.005	35.19
309.219	23.86
309.434	-8.16
309.648	-14.79
309.863	-17.19
310.077	0.83
310.292	-2.93
310.506	12.47
310.72	5.01
310.935	27.6
311.149	17.35
311.364	19.25
311.578	34.84
311.792	39.14
312.007	13.63
312.221	35.01
312.435	22.65
312.649	14.49
312.864	31.55
313.078	33.26
313.292	25.92
313.507	36.65
313.721	37.58
313.935	26.68
314.149	27.75
314.363	24.67
314.578	12.12
314.792	11.48
315.006	15.11
315.22	16.58
315.434	4.98
315.648	21.21
315.862	13.55
316.077	32.52
316.291	29.7
316.505	21.55
316.719	21.31
316.933	15.68
317.147	-8.68
317.361	-13.63
317.575	-6.19
317.789	-45.28
318.003	-39.94
318.217	-12.94
318.431	3.79
318.645	23
318.859	35.58
319.073	43.45
319.287	27.36
319.5	17.19
319.714	8.13
319.928	23.22
320.142	22.66
320.356	23.35
320.57	28.67
320.784	16.1
320.997	18.96
321.211	17.09
321.425	25.99
321.639	34.98
321.853	45.03
322.066	42.09
322.28	45.83
322.494	49.23
322.707	45.94
322.921	40.7
323.135	27.88
323.349	16.92
323.562	0.83
323.776	-5.04
323.989	5.37
324.203	10.5
324.417	19.56
324.63	34.8
324.844	42.42
325.057	46.42
325.271	62.47
325.485	50.5
325.698	32.22
325.912	19.44
326.125	27.8
326.339	13.02
326.552	14.71
326.766	26.81
326.979	41.86
327.193	51.68
327.406	48.13
327.619	43.57
327.833	20.05
328.046	12.87
328.26	1.04
328.473	16.81
328.686	15.58
328.9	32.65
329.113	24.69
329.326	38.05
329.54	20.05
329.753	30.97
329.966	34.16
330.179	30.72
330.393	15.71
330.606	21.27
330.819	6.18
331.032	15.17
331.246	37.98
331.459	45.13
331.672	33.62
331.885	49.25
332.098	48.29
332.311	24.99
332.525	40.31
332.738	56.49
332.951	48.01
333.164	38.49
333.377	57.57
333.59	32.96
333.803	24.12
334.016	26.22
334.229	20.98
334.442	5.84
334.655	13.4
334.868	4.18
335.081	8.26
335.294	16.61
335.507	18.09
335.72	21.3
335.933	27.01
336.146	30.26
336.359	19.85
336.572	24.55
336.785	49.64
336.997	45.86
337.21	38.61
337.423	57.87
337.636	45.29
337.849	22.82
338.062	36.82
338.274	38.03
338.487	25.5
338.7	34.14
338.913	36.27
339.125	22.7
339.338	5.6
339.551	17.3
339.763	3.97
339.976	-8.5
340.189	-26.99
340.402	-3.31
340.614	-13.77
340.827	-13.13
341.039	-9.06
341.252	12.2
341.465	22.7
341.677	14.35
341.89	17.2
342.102	16.92
342.315	22.89
342.527	26.2
342.74	37.58
342.952	41.94
343.165	32.58
343.377	24.63
343.59	18.21
343.802	15.98
344.015	14.65
344.227	15.09
344.44	10.11
344.652	5.34
344.864	9.02
345.077	-13.35
345.289	4.71
345.502	12.71
345.714	-9.29
345.926	-46.12
346.139	-19.36
346.351	-28.71
346.563	-6.8
346.775	-6.54
346.988	9.21
347.2	13.61
347.412	28.57
347.624	20.77
347.837	35.44
348.049	41.06
348.261	43.12
348.473	16.28
348.685	3.82
348.897	-0.05
349.11	4.04
349.322	-1.89
349.534	17.62
349.746	15.11
349.958	14.8
350.17	11.75
350.382	25.55
350.594	22.15
350.806	25.53
351.018	41.56
351.23	39.67
351.442	41.38
351.654	32.98
351.866	35.34
352.078	32.31
352.29	35.23
352.502	32.61
352.714	29.11
352.926	33.93
353.138	22.09
353.35	15.32
353.561	2.94
353.773	7.01
353.985	6.03
354.197	26.12
354.409	28.98
354.621	34.98
354.832	36.67
355.044	33.53
355.256	31.7
355.468	21.43
355.679	7.66
355.891	16.54
356.103	20.09
356.314	10.7
356.526	34.57
356.738	39.7
356.949	31.37
357.161	22.25
357.373	27.05
357.584	12.23
357.796	13.48
358.008	15.91
358.219	18.64
358.431	10.54
358.642	16.38
358.854	12.13
359.065	1.59
359.277	-0.05
359.488	10.31
359.7	9.4
359.911	24.63
360.123	35.2
360.334	28.79
360.546	40.01
360.757	40.57
360.969	26.53
361.18	25.32
361.391	32.96
361.603	28.47
361.814	21.19
362.025	24.6
362.237	23.25
362.448	11.88
362.659	7.05
362.871	15.79
363.082	14.57
363.293	5.41
363.504	10.82
363.716	8.81
363.927	2.69
364.138	8.57
364.349	16.18
364.56	16.94
364.772	15.62
364.983	7.91
365.194	-1.84
365.405	-14.35
365.616	-8.63
365.827	-13.99
366.038	-10.42
366.25	-8.13
366.461	12.69
366.672	12.27
366.883	5
367.094	11.98
367.305	5.82
367.516	-8.27
367.727	-2.84
367.938	16.72
368.149	10.85
368.36	33.56
368.571	35.27
368.781	24.66
368.992	30
369.203	38.03
369.414	16.39
369.625	1.3
369.836	20.01
370.047	15.62
370.258	7.27
370.468	31.71
370.679	39.98
370.89	22.11
371.101	27.68
371.312	25.53
371.522	11.39
371.733	10.14
371.944	12.78
372.155	8.72
372.365	9.18
372.576	9.19
372.787	9.32
372.997	10.44
373.208	6.76
373.419	8.79
373.629	-4.58
373.84	-7.44
374.05	9.28
374.261	16.04
374.472	13.63
374.682	22.8
374.893	24.08
375.103	10.97
375.314	9.26
375.524	18.28
375.735	19.67
375.945	16.73
376.156	28.45
376.366	29.7
376.577	19.71
376.787	18.82
376.997	23.22
377.208	18.15
377.418	17.06
377.629	19.37
377.839	19.24
378.049	25.17
378.26	34.68
378.47	24.77
378.68	20.09
378.89	18.85
379.101	-0.51
379.311	-15.75
379.521	7.95
379.732	12.19
379.942	24.66
380.152	28.34
380.362	34.72
380.572	29.66
380.783	34.56
380.993	27.91
381.203	22.46
381.413	4.63
381.623	1.9
381.833	3.49
382.043	-0.54
382.253	8.34
382.463	20.66
382.674	22.36
382.884	17.43
383.094	22.5
383.304	25.87
383.514	25.21
383.724	18.38
383.934	21.65
384.144	22.48
384.353	18.35
384.563	14.22
384.773	25.34
384.983	19.7
385.193	20.32
385.403	16
385.613	20.63
385.823	9.76
386.033	8.4
386.242	3.21
386.452	6.93
386.662	4.07
386.872	10.73
387.082	12.61
387.291	16.3
387.501	17.33
387.711	14.97
387.921	13.22
388.13	15.8
388.34	9.51
388.55	1.87
388.759	-1.05
388.969	-1.98
389.179	-1.41
389.388	1.24
389.598	6.33
389.807	13.01
390.017	11.03
390.227	6.61
390.436	10.2
390.646	9.61
390.855	7.43
391.065	7.28
391.274	6.83
391.484	6.51
391.693	8.22
391.903	6.74
392.112	6.46
392.322	7.68
392.531	5.35
392.74	4.55
392.95	4.06
393.159	3.82
393.369	5.37
393.578	2.81
393.787	3.45
393.997	5.64
394.206	5.7
394.415	5.07
394.625	7.76
394.834	6.31
395.043	4.78
395.252	5.68
395.462	5.77
395.671	3.83
395.88	4.72
396.089	3.7
396.298	4.07
396.508	3.48
396.717	4.1
396.926	3.78
397.135	4.81
397.344	3.38
397.553	4.21
397.762	4.48
397.971	3.94
398.181	3.58
398.39	4.47
398.599	3.62
398.808	3.24
399.017	4.15
399.226	5.04
399.435	4.78
399.644	5.67
399.853	6.15
400.062	5.86
400.27	5.22
400.479	5.49
400.688	5.19
400.897	5.06
401.106	4.67
401.315	4.75
401.524	4.43
401.733	3.91
401.941	3.38
402.15	3.42
402.359	3.37
402.568	3.62
402.777	3.6
402.985	3.8
403.194	4.01
403.403	4.13
403.612	3.82
403.82	3.76
404.029	3.81
404.238	3.74
404.446	3.5
404.655	3.39
404.864	3.67
405.072	3.65
405.281	3.71
405.489	3.8
405.698	4.03
405.906	3.97
406.115	4.08
406.324	3.92
406.532	3.74
406.741	3.7
406.949	3.88
407.158	3.76
407.366	3.7
407.574	3.73
407.783	3.59
407.991	3.36
408.2	3.45
408.408	3.58
408.617	3.61
408.825	3.85
409.033	3.92
409.242	3.76
409.45	3.75
409.658	3.73
409.867	3.6
410.075	3.64
410.283	3.6
410.491	3.51
410.7	3.76
410.908	3.67
411.116	3.67
411.324	3.84
411.533	3.85
411.741	3.65
411.949	3.81
412.157	3.8
412.365	3.95
412.573	3.86
412.781	3.8
412.99	3.73
413.198	3.69
413.406	3.42
413.614	3.46
413.822	3.46
414.03	3.44
414.238	3.38
414.446	3.39
414.654	3.42
414.862	3.48
415.07	3.51
415.278	3.44
415.486	3.43
415.694	3.43
415.902	3.37
416.109	3.29
416.317	3.36
416.525	3.29
416.733	3.21
416.941	3.16
417.149	3.17
417.357	3.16
417.564	3.24
417.772	3.44
417.98	3.61
418.188	3.58
418.395	3.57
418.603	3.51
418.811	3.25
419.019	3.07
419.226	3.24
419.434	3.26
419.642	3.05
419.849	2.96
420.057	2.91
420.265	2.73
420.472	2.61
420.68	2.74
420.887	3.02
421.095	3.08
421.302	3.03
421.51	3.12
421.717	3.21
421.925	3.25
422.132	3.28
422.34	3.22
422.547	3.15
422.755	3.22
422.962	3.14
423.17	3.02
423.377	3.15
423.585	3.22
423.792	3.06
423.999	3.11
424.207	3.04
424.414	3.07
424.621	2.91
424.829	2.83
425.036	2.72
425.243	2.97
425.451	2.87
425.658	2.88
425.865	3.05
426.072	3.13
426.28	3.12
426.487	3.24
426.694	3.31
426.901	3.33
427.108	3.2
427.315	3.11
427.523	3.08
427.73	3.16
427.937	3.12
428.144	3.11
428.351	3.07
428.558	3.07
428.765	2.97
428.972	3.11
429.179	3.1
429.386	3.38
429.593	3.39
429.8	3.41
430.007	3.27
430.214	3.36
430.421	3.18
430.628	3.2
430.835	3.16
431.042	3.19
431.249	3.27
431.456	3.24
431.662	3.24
431.869	3.26
432.076	3.35
432.283	3.31
432.49	3.26
432.697	3.24
432.903	3.2
433.11	3.07
433.317	3.11
433.524	3.1
433.73	2.94
433.937	3.05
434.144	3.12
434.35	3.13
434.557	3.19
434.764	3.18
434.97	3.07
435.177	2.99
435.384	2.88
435.59	2.85
435.797	3
436.003	3.16
436.21	3.37
436.416	3.3
436.623	3.24
436.829	3.27
437.036	3.2
437.242	3.12
437.449	3.35
437.655	3.38
437.862	3.35
438.068	3.46
438.275	3.38
438.481	3.32
438.687	3.25
438.894	3.15
439.1	2.99
439.307	3.13
439.513	3.14
439.719	3.25
439.926	3.4
440.132	3.54
440.338	3.4
440.544	3.3
440.751	3.29
440.957	3.23
441.163	3.24
441.369	3.38
441.575	3.44
441.782	3.5
441.988	3.55
442.194	3.46
442.4	3.41
442.606	3.47
442.812	3.45
443.018	3.41
443.224	3.41
443.431	3.39
443.637	3.32
443.843	3.31
444.049	3.25
444.255	3.29
444.461	3.31
444.667	3.38
444.873	3.47
445.079	3.57
445.284	3.56
445.49	3.56
445.696	3.52
445.902	3.51
446.108	3.58
446.314	3.54
446.52	3.49
446.726	3.59
446.931	3.59
447.137	3.57
447.343	3.63
447.549	3.71
447.755	3.62
447.96	3.65
448.166	3.65
448.372	3.71
448.578	3.76
448.783	3.68
448.989	3.58
449.195	3.49
449.4	3.5
449.606	3.43
449.812	3.51
450.017	3.57
450.223	3.6
450.428	3.54
450.634	3.52
450.84	3.55
451.045	3.64
451.251	3.73
451.456	3.67
451.662	3.71
451.867	3.77
452.073	3.75
452.278	3.63
452.483	3.71
452.689	3.67
452.894	3.78
453.1	3.78
453.305	3.85
453.51	3.89
453.716	3.92
453.921	3.83
454.127	3.81
454.332	3.84
454.537	3.81
454.742	3.76
454.948	3.72
455.153	3.77
455.358	3.8
455.563	3.86
455.769	3.82
455.974	3.85
456.179	3.83
456.384	3.68
456.589	3.58
456.795	3.7
457	3.63
457.205	3.61
457.41	3.63
457.615	3.69
457.82	3.68
458.025	3.65
458.23	3.66
458.435	3.76
458.64	3.72
458.845	3.75
459.05	3.68
459.255	3.66
459.46	3.7
459.665	3.78
459.87	3.76
460.075	3.83
460.28	3.9
460.485	3.91
460.69	3.91
460.895	3.94
461.099	4.04
461.304	3.96
461.509	3.84
461.714	3.84
461.919	3.85
462.123	3.81
462.328	3.81
462.533	3.91
462.738	3.9
462.942	3.87
463.147	3.83
463.352	3.92
463.556	3.85
463.761	3.84
463.966	3.84
464.17	3.8
464.375	3.89
464.58	4
464.784	4.06
464.989	3.98
465.193	4.1
465.398	4
465.602	3.96
465.807	3.97
466.011	4.04
466.216	4.01
466.42	3.99
466.625	4.14
466.829	4.1
467.034	4.1
467.238	4.14
467.443	4.13
467.647	3.95
467.851	3.96
468.056	4
468.26	4.01
468.464	4.04
468.669	4
468.873	4.05
469.077	4.01
469.282	4.03
469.486	4.05
469.69	4.18
469.894	4.17
470.099	4.22
470.303	4.23
470.507	4.27
470.711	4.24
470.915	4.27
471.119	4.38
471.324	4.34
471.528	4.33
471.732	4.3
471.936	4.31
472.14	4.37
472.344	4.44
472.548	4.5
472.752	4.59
472.956	4.63
473.16	4.55
473.364	4.5
473.568	4.5
473.772	4.58
473.976	4.62
474.18	4.62
474.384	4.65
474.588	4.66
474.792	4.65
474.995	4.66
475.199	4.65
475.403	4.7
475.607	4.7
475.811	4.71
476.015	4.68
476.218	4.75
476.422	4.7
476.626	4.7
476.83	4.69
477.033	4.75
477.237	4.77
477.441	4.88
477.644	4.87
477.848	4.87
478.052	4.87
478.255	4.83
478.459	4.77
478.663	4.9
478.866	4.9
479.07	4.97
479.273	5.06
479.477	5.12
479.681	5.05
479.884	5.02
480.088	4.98
480.291	4.98
480.495	4.98
480.698	5.03
480.901	5.08
481.105	5.13
481.308	5.07
481.512	5.08
481.715	5.14
481.919	5.19
482.122	5.19
482.325	5.26
482.529	5.3
482.732	5.26
482.935	5.28
483.138	5.27
483.342	5.2
483.545	5.25
483.748	5.18
483.952	5.13
484.155	5.18
484.358	5.24
484.561	5.23
484.764	5.29
484.967	5.38
485.171	5.31
485.374	5.33
485.577	5.3
485.78	5.31
485.983	5.3
486.186	5.32
486.389	5.32
486.592	5.28
486.795	5.34
486.998	5.29
487.201	5.26
487.404	5.3
487.607	5.38
487.81	5.35
488.013	5.42
488.216	5.46
488.419	5.38
488.622	5.33
488.825	5.3
489.028	5.3
489.231	5.3
489.433	5.28
489.636	5.34
489.839	5.37
490.042	5.29
490.245	5.27
490.447	5.27
490.65	5.3
490.853	5.27
491.056	5.32
491.258	5.34
491.461	5.4
491.664	5.31
491.866	5.31
492.069	5.3
492.272	5.33
492.474	5.32
492.677	5.38
492.879	5.4
493.082	5.41
493.285	5.44
493.487	5.43
493.69	5.48
493.892	5.47
494.095	5.54
494.297	5.53
494.5	5.63
494.702	5.6
494.905	5.68
495.107	5.61
495.309	5.76
495.512	5.74
495.714	5.74
495.917	5.77
496.119	5.76
496.321	5.66
496.524	5.68
496.726	5.71
496.928	5.62
497.13	5.68
497.333	5.68
497.535	5.67
497.737	5.71
497.939	5.78
498.142	5.81
498.344	5.88
498.546	5.89
498.748	5.91
498.95	5.98
499.152	5.97
499.355	5.9
499.557	5.92
499.759	5.9
499.961	5.87
500.163	5.94
500.365	6.04
500.567	6
500.769	6.01
500.971	6.03
501.173	5.96
501.375	5.95
501.577	6
501.779	6.02
501.981	6.03
502.183	6.09
502.385	6.15
502.587	6.2
502.788	6.25
502.99	6.2
503.192	6.27
503.394	6.22
503.596	6.27
503.798	6.26
503.999	6.4
504.201	6.4
504.403	6.48
504.605	6.5
504.806	6.6
505.008	6.51
505.21	6.52
505.411	6.55
505.613	6.58
505.815	6.57
506.016	6.67
506.218	6.7
506.42	6.68
506.621	6.69
506.823	6.7
507.024	6.68
507.226	6.79
507.427	6.88
507.629	6.87
507.83	6.96
508.032	7.03
508.233	6.99
508.435	6.95
508.636	7.04
508.838	6.99
509.039	7.01
509.24	7.02
509.442	7.1
509.643	7.16
509.845	7.15
510.046	7.25
510.247	7.3
510.448	7.29
510.65	7.27
510.851	7.33
511.052	7.3
511.254	7.29
511.455	7.38
511.656	7.39
511.857	7.4
512.058	7.43
512.26	7.48
512.461	7.49
512.662	7.48
512.863	7.52
513.064	7.5
513.265	7.52
513.466	7.55
513.667	7.68
513.868	7.69
514.069	7.71
514.27	7.69
514.471	7.65
514.672	7.6
514.873	7.62
515.074	7.66
515.275	7.67
515.476	7.68
515.677	7.7
515.878	7.73
516.079	7.71
516.28	7.71
516.481	7.77
516.682	7.76
516.882	7.75
517.083	7.79
517.284	7.88
517.485	7.92
517.686	7.96
517.886	7.98
518.087	7.98
518.288	7.95
518.488	7.92
518.689	7.95
518.89	7.97
519.091	8.01
519.291	8.02
519.492	8.05
519.692	8.07
519.893	8.06
520.094	8.06
520.294	8.12
520.495	8.15
520.695	8.17
520.896	8.22
521.096	8.21
521.297	8.21
521.497	8.27
521.698	8.25
521.898	8.28
522.099	8.32
522.299	8.34
522.499	8.3
522.7	8.34
522.9	8.31
523.101	8.31
523.301	8.36
523.501	8.37
523.702	8.36
523.902	8.43
524.102	8.49
524.302	8.47
524.503	8.51
524.703	8.53
524.903	8.55
525.103	8.56
525.304	8.58
525.504	8.6
525.704	8.63
525.904	8.64
526.104	8.64
526.304	8.66
526.504	8.62
526.705	8.63
526.905	8.64
527.105	8.69
527.305	8.71
527.505	8.74
527.705	8.77
527.905	8.77
528.105	8.7
528.305	8.69
528.505	8.71
528.705	8.73
528.905	8.78
529.105	8.88
529.304	8.91
529.504	8.98
529.704	9
529.904	9.04
530.104	9.03
530.304	9.05
530.503	9.08
530.703	9.05
530.903	9.05
531.103	9.06
531.303	9.06
531.502	9.05
531.702	9.11
531.902	9.12
532.101	9.15
532.301	9.23
532.501	9.24
532.7	9.25
532.9	9.29
533.1	9.32
533.299	9.34
533.499	9.39
533.698	9.39
533.898	9.43
534.097	9.46
534.297	9.39
534.496	9.36
534.696	9.48
534.895	9.43
535.095	9.47
535.294	9.55
535.494	9.61
535.693	9.54
535.892	9.6
536.092	9.62
536.291	9.63
536.491	9.6
536.69	9.69
536.889	9.76
537.088	9.81
537.288	9.83
537.487	9.9
537.686	9.86
537.886	9.88
538.085	9.86
538.284	9.88
538.483	9.89
538.682	9.97
538.882	10.01
539.081	10.04
539.28	10.05
539.479	10.09
539.678	10.06
539.877	10.05
540.076	10.12
540.275	10.22
540.474	10.26
540.673	10.26
540.872	10.29
541.071	10.34
541.27	10.37
541.469	10.41
541.668	10.54
541.867	10.65
542.066	10.65
542.265	10.7
542.464	10.75
542.663	10.79
542.862	10.82
543.06	10.9
543.259	10.98
543.458	11.05
543.657	11.13
543.856	11.19
544.054	11.15
544.253	11.17
544.452	11.23
544.651	11.27
544.849	11.29
545.048	11.42
545.247	11.45
545.445	11.46
545.644	11.47
545.843	11.49
546.041	11.52
546.24	11.56
546.438	11.63
546.637	11.7
546.836	11.77
547.034	11.83
547.233	11.9
547.431	11.96
547.63	11.95
547.828	12.05
548.027	12.06
548.225	12.14
548.423	12.22
548.622	12.29
548.82	12.33
549.019	12.5
549.217	12.54
549.415	12.54
549.614	12.65
549.812	12.67
550.01	12.73
550.209	12.75
550.407	12.82
550.605	12.85
550.803	12.94
551.002	12.96
551.2	13.06
551.398	13.2
551.596	13.34
551.794	13.46
551.993	13.54
552.191	13.63
552.389	13.67
552.587	13.74
552.785	13.75
552.983	13.84
553.181	13.94
553.379	14.03
553.577	14.15
553.775	14.22
553.973	14.36
554.171	14.44
554.369	14.55
554.567	14.61
554.765	14.72
554.963	14.77
555.161	14.85
555.359	14.96
555.557	15.1
555.755	15.2
555.952	15.3
556.15	15.44
556.348	15.5
556.546	15.64
556.744	15.74
556.941	15.81
557.139	15.87
557.337	15.99
557.535	16
557.732	16.12
557.93	16.24
558.128	16.35
558.325	16.47
558.523	16.58
558.721	16.66
558.918	16.79
559.116	16.88
559.313	17
559.511	17.08
559.708	17.23
559.906	17.32
560.104	17.43
560.301	17.57
560.498	17.72
560.696	17.77
560.893	17.9
561.091	18.07
561.288	18.13
561.486	18.27
561.683	18.41
561.88	18.51
562.078	18.61
562.275	18.69
562.473	18.77
562.67	18.9
562.867	18.98
563.064	19.04
563.262	19.18
563.459	19.31
563.656	19.34
563.853	19.41
564.051	19.49
564.248	19.57
564.445	19.59
564.642	19.68
564.839	19.87
565.036	20.04
565.234	20.16
565.431	20.32
565.628	20.54
565.825	20.62
566.022	20.68
566.219	20.71
566.416	20.84
566.613	20.81
566.81	20.92
567.007	21.09
567.204	21.22
567.401	21.22
567.598	21.44
567.795	21.5
567.991	21.54
568.188	21.65
568.385	21.83
568.582	21.86
568.779	21.99
568.976	21.98
569.172	22.04
569.369	22.1
569.566	22.14
569.763	22.27
569.96	22.38
570.156	22.47
570.353	22.48
570.55	22.53
570.746	22.42
570.943	22.52
571.14	22.57
571.336	22.72
571.533	22.76
571.729	22.94
571.926	22.96
572.123	23.02
572.319	23.01
572.516	23.1
572.712	23.07
572.909	23.1
573.105	23.16
573.302	23.23
573.498	23.24
573.695	23.29
573.891	23.32
574.087	23.31
574.284	23.31
574.48	23.36
574.677	23.43
574.873	23.47
575.069	23.54
575.266	23.54
575.462	23.57
575.658	23.5
575.854	23.62
576.051	23.53
576.247	23.59
576.443	23.66
576.639	23.74
576.835	23.67
577.032	23.74
577.228	23.71
577.424	23.64
577.62	23.61
577.816	23.63
578.012	23.56
578.208	23.54
578.404	23.59
578.6	23.51
578.796	23.48
578.993	23.55
579.189	23.57
579.384	23.56
579.58	23.66
579.776	23.63
579.972	23.63
580.168	23.64
580.364	23.65
580.56	23.64
580.756	23.61
580.952	23.53
581.148	23.47
581.343	23.42
581.539	23.42
581.735	23.41
581.931	23.45
582.127	23.42
582.322	23.43
582.518	23.47
582.714	23.51
582.909	23.5
583.105	23.6
583.301	23.55
583.496	23.38
583.692	23.36
583.888	23.31
584.083	23.32
584.279	23.3
584.474	23.29
584.67	23.27
584.866	23.22
585.061	23.07
585.257	23.11
585.452	23.16
585.648	23.22
585.843	23.34
586.039	23.46
586.234	23.46
586.429	23.4
586.625	23.37
586.82	23.35
587.015	23.2
587.211	23.2
587.406	23.23
587.601	23.25
587.797	23.19
587.992	23.24
588.187	23.23
588.383	23.27
588.578	23.26
588.773	23.29
588.968	23.37
589.163	23.44
589.359	23.45
589.554	23.38
589.749	23.44
589.944	23.43
590.139	23.47
590.334	23.59
590.529	23.67
590.724	23.72
590.919	23.72
591.114	23.74
591.309	23.7
591.504	23.81
591.699	23.76
591.894	23.84
592.089	23.84
592.284	23.82
592.479	23.77
592.674	23.8
592.869	23.78
593.064	23.85
593.259	24.01
593.454	24.06
593.648	24.13
593.843	24.27
594.038	24.33
594.233	24.25
594.428	24.37
594.622	24.49
594.817	24.5
595.012	24.51
595.206	24.71
595.401	24.76
595.596	24.79
595.79	24.86
595.985	24.94
596.18	24.98
596.374	25.04
596.569	25.13
596.763	25.23
596.958	25.31
597.153	25.34
597.347	25.37
597.542	25.38
597.736	25.47
597.931	25.52
598.125	25.62
598.319	25.73
598.514	25.85
598.708	25.86
598.903	25.85
599.097	25.84
599.291	25.87
599.486	25.89
599.68	26.01
599.874	26.11
600.069	26.2
600.263	26.29
600.457	26.33
600.651	26.36
600.846	26.43
601.04	26.44
601.234	26.47
601.428	26.45
601.622	26.42
601.817	26.44
602.011	26.45
602.205	26.45
602.399	26.49
602.593	26.58
602.787	26.58
602.981	26.6
603.175	26.62
603.369	26.68
603.563	26.67
603.757	26.69
603.951	26.67
604.145	26.55
604.339	26.56
604.533	26.49
604.727	26.44
604.921	26.43
605.115	26.5
605.309	26.39
605.502	26.39
605.696	26.47
605.89	26.46
606.084	26.45
606.278	26.44
606.471	26.38
606.665	26.3
606.859	26.29
607.053	26.2
607.246	26.17
607.44	26.13
607.634	25.93
607.827	25.85
608.021	25.75
608.214	25.8
608.408	25.82
608.602	25.86
608.795	25.81
608.989	25.79
609.182	25.62
609.376	25.56
609.569	25.46
609.763	25.35
609.956	25.28
610.15	25.19
610.343	25.03
610.537	24.92
610.73	24.88
610.923	24.85
611.117	24.8
611.31	24.77
611.504	24.84
611.697	24.75
611.89	24.69
612.083	24.61
612.277	24.45
612.47	24.33
612.663	24.3
612.856	24.19
613.05	24.1
613.243	24.09
613.436	23.96
613.629	23.84
613.822	23.84
614.015	23.79
614.209	23.7
614.402	23.65
614.595	23.61
614.788	23.46
614.981	23.41
615.174	23.32
615.367	23.33
615.56	23.25
615.753	23.16
615.946	23.02
616.139	22.95
616.332	22.82
616.525	22.77
616.718	22.69
616.911	22.74
617.103	22.72
617.296	22.67
617.489	22.58
617.682	22.56
617.875	22.48
618.067	22.52
618.26	22.47
618.453	22.41
618.646	22.42
618.838	22.33
619.031	22.15
619.224	22.15
619.417	22.18
619.609	22.14
619.802	22.12
619.994	22.09
620.187	22.03
620.38	21.92
620.572	21.95
620.765	21.89
620.957	21.85
621.15	21.77
621.342	21.74
621.535	21.58
621.727	21.51
621.92	21.56
622.112	21.53
622.305	21.57
622.497	21.53
622.69	21.51
622.882	21.4
623.074	21.4
623.267	21.31
623.459	21.32
623.651	21.38
623.844	21.4
624.036	21.3
624.228	21.29
624.42	21.2
624.613	21.11
624.805	21.11
624.997	21.19
625.189	21.21
625.381	21.19
625.574	21.17
625.766	21.05
625.958	20.96
626.15	20.89
626.342	20.88
626.534	20.82
626.726	20.8
626.918	20.78
627.11	20.76
627.302	20.67
627.494	20.68
627.686	20.67
627.878	20.69
628.07	20.69
628.262	20.68
628.454	20.55
628.646	20.49
628.838	20.47
629.029	20.34
629.221	20.34
629.413	20.39
629.605	20.37
629.797	20.29
629.989	20.19
630.18	20.15
630.372	20.1
630.564	20.04
630.755	20.01
630.947	20.05
631.139	19.95
631.33	19.99
631.522	20
631.714	19.81
631.905	19.83
632.097	19.83
632.289	19.74
632.48	19.69
632.672	19.72
632.863	19.65
633.055	19.63
633.246	19.5
633.438	19.4
633.629	19.48
633.821	19.45
634.012	19.45
634.203	19.52
634.395	19.55
634.586	19.44
634.777	19.43
634.969	19.4
635.16	19.32
635.351	19.33
635.543	19.3
635.734	19.23
635.925	19.2
636.117	19.25
636.308	19.25
636.499	19.22
636.69	19.2
636.881	19.26
637.073	19.2
637.264	19.13
637.455	19.15
637.646	19.27
637.837	19.17
638.028	19.13
638.219	19.16
638.41	19.12
638.601	18.97
638.792	18.97
638.983	18.94
639.174	18.87
639.365	18.87
639.556	18.83
639.747	18.74
639.938	18.74
640.129	18.71
640.32	18.69
640.511	18.78
640.701	18.81
640.892	18.73
641.083	18.71
641.274	18.61
641.465	18.48
641.655	18.44
641.846	18.48
642.037	18.4
642.228	18.44
642.418	18.41
642.609	18.33
642.8	18.26
642.99	18.19
643.181	18.16
643.372	18.18
643.562	18.13
643.753	18.15
643.943	18.18
644.134	18.07
644.324	17.97
644.515	17.96
644.705	17.87
644.896	17.95
645.086	17.91
645.277	17.94
645.467	17.9
645.658	17.88
645.848	17.74
646.038	17.74
646.229	17.75
646.419	17.72
646.61	17.79
646.8	17.76
646.99	17.68
647.18	17.61
647.371	17.52
647.561	17.45
647.751	17.4
647.941	17.35
648.132	17.33
648.322	17.52
648.512	17.42
648.702	17.48
648.892	17.43
649.082	17.45
649.272	17.33
649.462	17.37
649.653	17.31
649.843	17.4
650.033	17.34
650.223	17.3
650.413	17.21
650.603	17.16
650.793	17.13
650.983	17.11
651.172	17.13
651.362	17.07
651.552	16.98
651.742	16.94
651.932	16.8
652.122	16.71
652.312	16.76
652.502	16.75
652.691	16.69
652.881	16.63
653.071	16.53
653.261	16.36
653.45	16.25
653.64	16.14
653.83	16.18
654.019	16.07
654.209	16.04
654.399	15.96
654.588	15.85
654.778	15.71
654.968	15.63
655.157	15.55
655.347	15.4
655.536	15.23
655.726	15.02
655.915	14.84
656.105	14.68
656.294	14.59
656.484	14.49
656.673	14.39
656.863	14.32
657.052	14.13
657.241	14.02
657.431	13.92
657.62	13.83
657.809	13.62
657.999	13.57
658.188	13.33
658.377	13.11
658.567	12.91
658.756	12.73
658.945	12.59
659.134	12.51
659.324	12.41
659.513	12.26
659.702	12.05
659.891	11.85
660.08	11.68
660.269	11.51
660.458	11.4
660.648	11.35
660.837	11.19
661.026	11.07
661.215	10.93
661.404	10.73
661.593	10.59
661.782	10.41
661.971	10.18
662.16	10.01
662.349	9.82
662.538	9.67
662.726	9.49
662.915	9.45
663.104	9.34
663.293	9.26
663.482	9.14
663.671	9.07
663.86	8.86
664.048	8.79
664.237	8.69
664.426	8.65
664.615	8.62
664.803	8.5
664.992	8.33
665.181	8.22
665.369	8.11
665.558	7.97
665.747	7.95
665.935	7.93
666.124	7.93
666.312	7.85
666.501	7.77
666.69	7.77
666.878	7.65
667.067	7.52
667.255	7.51
667.444	7.55
667.632	7.43
667.82	7.35
668.009	7.33
668.197	7.22
668.386	7.15
668.574	7.16
668.762	7.19
668.951	7.14
669.139	7.11
669.327	7.11
669.516	7.06
669.704	7.07
669.892	7.07
670.08	6.99
670.269	7.02
670.457	6.98
670.645	7
670.833	6.97
671.021	7.05
671.21	7
671.398	6.91
671.586	6.88
671.774	6.93
671.962	6.93
672.15	6.99
672.338	7.23
672.526	7.27
672.714	7.25
672.902	7.22
673.09	7.13
673.278	7.06
673.466	7.04
673.654	7.16
673.842	7.25
674.03	7.41
674.218	7.55
674.405	7.65
674.593	7.56
674.781	7.64
674.969	7.65
675.157	7.57
675.344	7.47
675.532	7.74
675.72	7.82
675.908	7.85
676.095	7.92
676.283	8.08
676.471	8.03
676.658	8.07
676.846	8.13
677.033	8.24
677.221	8.31
677.409	8.34
677.596	8.36
677.784	8.5
677.971	8.64
678.159	8.75
678.346	8.89
678.534	9
678.721	9.05
678.909	9.07
679.096	9.19
679.283	9.21
679.471	9.26
679.658	9.3
679.846	9.24
680.033	9.29
680.22	9.46
680.408	9.51
680.595	9.67
680.782	9.91
680.969	9.99
681.157	10.05
681.344	10.19
681.531	10.2
681.718	10.35
681.905	10.53
682.093	10.69
682.28	10.98
682.467	11.32
682.654	11.51
682.841	11.59
683.028	11.81
683.215	12
683.402	12.07
683.589	12.3
683.776	12.62
683.963	12.87
684.15	13.11
684.337	13.39
684.524	13.59
684.711	13.82
684.898	13.95
685.085	14.1
685.271	14.45
685.458	14.69
685.645	14.98
685.832	15.32
686.019	15.57
686.205	15.76
686.392	16.07
686.579	16.4
686.766	16.66
686.952	17.02
687.139	17.45
687.326	17.9
687.512	18.29
687.699	18.68
687.886	19.17
688.072	19.56
688.259	19.85
688.445	19.99
688.632	20.5
688.818	20.88
689.005	21.28
689.191	21.75
689.378	22.53
689.564	22.95
689.751	23.41
689.937	23.82
690.124	24.32
690.31	24.75
690.496	25.29
690.683	25.94
690.869	26.54
691.055	27.15
691.242	27.89
691.428	28.42
691.614	28.93
691.8	29.52
691.987	30.18
692.173	30.79
692.359	31.59
692.545	32.16
692.731	32.71
692.918	33.09
693.104	33.52
693.29	33.82
693.476	34.4
693.662	35
693.848	35.42
694.034	35.94
694.22	36.57
694.406	37.22
694.592	37.79
694.778	38.86
694.964	39.36
695.15	39.86
695.336	40.41
695.522	40.89
695.708	41.11
695.894	41.63
696.08	42.29
696.265	42.64
696.451	43.29
696.637	44
696.823	44.63
697.009	45.22
697.194	45.79
697.38	46.43
697.566	46.83
697.751	47.29
697.937	47.9
698.123	48.49
698.308	48.96
698.494	49.67
698.68	50.49
698.865	50.83
699.051	51.27
699.236	51.69
699.422	52.2
699.607	52.22
699.793	52.6
699.978	53.07
700.164	53.44
700.349	53.79
700.535	54.41
700.72	54.86
700.906	55.22
701.091	55.55
701.276	55.8
701.462	56.1
701.647	56.65
701.832	57.11
702.018	57.73
702.203	58.07
702.388	58.54
702.573	58.97
702.759	59.09
702.944	59.39
703.129	60
703.314	60.1
703.499	60.21
703.684	60.44
703.87	60.79
704.055	60.79
704.24	61.16
704.425	61.51
704.61	61.95
704.795	61.97
704.98	62.39
705.165	62.93
705.35	63.47
705.535	63.79
705.72	64.43
705.905	64.94
706.09	65.1
706.275	65.25
706.459	65.55
706.644	65.61
706.829	65.7
707.014	65.91
707.199	65.9
707.384	66
707.568	66.28
707.753	66.47
707.938	66.59
708.123	66.86
708.307	67.06
708.492	67.32
708.677	67.21
708.861	67.7
709.046	67.96
709.231	68.29
709.415	68.07
709.6	68.48
709.784	68.57
709.969	68.59
710.153	68.72
710.338	69.35
710.522	69.37
710.707	69.38
710.891	69.44
711.076	69.41
711.26	69.39
711.445	69.54
711.629	69.93
711.813	70.14
711.998	70.41
712.182	70.42
712.366	70.43
712.551	70.61
712.735	70.96
712.919	71.27
713.103	71.46
713.288	71.67
713.472	71.19
713.656	71.11
713.84	71.16
714.024	71.41
714.208	71.69
714.393	71.95
714.577	71.99
714.761	72.17
714.945	72.2
715.129	72.1
715.313	72.62
715.497	72.74
715.681	72.4
715.865	72.53
716.049	73.28
716.233	73.28
716.417	73.34
716.601	73.74
716.785	73.8
716.968	73.59
717.152	73.1
717.336	72.86
717.52	73.19
717.704	73.71
717.888	73.69
718.071	73.98
718.255	74.71
718.439	74.26
718.622	73.54
718.806	73.59
718.99	73.95
719.174	74.04
719.357	74.67
719.541	74.72
719.724	74.82
719.908	74.97
720.092	74.73
720.275	74.62
720.459	75.04
720.642	75.15
720.826	74.39
721.009	74.65
721.193	74.91
721.376	74.91
721.559	74.83
721.743	75.55
721.926	75.45
722.11	75.47
722.293	75.87
722.476	75.41
722.66	75.64
722.843	75.67
723.026	75.44
723.21	75.26
723.393	75.78
723.576	75.9
723.759	75.86
723.942	76.11
724.126	75.92
724.309	76.42
724.492	76.2
724.675	76.71
724.858	76.71
725.041	76.5
725.224	76.38
725.407	76.73
725.59	76.68
725.774	76.43
725.957	76.96
726.14	77.06
726.322	76.92
726.505	76.72
726.688	77.18
726.871	77.42
727.054	76.79
727.237	76.96
727.42	77.15
727.603	77.22
727.786	77.16
727.968	77.79
728.151	77.9
728.334	77.77
728.517	77.73
728.699	77.24
728.882	76.84
729.065	76.66
729.248	77.26
729.43	77.24
729.613	77.59
729.796	78.37
729.978	78.46
730.161	77.95
730.343	78.62
730.526	78.83
730.708	78.49
730.891	78.31
731.073	78.71
731.256	78.59
731.438	79.2
731.621	79.47
731.803	80
731.986	80.65
732.168	80
732.35	79.68
732.533	79.78
732.715	79.55
732.898	79.11
733.08	79.78
733.262	79.63
733.444	79.8
733.627	80.05
733.809	80.42
733.991	80.07
734.173	80.15
734.355	80.14
734.538	79.76
734.72	79.63
734.902	79.74
735.084	80.39
735.266	80.09
735.448	79.78
735.63	79.91
735.812	80.36
735.994	80.04
736.176	80.75
736.358	82.06
736.54	82.15
736.722	81.74
736.904	81.46
737.086	81.2
737.268	80.71
737.45	80.71
737.632	80.83
737.814	81.39
737.995	81.39
738.177	81.29
738.359	81.42
738.541	81.37
738.723	82.23
738.904	82.37
739.086	82.55
739.268	82.52
739.449	82.93
739.631	82.25
739.813	82
739.994	82.5
740.176	82.6
740.358	82.3
740.539	82.47
740.721	82.37
740.902	82.09
741.084	82.07
741.265	82.94
741.447	82.46
741.628	82.99
741.81	83.02
741.991	82.81
742.172	82.09
742.354	82.3
742.535	82.35
742.717	83.23
742.898	83.19
743.079	83.31
743.261	83.76
743.442	83.69
743.623	82.81
743.804	82.93
743.986	82.68
744.167	82.79
744.348	82.19
744.529	82.43
744.71	82.4
744.891	82.63
745.073	82.3
745.254	82.84
745.435	83.01
745.616	82.12
745.797	82.63
745.978	82.03
746.159	81.03
746.34	80.62
746.521	80.6
746.702	80.28
746.883	80.58
747.064	81.54
747.245	81.72
747.426	82.14
747.606	81.58
747.787	81.51
747.968	81.05
748.149	80.96
748.33	82.09
748.51	82.86
748.691	83.52
748.872	83.89
749.053	83.97
749.233	82.51
749.414	82.37
749.595	81.56
749.775	81.59
749.956	81.3
750.137	81.78
750.317	81.48
750.498	81.02
750.678	81.48
750.859	81.57
751.04	81.12
751.22	80.19
751.4	80.73
751.581	80.03
751.761	79.95
751.942	80.75
752.122	81.25
752.303	81.43
752.483	81.7
752.663	82.25
752.844	82.29
753.024	83.45
753.204	82.58
753.385	82.54
753.565	82.09
753.745	82.61
753.925	82.68
754.106	83.37
754.286	81.34
754.466	81.21
754.646	79.64
754.826	77.19
755.006	76.71
755.187	79.02
755.367	78.98
755.547	79.42
755.727	81.37
755.907	81.67
756.087	82.41
756.267	82.04
756.447	81.69
756.627	80.76
756.807	79.73
756.987	76.95
757.167	77.44
757.346	78.32
757.526	78.65
757.706	80.32
757.886	81.29
758.066	80.61
758.246	80.36
758.425	80.64
758.605	79.98
758.785	80.4
758.965	80.55
759.144	80.02
759.324	78.5
759.504	78.42
759.683	78.47
759.863	78.92
760.043	79.33
760.222	79.75
760.402	79.42
760.581	80.44
760.761	79.99
760.94	80.07
761.12	81.59
761.299	82.29
761.479	81.49
761.658	81.29
761.838	80.7
762.017	80.79
762.197	81.29
762.376	81.87
762.555	81.6
762.735	82.14
762.914	82.25
763.093	81.4
763.273	79.79
763.452	80.06
763.631	79.53
763.81	78.51
763.99	78.95
764.169	79.72
764.348	79.9
764.527	79.19
764.706	79.15
764.885	79.58
765.064	78.35
765.243	77.69
765.423	79.95
765.602	79.33
765.781	77.18
765.96	76.79
766.139	77.41
766.318	76.48
766.497	76.13
766.676	78.25
766.854	79.15
767.033	78.52
767.212	77.65
767.391	79.03
767.57	79.16
767.749	79.54
767.928	79.44
768.106	78.69
768.285	77.87
768.464	76.22
768.643	74.83
768.821	76.04
769	76.13
769.179	76.55
769.357	77.13
769.536	78.99
769.715	79.44
769.893	79.59
770.072	79.38
770.25	79.3
770.429	78.81
770.607	78.29
770.786	79.19
770.964	78.45
771.143	77.58
771.321	77.31
771.5	77.49
771.678	77.51
771.857	79.4
772.035	79.63
772.213	78.62
772.392	77.18
772.57	76.52
772.748	74.21
772.927	73.83
773.105	75.94
773.283	75.92
773.461	75.58
773.64	77.66
773.818	78.72
773.996	78.45
774.174	78.61
774.352	78.5
774.531	76.15
774.709	75.12
774.887	74.94
775.065	75.46
775.243	76.6
775.421	78.58
775.599	78.02
775.777	78.81
775.955	77.91
776.133	77.41
776.311	77.64
776.489	79.79
776.667	77.57
776.844	78.73
777.022	79.67
777.2	78.79
777.378	77.17
777.556	76.47
777.734	75.74
777.911	75.26
778.089	74.08
778.267	75.72
778.445	77.71
778.622	77.21
778.8	76.8
778.978	77.8
779.155	75.29
779.333	74.46
779.511	74.61
779.688	74.54
779.866	73.68
780.043	75.81
780.221	77.28
780.398	76.66
780.576	77.09
780.753	76.15
780.931	74.86
781.108	72.43
781.286	74.19
781.463	74.74
781.64	77.1
781.818	77.16
781.995	78.29
782.172	77.37
782.35	76.62
782.527	77.03
782.704	76.64
782.882	76.92
783.059	78.57
783.236	78.33
783.413	76.54
783.59	76.95
783.768	76.84
783.945	75.22
784.122	73.49
784.299	73.54
784.476	73.27
784.653	73.21
784.83	72.43
785.007	72.66
785.184	73.27
785.361	73.28
785.538	72.29
785.715	72.9
785.892	71.79
786.069	71.96
786.246	72.57
786.423	72.29
786.6	72.98
786.776	73.61
786.953	73.29
787.13	71.85
787.307	73.22
787.484	70.6
787.66	72.86
787.837	72.98
788.014	74.97
788.191	74.1
788.367	75.87
788.544	72.23
788.721	72.21
788.897	72.43
789.074	72.83
789.25	69.05
789.427	71.51
789.603	73.13
789.78	72.6
789.956	71.41
790.133	74.17
790.309	72.83
790.486	71.2
790.662	70.64
790.839	74.61
791.015	74.09
791.192	77.32
791.368	75.62
791.544	74.95
791.721	73.21
791.897	73.21
792.073	71.54
792.249	74.07
792.426	70.76
792.602	71.16
792.778	72.52
792.954	72.49
793.13	71.05
793.307	75.23
793.483	73.31
793.659	73.01
793.835	73.31
794.011	75.2
794.187	75.44
794.363	74.24
794.539	77.47
794.715	75.63
794.891	71.81
795.067	70.64
795.243	72.28
795.419	70.82
795.595	73.01
795.771	74.08
795.947	72.21
796.122	70.88
796.298	69.52
796.474	67.09
796.65	68.3
796.826	70.11
797.001	69.48
797.177	68.65
797.353	73.17
797.529	71.49
797.704	72.17
797.88	73.7
798.056	75.93
798.231	75.7
798.407	79.97
798.582	78.55
798.758	82.58
798.934	81.25
799.109	78.47
799.285	75.88
799.46	75.12
799.636	70.45
799.811	71.09
799.986	68.93
800.162	69.8
800.337	71.3
800.513	75.36
800.688	75.31
800.863	76.2
801.039	73.62
801.214	72.86
801.389	70.84
801.565	68
801.74	72.1
801.915	72.24
802.09	73.68
802.265	70.32
802.441	73.38
802.616	70.13
802.791	73
802.966	72.34
803.141	76.3
803.316	73.05
803.491	68.11
803.666	68.06
803.841	66.86
804.016	69.2
804.191	70.27
804.366	78.61
804.541	79.55
804.716	79.09
804.891	79.66
805.066	76.1
805.241	72.59
805.416	67.38
805.591	65.41
805.765	62.43
805.94	63.67
806.115	65.72
806.29	65.33
806.464	69.29
806.639	66.57
806.814	68.67
806.989	61.36
807.163	67.88
807.338	66.43
807.512	69.26
807.687	71.46
807.862	73.9
808.036	69.64
808.211	73.99
808.385	78.35
808.56	74.8
808.734	75.05
808.909	76.31
809.083	78.44
809.258	68.93
809.432	73.93
809.606	79.55
809.781	77.44
809.955	75.36
810.13	73.21
810.304	68.12
810.478	58.81
810.652	62.44
810.827	60.31
811.001	70.66
811.175	72.16
811.349	79.89
811.524	84
811.698	81.03
811.872	74.39
812.046	76.78
812.22	72.68
812.394	64.78
812.568	72
812.742	79.29
812.916	71.59
813.09	75.51
813.264	78.71
813.438	69.9
813.612	67.02
813.786	67.25
813.96	66.32
814.134	66.4
814.308	67.53
814.482	74.14
814.656	78.76
814.83	75.79
815.003	77.01
815.177	86.82
815.351	78.95
815.525	80.66
815.698	84.82
815.872	81.79
816.046	68.01
816.219	68.15
816.393	63.87
816.567	70.48
816.74	67.91
816.914	68.63
817.088	76.26
817.261	80.05
817.435	63.38
817.608	58.61
817.782	64.24
817.955	55.38
818.129	54.21
818.302	61.62
818.475	75.91
818.649	73.7
818.822	78.02
818.996	92.4
819.169	94.69
819.342	85.56
819.516	87.21
819.689	91.2
819.862	77.64
820.035	77.47
820.209	78.01
820.382	76.71
820.555	72.78
820.728	77.77
820.901	78.46
821.075	70.7
821.248	67.23
821.421	69.67
821.594	66.22
821.767	69.78
821.94	83.12
822.113	85.41
822.286	74.59
822.459	81.3
822.632	71.43
822.805	45.34
822.978	55.78
823.151	68.8
823.324	57.02
823.496	59.52
823.669	66.94
823.842	54.34
824.015	52.34
824.188	55.28
824.361	55.73
824.533	65.09
824.706	82.69
824.879	63.51
825.051	69.48
825.224	73.3
825.397	79.67
825.569	76.78
825.742	90.77
825.915	87.19
826.087	93.18
826.26	74.7
826.432	67.5
826.605	70.24
826.777	69.66
826.95	56.99
827.122	60.73
827.295	67.95
827.467	65.35
827.64	56.39
827.812	57.42
827.984	63.31
828.157	55.91
828.329	44.99
828.501	37.07
828.674	40.47
828.846	30.44
829.018	21.37
829.19	32.34
829.363	43.98
829.535	41.76
829.707	44.09
829.879	58.34
830.051	59.55
830.223	68.15
830.395	102.26
830.568	80.99
830.74	80.32
830.912	74.02
831.084	67.83
831.256	56.03
831.428	53.11
831.6	56.08
831.772	54.3
831.943	45.42
832.115	52.06
832.287	62.09
832.459	63.76
832.631	65.54
832.803	96.22
832.975	91.1
833.146	87.12
833.318	80.64
833.49	80.3
833.662	72.78
833.833	84.24
834.005	88.99
834.177	99.08
834.348	87.01
834.52	61.21
834.692	53.94
834.863	53.12
835.035	57.5
835.206	60.87
835.378	65.03
835.549	62.06
835.721	62.07
835.892	57.17
836.064	63.11
836.235	74.34
836.407	81.62
836.578	86.72
836.749	82.02
836.921	81.9
837.092	87
837.264	92.06
837.435	84.73
837.606	81.06
837.777	67.07
837.949	60.09
838.12	51.68
838.291	39.5
838.462	50.51
838.633	53.96
838.805	41.66
838.976	37.62
839.147	37.98
839.318	47.42
839.489	58.43
839.66	62.94
839.831	59.21
840.002	76.89
840.173	90.15
840.344	72.13
840.515	62.22
840.686	96.68
840.857	99.27
841.028	59.13
841.199	84.62
841.369	117.62
841.54	83.69
841.711	67.32
841.882	71.43
842.053	75.34
842.223	47.84
842.394	28.24
842.565	50.34
842.736	44.64
842.906	16.84
843.077	26.7
843.248	24.12
843.418	27.25
843.589	29.16
843.759	31.83
843.93	51.07
844.101	70.68
844.271	43.5
844.442	27.4
844.612	29.65
844.783	30.73
844.953	24.77
845.123	45.79
845.294	84.78
845.464	79.14
845.635	63.93
845.805	78.03
845.975	80.94
846.146	69.67
846.316	80.02
846.486	80.11
846.656	83.95
846.827	85.64
846.997	71.27
847.167	65.01
847.337	71.79
847.507	26.76
847.677	28.28
847.848	30.68
848.018	55.36
848.188	46.27
848.358	68.36
848.528	53.68
848.698	54.71
848.868	31.45
849.038	37.8
849.208	34.74
849.378	31.53
849.548	36.61
849.718	28.56
849.887	34.3
850.057	48.48
850.227	44.66
850.397	47.65
850.567	70.45
850.737	70.46
850.906	65.48
851.076	66.44
851.246	67.92
851.415	69.31
851.585	76.54
851.755	116.26
851.924	73.25
852.094	106.49
852.264	80.45
852.433	85.95
852.603	58.05
852.772	86.06
852.942	80.61
853.111	83.04
853.281	93.01
853.45	85.44
853.62	66.65
853.789	43.43
853.959	38.54
854.128	22.08
854.297	12.04
854.467	12.52
854.636	19.4
854.805	11.03
854.975	5.64
855.144	26.05
855.313	-6.38
855.482	28.37
855.652	47.46
855.821	25.37
855.99	-4.1
856.159	27.45
856.328	-6.55
856.497	-10.38
856.667	26.22
856.836	69.4
857.005	75.29
857.174	23.14
857.343	22.78
857.512	11.9
857.681	25.43
857.85	59.58
858.019	87.51
858.188	111.2
858.356	86.4
858.525	88.12
858.694	67.15
858.863	61.18
859.032	37.3
859.201	48.57
859.369	5.33
859.538	58.85
859.707	94.65
859.876	81.37
860.044	91.52
860.213	74.93
860.382	65.4
860.55	28.56
860.719	60.88
860.888	76.36
861.056	102.38
861.225	65.75
861.393	105.22
861.562	103.31
861.73	100.26
861.899	29.58
862.067	47.05
862.236	40.07
862.404	65.09
862.572	62.38
862.741	95.62
862.909	125.49
863.078	92.4
863.246	82.76
863.414	71.92
863.582	61.52
863.751	67.28
863.919	75.19
864.087	71.43
864.255	77.41
864.424	100.13
864.592	88.36
864.76	101.81
864.928	39.54
865.096	13.98
865.264	-1.03
865.432	-14.95
865.6	-2.14
865.768	58.7
865.936	67.83
866.104	48.19
866.272	60.16
866.44	54.54
866.608	56.05
866.776	78.81
866.944	98.59
867.112	82.01
867.28	89.64
867.448	53.24
867.615	34.16
867.783	24.44
867.951	44.84
868.119	39.92
868.286	37.89
868.454	41.52
868.622	33.14
868.789	-6.65
868.957	11.83
869.125	84.53
869.292	58.09
869.46	113.9
869.627	74.55
869.795	63.59
869.963	28.35
870.13	80.33
870.298	52.28
870.465	82.98
870.632	91.32
870.8	68.9
870.967	62.78
871.135	82.38
871.302	96.75
871.469	55.68
871.637	67.05
871.804	1.14
871.971	-43.29
872.139	-48.89
872.306	-68.36
872.473	16.9
872.64	25.85
872.807	54.08
872.975	89.86
873.142	51.77
873.309	6.72
873.476	22.78
873.643	5
873.81	-33.79
873.977	18.46
874.144	71.58
874.311	69.87
874.478	85.88
874.645	102.36
874.812	52.44
874.979	11.64
875.146	37.1
875.313	14.01
875.48	28.18
875.647	30.51
875.813	19.78
875.98	19.92
876.147	37.83
876.314	41.28
876.481	40.83
876.647	52.5
876.814	57.32
876.981	63.85
877.147	51.97
877.314	65.39
877.481	105.07
877.647	76.61
877.814	22.87
877.98	7.2
878.147	15.68
878.314	-3.52
878.48	-32.91
878.647	5.26
878.813	27.47
878.979	32.96
879.146	24.99
879.312	50.68
879.479	48.96
879.645	51.92
879.811	38.4
879.978	48.91
880.144	41.06
880.31	55.9
880.477	18.1
880.643	10.41
880.809	20.47
880.975	63.65
881.142	21.21
881.308	51.1
881.474	48.16
881.64	28.03
881.806	-10.37
881.972	-8.97
882.138	-114.92
882.304	-18.85
882.47	32.96
882.636	1.22
882.802	37.91
882.968	41.14
883.134	88.84
883.3	80.36
883.466	100.41
883.632	69.53
883.798	119.12
883.964	77.47
884.129	45.41
884.295	-15.26
884.461	-23.44
884.627	-38.53
884.793	-114.65
884.958	-115.34
885.124	-32.84
885.29	-31.14
885.455	4.53
885.621	54.88
885.787	44.28
885.952	26.78
886.118	25.56
886.283	32.18
886.449	10.62
886.614	47.56
886.78	54.02
886.945	41.81
887.111	26.88
887.276	-2.78
887.442	-14.93
887.607	14.29
887.773	21.6
887.938	28.91
888.103	46.12
888.269	50.92
888.434	41.88
888.599	54.26
888.764	63.83
888.93	96.27
889.095	136.76
889.26	124.12
889.425	99.77
889.59	74.74
889.756	77.62
889.921	44.12
890.086	46.58
890.251	51.01
890.416	89.88
890.581	79.13
890.746	-4.93
890.911	-367.77
891.076	456.29
891.241	1128.28
891.406	324.8
891.571	-369.28
891.736	-27.93
891.901	-51.22
892.065	-87.19
892.23	24.26
892.395	28.15
892.56	-250.65
892.725	2.31
892.889	-2.29
893.054	-45.55
893.219	-19.16
893.384	4.02
893.548	4.63
893.713	17.93
893.878	29.38
