Data from Ofra_PS_Phys_0GT1_Reflection_2.txt Node
Date: Tue Jul 20 14:45:49 EDT 2021
User: USUARIO
Spectrometer: FLMT01687
Trigger mode: 0
Integration Time (sec): 1.200000E0
Scans to average: 2
Electric dark correction enabled: true
Nonlinearity correction enabled: false
Boxcar width: 2
XAxis mode: Wavelengths
Number of Pixels in Spectrum: 3648
>>>>>Begin Spectral Data<<<<<
179.494	-180.78
179.716	-439.39
179.937	1100.51
180.158	175.15
180.38	96
180.601	71.95
180.823	315.23
181.044	291.73
181.265	-3
181.486	46.74
181.708	-194.01
181.929	-18.88
182.15	289.06
182.372	-733.33
182.593	98.6
182.814	3186.67
183.035	244.77
183.257	140.42
183.478	155.74
183.699	83.11
183.92	57.07
184.141	61.15
184.363	44.46
184.584	48.58
184.805	26.15
185.026	43.59
185.247	31.88
185.468	28.96
185.689	19.33
185.91	30.56
186.132	24.28
186.353	23.49
186.574	25.32
186.795	29.79
187.016	41.47
187.237	58.95
187.458	54.77
187.679	65.84
187.9	71.79
188.121	54.54
188.342	46.34
188.563	51.24
188.784	30.55
189.005	35.6
189.226	32.88
189.447	30.77
189.667	24.31
189.888	35.62
190.109	34.7
190.33	33.98
190.551	24.23
190.772	21.38
190.993	20.86
191.214	5.67
191.434	16.37
191.655	20.11
191.876	13.66
192.097	0.43
192.318	12.56
192.538	7.79
192.759	12.63
192.98	15.19
193.201	31.41
193.421	31.74
193.642	42.91
193.863	40.34
194.083	60.76
194.304	54
194.525	49.88
194.745	59.62
194.966	65.79
195.187	46.32
195.407	33.46
195.628	25.31
195.848	4.51
196.069	-3.31
196.29	-4.74
196.51	26.41
196.731	30.89
196.951	19.45
197.172	21.33
197.392	36.2
197.613	20.14
197.833	27.03
198.054	41.93
198.274	41.04
198.495	42.64
198.715	46.73
198.936	49.13
199.156	47.56
199.377	-1.93
199.597	-19.95
199.817	10.55
200.038	-20.36
200.258	11.04
200.479	53.38
200.699	41.41
200.919	37.5
201.14	65.8
201.36	46.51
201.58	24.42
201.801	34.12
202.021	17.8
202.241	33.23
202.461	34.42
202.682	35.98
202.902	40.27
203.122	44.38
203.342	26.92
203.563	28.5
203.783	30.7
204.003	29.35
204.223	46.91
204.443	51.62
204.663	64.01
204.884	81.06
205.104	81.36
205.324	48.44
205.544	34.84
205.764	29.87
205.984	23.48
206.204	9.94
206.424	9.93
206.644	8.63
206.864	-8.82
207.084	-19.98
207.304	-12.61
207.525	-7.64
207.745	13.3
207.964	18.71
208.184	37.81
208.404	39.15
208.624	54.02
208.844	51.3
209.064	47.2
209.284	26.48
209.504	13.05
209.724	0.18
209.944	-0.42
210.164	9.3
210.384	30.92
210.604	25.98
210.823	39.3
211.043	38.7
211.263	12.86
211.483	-14.15
211.703	6.34
211.922	4.5
212.142	3.75
212.362	20.62
212.582	35.98
212.801	40.95
213.021	37.72
213.241	47.7
213.461	39.11
213.68	32.4
213.9	43.32
214.12	34.79
214.339	22.58
214.559	20.38
214.779	31.33
214.998	21.4
215.218	24.96
215.438	29.03
215.657	48.39
215.877	47.4
216.096	45.47
216.316	39.51
216.535	34.23
216.755	30.96
216.974	20.09
217.194	39.99
217.413	48.76
217.633	50.45
217.852	70.74
218.072	70.03
218.291	69.59
218.511	60.78
218.73	41.37
218.95	45.49
219.169	51.22
219.389	42.1
219.608	42.56
219.827	67.76
220.047	45.69
220.266	39.36
220.485	25.22
220.705	37.79
220.924	30.07
221.143	39.23
221.363	44.14
221.582	38.97
221.801	13.09
222.021	25.12
222.24	16.5
222.459	18.68
222.678	26.87
222.897	36.42
223.117	25
223.336	6.37
223.555	-12.95
223.774	-20.96
223.993	-6.03
224.213	4.11
224.432	39.69
224.651	54.96
224.87	62.99
225.089	69.67
225.308	63.51
225.527	42.32
225.746	23.15
225.965	22.73
226.184	14.24
226.404	18.03
226.623	35.53
226.842	26.47
227.061	23.24
227.28	16.93
227.499	13.61
227.718	-0.03
227.936	30.62
228.155	35.36
228.374	38.86
228.593	35.67
228.812	37.54
229.031	15.78
229.25	12.71
229.469	8.47
229.688	14.26
229.907	12.85
230.125	28.69
230.344	22.17
230.563	35.02
230.782	22.37
231.001	28.04
231.22	31.92
231.438	47.29
231.657	35.22
231.876	64.28
232.095	63.59
232.313	58.31
232.532	58.57
232.751	58.14
232.969	49.07
233.188	43.53
233.407	35.81
233.625	14.12
233.844	13.18
234.063	20.77
234.281	14.56
234.5	33.07
234.719	39.07
234.937	52.44
235.156	45.23
235.374	53.09
235.593	36.56
235.811	38.63
236.03	35.63
236.249	25.44
236.467	34.14
236.686	30.32
236.904	21.81
237.123	20.9
237.341	25.88
237.559	9.93
237.778	27.75
237.996	35.53
238.215	47.27
238.433	44.2
238.652	58.34
238.87	35.95
239.088	28.84
239.307	14.28
239.525	14.48
239.743	27.9
239.962	25.61
240.18	23.5
240.398	18.01
240.617	22.13
240.835	22.11
241.053	34.37
241.271	54.53
241.49	64.13
241.708	63.69
241.926	67.9
242.144	65.88
242.363	53.75
242.581	64.48
242.799	68.59
243.017	47.06
243.235	35.96
243.453	44.76
243.672	32.09
243.89	18.55
244.108	18.3
244.326	29.43
244.544	19.91
244.762	19.2
244.98	22.88
245.198	26.03
245.416	17.72
245.634	21.54
245.852	28.4
246.07	32.61
246.288	38.98
246.506	37.58
246.724	26.13
246.942	14.56
247.16	24.97
247.378	14.89
247.596	17.03
247.814	24.04
248.032	22.36
248.25	21.23
248.468	41.14
248.685	38.52
248.903	32.61
249.121	46.39
249.339	25.96
249.557	7.79
249.775	13.67
249.992	20.62
250.21	-5.97
250.428	3.44
250.646	6.81
250.863	3.1
251.081	-3.34
251.299	14.06
251.517	27.36
251.734	28.63
251.952	23.32
252.17	29.77
252.387	21
252.605	21.16
252.823	18.16
253.04	23.59
253.258	32.66
253.475	44.66
253.693	47.25
253.911	44.84
254.128	45.06
254.346	34.62
254.563	22.57
254.781	19.36
254.998	21.92
255.216	33.78
255.433	33.72
255.651	34.42
255.868	35.81
256.086	36.89
256.303	39.32
256.521	47.4
256.738	47.14
256.956	35.99
257.173	26.6
257.39	21.84
257.608	0.14
257.825	5.93
258.043	-3.9
258.26	1.67
258.477	-9.59
258.695	-22.52
258.912	-23.53
259.129	4.32
259.346	16.89
259.564	19.55
259.781	23.34
259.998	43.48
260.216	29.84
260.433	30.94
260.65	42.13
260.867	34.33
261.084	13.72
261.302	25.75
261.519	7.69
261.736	3.85
261.953	18.48
262.17	18.53
262.387	24.66
262.604	25.86
262.822	23.23
263.039	13.89
263.256	13.15
263.473	7.46
263.69	10.41
263.907	5.49
264.124	18.11
264.341	17.74
264.558	11.71
264.775	21.46
264.992	21.19
265.209	14.36
265.426	23.78
265.643	35.39
265.86	28.27
266.077	46.32
266.294	47.76
266.51	43.25
266.727	37.99
266.944	25.59
267.161	22.07
267.378	11.71
267.595	15.37
267.812	8.38
268.028	11.16
268.245	8.69
268.462	14.3
268.679	10.65
268.896	3.52
269.112	29.9
269.329	24.63
269.546	36.68
269.763	51.33
269.979	57.19
270.196	52.64
270.413	51.48
270.629	38.62
270.846	22.13
271.063	37.54
271.279	32.42
271.496	24.29
271.712	31.35
271.929	29.75
272.146	17.98
272.362	21.33
272.579	26.72
272.795	18.9
273.012	11.43
273.228	26.1
273.445	19.75
273.661	18.35
273.878	18.15
274.094	23.58
274.311	13.29
274.527	5.98
274.744	-1.9
274.96	-3.51
275.177	-5.5
275.393	-25.43
275.609	-5.17
275.826	12.3
276.042	27.59
276.259	15.2
276.475	25.72
276.691	27.52
276.908	19.23
277.124	32.74
277.34	43.93
277.557	43.98
277.773	37.32
277.989	50.63
278.205	32.22
278.422	41.45
278.638	38.1
278.854	42.47
279.07	29.29
279.286	39.44
279.503	22.71
279.719	24.37
279.935	22.61
280.151	26
280.367	35.28
280.583	39.41
280.799	43.68
281.016	49.49
281.232	42.74
281.448	36.76
281.664	49.63
281.88	56.83
282.096	54.41
282.312	58.83
282.528	47.82
282.744	45.19
282.96	34.45
283.176	26.19
283.392	22.35
283.608	15.91
283.824	18.28
284.04	13.33
284.256	18.59
284.471	14.09
284.687	3.38
284.903	4.57
285.119	11.26
285.335	23.59
285.551	31.7
285.767	44.41
285.982	38.71
286.198	40.89
286.414	34.57
286.63	43.14
286.846	32.12
287.061	33.85
287.277	14.56
287.493	12.83
287.709	-0.41
287.924	16.41
288.14	18.95
288.356	32.96
288.571	25.47
288.787	20.88
289.003	28.7
289.218	29.2
289.434	22.63
289.65	28.71
289.865	14.22
290.081	9.72
290.296	0.7
290.512	-4.41
290.727	-8.05
290.943	7.62
291.159	-3.25
291.374	13.23
291.59	7.02
291.805	15.36
292.021	18.83
292.236	18.22
292.451	9.21
292.667	33.58
292.882	37.56
293.098	39.58
293.313	48.96
293.529	55.57
293.744	42.6
293.959	37.14
294.175	37.26
294.39	42.03
294.605	40.07
294.821	40.05
295.036	48.84
295.251	54.11
295.467	49.01
295.682	41.67
295.897	39.33
296.112	29.94
296.328	9.63
296.543	0.16
296.758	-3.87
296.973	7.33
297.188	1.77
297.404	12.43
297.619	19.92
297.834	27.38
298.049	30.72
298.264	40.55
298.479	39.63
298.694	39.28
298.909	50.5
299.125	50.91
299.34	33.71
299.555	40.65
299.77	39.89
299.985	18.24
300.2	13.62
300.415	22.06
300.63	32.85
300.845	25.59
301.06	24.63
301.275	13.4
301.49	17.79
301.704	10.29
301.919	19.69
302.134	31.08
302.349	32.73
302.564	33.23
302.779	28.4
302.994	24.28
303.209	34.11
303.423	61.56
303.638	64.81
303.853	74.27
304.068	80.83
304.283	57.35
304.497	39.87
304.712	35.52
304.927	27.09
305.142	21.19
305.356	21.45
305.571	8.25
305.786	6.61
306	9.96
306.215	7.49
306.43	25.46
306.644	40.61
306.859	49.69
307.074	45.5
307.288	52.64
307.503	38.97
307.717	44.11
307.932	32
308.147	27.43
308.361	24.17
308.576	23.88
308.79	15.55
309.005	10.1
309.219	10.98
309.434	14.18
309.648	19.54
309.863	16.07
310.077	17.42
310.292	22.58
310.506	24.02
310.72	33.01
310.935	42.08
311.149	64.02
311.364	47.68
311.578	46.89
311.792	35.03
312.007	34.23
312.221	35.48
312.435	40.51
312.649	34.06
312.864	36.31
313.078	43.15
313.292	28.17
313.507	22.8
313.721	4.66
313.935	13.37
314.149	8.64
314.363	15.84
314.578	14.53
314.792	14.17
315.006	24.22
315.22	33.74
315.434	34.41
315.648	33.39
315.862	30.16
316.077	27.32
316.291	26.73
316.505	21.48
316.719	9.19
316.933	29.73
317.147	23.44
317.361	5.44
317.575	0.19
317.789	19.93
318.003	4.83
318.217	3.35
318.431	10.98
318.645	12.84
318.859	-5.1
319.073	7.05
319.287	-0.82
319.5	-2.13
319.714	11.54
319.928	25.5
320.142	24.31
320.356	29.45
320.57	29.96
320.784	21.87
320.997	16.7
321.211	6.4
321.425	6.48
321.639	-9.43
321.853	13.05
322.066	24.2
322.28	23.37
322.494	28.21
322.707	38.61
322.921	18.54
323.135	9.77
323.349	17.42
323.562	21
323.776	21.85
323.989	29.2
324.203	40.3
324.417	33.83
324.63	22.1
324.844	20.22
325.057	24.11
325.271	17.4
325.485	19.2
325.698	29.99
325.912	42.6
326.125	32.68
326.339	32.11
326.552	42.24
326.766	27.82
326.979	14.25
327.193	26.08
327.406	35.93
327.619	26.08
327.833	45.55
328.046	42.26
328.26	39.9
328.473	35.44
328.686	39.84
328.9	24.18
329.113	30.49
329.326	19.51
329.54	17.8
329.753	27.37
329.966	42.84
330.179	40.55
330.393	50.36
330.606	55.3
330.819	48.84
331.032	34.23
331.246	25.03
331.459	26.49
331.672	15.01
331.885	14.09
332.098	14.53
332.311	18.77
332.525	-7.79
332.738	10.75
332.951	21.32
333.164	29.13
333.377	27.45
333.59	38.91
333.803	48.38
334.016	43.86
334.229	34.8
334.442	38.43
334.655	39.24
334.868	31.25
335.081	25.79
335.294	28.28
335.507	18.86
335.72	12.78
335.933	11.26
336.146	20.67
336.359	24.76
336.572	22.81
336.785	22.67
336.997	26.81
337.21	18.69
337.423	13.88
337.636	18.32
337.849	23.35
338.062	18.25
338.274	33.9
338.487	30.3
338.7	31.82
338.913	23.15
339.125	24.97
339.338	-1.49
339.551	-14.65
339.763	-6.15
339.976	2
340.189	-2.96
340.402	32.68
340.614	46.64
340.827	47.79
341.039	56.64
341.252	57.71
341.465	55.01
341.677	48.02
341.89	38.33
342.102	36.45
342.315	46.76
342.527	33.82
342.74	33.22
342.952	36.75
343.165	22.34
343.377	15.73
343.59	7.23
343.802	11.36
344.015	19.56
344.227	22.69
344.44	27.04
344.652	35.36
344.864	29.73
345.077	6.58
345.289	30.35
345.502	33.86
345.714	30.64
345.926	19.17
346.139	39.84
346.351	24.71
346.563	13.25
346.775	29.23
346.988	39.17
347.2	34.18
347.412	34.71
347.624	38.47
347.837	27.6
348.049	21.45
348.261	15.22
348.473	12.36
348.685	12.02
348.897	10.37
349.11	9.78
349.322	13.04
349.534	18.87
349.746	14.76
349.958	14.07
350.17	18.11
350.382	16.7
350.594	16.21
350.806	13.69
351.018	15.39
351.23	14.16
351.442	13.22
351.654	4.81
351.866	7.5
352.078	30.29
352.29	26.8
352.502	32.12
352.714	38.03
352.926	34.33
353.138	22.97
353.35	21.45
353.561	16.18
353.773	12.28
353.985	4.42
354.197	4.8
354.409	2.77
354.621	2.83
354.832	9.59
355.044	19.8
355.256	12.73
355.468	0.98
355.679	-3.48
355.891	-3.45
356.103	5.43
356.314	-1.17
356.526	25.44
356.738	28.14
356.949	26.77
357.161	24.78
357.373	35.78
357.584	25.19
357.796	27.35
358.008	17.64
358.219	12.23
358.431	6.28
358.642	17.99
358.854	6.3
359.065	11.46
359.277	1.02
359.488	-1.55
359.7	-8.08
359.911	2.15
360.123	4.88
360.334	14.36
360.546	15.43
360.757	17.3
360.969	17.33
361.18	20.6
361.391	27.58
361.603	27.35
361.814	25.18
362.025	16.64
362.237	13.05
362.448	-0.85
362.659	-2.25
362.871	0.32
363.082	-0.6
363.293	0.11
363.504	-4.58
363.716	-0.55
363.927	-15.17
364.138	-1.02
364.349	-3.11
364.56	1.3
364.772	8.79
364.983	20.47
365.194	20.7
365.405	20.19
365.616	29.86
365.827	25.91
366.038	26.65
366.25	35.47
366.461	46.74
366.672	48.86
366.883	46.58
367.094	50.68
367.305	31.3
367.516	27.35
367.727	19.93
367.938	27.52
368.149	15.8
368.36	19.68
368.571	20.07
368.781	16.52
368.992	8.89
369.203	3.8
369.414	-15.62
369.625	-24.06
369.836	-13.13
370.047	-11.42
370.258	8.25
370.468	29.65
370.679	33.21
370.89	32.78
371.101	27.9
371.312	18.56
371.522	18.52
371.733	17.97
371.944	15.45
372.155	32.79
372.365	39.97
372.576	32.69
372.787	29.06
372.997	29
373.208	12.25
373.419	7.86
373.629	5.6
373.84	8.57
374.05	15.51
374.261	20.55
374.472	21.21
374.682	23.45
374.893	30.02
375.103	25.23
375.314	24.82
375.524	29.93
375.735	33.68
375.945	31.1
376.156	26.99
376.366	17.41
376.577	6.18
376.787	12.8
376.997	16.17
377.208	20.22
377.418	14.57
377.629	11.61
377.839	0.3
378.049	-6.69
378.26	-15.76
378.47	-6.12
378.68	9.76
378.89	14.18
379.101	15.93
379.311	23.91
379.521	32.3
379.732	26.32
379.942	16.84
380.152	18.65
380.362	15.26
380.572	1.37
380.783	7.1
380.993	26.02
381.203	21.64
381.413	23.43
381.623	23.36
381.833	21.49
382.043	12.94
382.253	10.11
382.463	11.45
382.674	14.68
382.884	14.36
383.094	23.52
383.304	29.33
383.514	29.5
383.724	34.97
383.934	37.94
384.144	29.41
384.353	25.43
384.563	14.67
384.773	10.3
384.983	14.95
385.193	16.33
385.403	11.89
385.613	16.15
385.823	11.09
386.033	4.94
386.242	3.45
386.452	9.88
386.662	4.93
386.872	10.24
387.082	6.5
387.291	5.03
387.501	6.66
387.711	10.91
387.921	10.6
388.13	12.7
388.34	16.62
388.55	17.1
388.759	16.35
388.969	11.3
389.179	13.17
389.388	11.28
389.598	7.74
389.807	9.94
390.017	11.72
390.227	8.12
390.436	6.48
390.646	9.14
390.855	7.9
391.065	10.24
391.274	8.91
391.484	10.72
391.693	5.71
391.903	5.1
392.112	4.03
392.322	5.54
392.531	5.7
392.74	9.41
392.95	10.27
393.159	9.12
393.369	9.44
393.578	8.31
393.787	6.36
393.997	5.39
394.206	6.13
394.415	6.52
394.625	7.8
394.834	7.65
395.043	6.86
395.252	5.77
395.462	5.12
395.671	3.11
395.88	3.18
396.089	3.24
396.298	3.26
396.508	4.07
396.717	5.01
396.926	5.22
397.135	4.51
397.344	4.84
397.553	4.45
397.762	3.85
397.971	3.18
398.181	3.89
398.39	3.84
398.599	3.5
398.808	3.37
399.017	3.89
399.226	4.16
399.435	4.1
399.644	3.91
399.853	4.04
400.062	3.87
400.27	3.36
400.479	2.92
400.688	3.26
400.897	3
401.106	3.09
401.315	3.24
401.524	3.62
401.733	3.47
401.941	3.86
402.15	3.72
402.359	3.66
402.568	3.93
402.777	3.67
402.985	3.73
403.194	3.74
403.403	3.9
403.612	3.55
403.82	3.46
404.029	3.11
404.238	3.16
404.446	3.04
404.655	3.02
404.864	3.07
405.072	3.27
405.281	3.34
405.489	3.39
405.698	3.24
405.906	3.19
406.115	3.01
406.324	2.68
406.532	2.53
406.741	2.54
406.949	2.56
407.158	2.58
407.366	2.68
407.574	2.77
407.783	2.71
407.991	2.69
408.2	2.85
408.408	2.93
408.617	2.85
408.825	2.98
409.033	2.94
409.242	2.66
409.45	2.6
409.658	2.45
409.867	2.35
410.075	2.36
410.283	2.41
410.491	2.32
410.7	2.31
410.908	2.42
411.116	2.47
411.324	2.48
411.533	2.44
411.741	2.54
411.949	2.53
412.157	2.49
412.365	2.54
412.573	2.69
412.781	2.65
412.99	2.63
413.198	2.75
413.406	2.6
413.614	2.42
413.822	2.4
414.03	2.45
414.238	2.3
414.446	2.26
414.654	2.31
414.862	2.36
415.07	2.27
415.278	2.23
415.486	2.36
415.694	2.37
415.902	2.41
416.109	2.28
416.317	2.31
416.525	2.3
416.733	2.5
416.941	2.45
417.149	2.62
417.357	2.69
417.564	2.57
417.772	2.39
417.98	2.31
418.188	2.2
418.395	2.29
418.603	2.34
418.811	2.39
419.019	2.48
419.226	2.66
419.434	2.54
419.642	2.6
419.849	2.53
420.057	2.43
420.265	2.27
420.472	2.08
420.68	2.03
420.887	2.11
421.095	2.19
421.302	2.17
421.51	2.41
421.717	2.41
421.925	2.3
422.132	2.31
422.34	2.34
422.547	2.27
422.755	2.17
422.962	2.24
423.17	2.15
423.377	2.13
423.585	2.13
423.792	2.09
423.999	2.03
424.207	2.02
424.414	2.09
424.621	1.97
424.829	2.07
425.036	2.04
425.243	2.1
425.451	2.06
425.658	2.14
425.865	2.23
426.072	2.18
426.28	2.16
426.487	2.11
426.694	2.14
426.901	2
427.108	2.14
427.315	2.02
427.523	2.14
427.73	2.15
427.937	2.21
428.144	2.18
428.351	2.34
428.558	2.3
428.765	2.25
428.972	2.23
429.179	2.2
429.386	2.18
429.593	2.1
429.8	2.11
430.007	2.09
430.214	2.2
430.421	2.28
430.628	2.19
430.835	2.21
431.042	2.26
431.249	2.25
431.456	2.19
431.662	2.22
431.869	2.35
432.076	2.42
432.283	2.25
432.49	2.25
432.697	2.24
432.903	2.15
433.11	2.04
433.317	2.08
433.524	2.09
433.73	2.19
433.937	2.11
434.144	2.15
434.35	2.3
434.557	2.24
434.764	2.22
434.97	2.33
435.177	2.35
435.384	2.3
435.59	2.35
435.797	2.41
436.003	2.37
436.21	2.34
436.416	2.41
436.623	2.43
436.829	2.5
437.036	2.53
437.242	2.48
437.449	2.44
437.655	2.46
437.862	2.34
438.068	2.32
438.275	2.38
438.481	2.36
438.687	2.35
438.894	2.46
439.1	2.53
439.307	2.68
439.513	2.75
439.719	2.72
439.926	2.7
440.132	2.68
440.338	2.7
440.544	2.68
440.751	2.72
440.957	2.72
441.163	2.69
441.369	2.66
441.575	2.57
441.782	2.57
441.988	2.63
442.194	2.65
442.4	2.61
442.606	2.7
442.812	2.71
443.018	2.64
443.224	2.67
443.431	2.71
443.637	2.65
443.843	2.62
444.049	2.64
444.255	2.62
444.461	2.61
444.667	2.68
444.873	2.8
445.079	2.79
445.284	2.85
445.49	2.77
445.696	2.71
445.902	2.68
446.108	2.69
446.314	2.62
446.52	2.76
446.726	2.8
446.931	2.79
447.137	2.84
447.343	2.91
447.549	2.79
447.755	2.8
447.96	2.79
448.166	2.74
448.372	2.69
448.578	2.75
448.783	2.73
448.989	2.72
449.195	2.7
449.4	2.75
449.606	2.75
449.812	2.79
450.017	2.88
450.223	2.92
450.428	2.95
450.634	2.98
450.84	3.04
451.045	2.95
451.251	2.99
451.456	2.98
451.662	2.93
451.867	2.88
452.073	2.85
452.278	2.9
452.483	2.87
452.689	2.92
452.894	2.87
453.1	2.92
453.305	2.9
453.51	2.94
453.716	2.93
453.921	3.05
454.127	2.98
454.332	2.94
454.537	2.88
454.742	2.85
454.948	2.8
455.153	2.88
455.358	2.86
455.563	2.89
455.769	2.98
455.974	3
456.179	3.02
456.384	2.98
456.589	3
456.795	2.88
457	2.93
457.205	2.94
457.41	2.99
457.615	2.9
457.82	2.91
458.025	2.86
458.23	2.73
458.435	2.78
458.64	2.82
458.845	2.82
459.05	2.84
459.255	2.98
459.46	2.89
459.665	2.88
459.87	2.94
460.075	2.98
460.28	2.93
460.485	2.98
460.69	3.07
460.895	3.1
461.099	3.03
461.304	3.12
461.509	3.16
461.714	3.18
461.919	3.15
462.123	3.15
462.328	3.17
462.533	3.18
462.738	3.19
462.942	3.16
463.147	3.22
463.352	3.17
463.556	3.21
463.761	3.1
463.966	3.13
464.17	3.12
464.375	3.18
464.58	3.21
464.784	3.27
464.989	3.32
465.193	3.3
465.398	3.17
465.602	3.22
465.807	3.27
466.011	3.32
466.216	3.32
466.42	3.33
466.625	3.27
466.829	3.28
467.034	3.24
467.238	3.36
467.443	3.38
467.647	3.34
467.851	3.39
468.056	3.36
468.26	3.35
468.464	3.46
468.669	3.47
468.873	3.49
469.077	3.47
469.282	3.46
469.486	3.42
469.69	3.51
469.894	3.49
470.099	3.61
470.303	3.61
470.507	3.69
470.711	3.69
470.915	3.7
471.119	3.65
471.324	3.65
471.528	3.67
471.732	3.67
471.936	3.64
472.14	3.67
472.344	3.61
472.548	3.64
472.752	3.59
472.956	3.66
473.16	3.72
473.364	3.68
473.568	3.62
473.772	3.73
473.976	3.7
474.18	3.77
474.384	3.83
474.588	3.82
474.792	3.76
474.995	3.79
475.199	3.71
475.403	3.81
475.607	3.82
475.811	3.88
476.015	3.91
476.218	3.92
476.422	3.9
476.626	3.99
476.83	3.98
477.033	3.92
477.237	3.94
477.441	3.94
477.644	3.87
477.848	3.87
478.052	3.93
478.255	3.91
478.459	3.89
478.663	3.97
478.866	4.01
479.07	4.1
479.273	4.1
479.477	4.19
479.681	4.21
479.884	4.18
480.088	4.11
480.291	4.17
480.495	4.13
480.698	4.14
480.901	4.15
481.105	4.2
481.308	4.15
481.512	4.18
481.715	4.2
481.919	4.25
482.122	4.28
482.325	4.31
482.529	4.39
482.732	4.35
482.935	4.36
483.138	4.33
483.342	4.4
483.545	4.37
483.748	4.43
483.952	4.41
484.155	4.42
484.358	4.43
484.561	4.4
484.764	4.3
484.967	4.3
485.171	4.35
485.374	4.3
485.577	4.31
485.78	4.4
485.983	4.49
486.186	4.47
486.389	4.52
486.592	4.53
486.795	4.55
486.998	4.47
487.201	4.49
487.404	4.44
487.607	4.45
487.81	4.48
488.013	4.53
488.216	4.53
488.419	4.53
488.622	4.51
488.825	4.49
489.028	4.48
489.231	4.52
489.433	4.58
489.636	4.63
489.839	4.64
490.042	4.66
490.245	4.61
490.447	4.6
490.65	4.59
490.853	4.64
491.056	4.6
491.258	4.6
491.461	4.63
491.664	4.58
491.866	4.47
492.069	4.5
492.272	4.48
492.474	4.45
492.677	4.5
492.879	4.58
493.082	4.58
493.285	4.64
493.487	4.66
493.69	4.68
493.892	4.61
494.095	4.6
494.297	4.59
494.5	4.63
494.702	4.6
494.905	4.67
495.107	4.66
495.309	4.69
495.512	4.66
495.714	4.72
495.917	4.72
496.119	4.76
496.321	4.8
496.524	4.89
496.726	4.82
496.928	4.87
497.13	4.92
497.333	4.94
497.535	4.94
497.737	5.02
497.939	5.01
498.142	4.99
498.344	4.94
498.546	4.9
498.748	4.97
498.95	4.96
499.152	5.04
499.355	5
499.557	5.01
499.759	5.01
499.961	5.06
500.163	5.03
500.365	5.13
500.567	5.18
500.769	5.15
500.971	5.09
501.173	5.09
501.375	5.12
501.577	5.13
501.779	5.21
501.981	5.26
502.183	5.29
502.385	5.25
502.587	5.29
502.788	5.29
502.99	5.33
503.192	5.4
503.394	5.48
503.596	5.47
503.798	5.48
503.999	5.5
504.201	5.54
504.403	5.51
504.605	5.57
504.806	5.61
505.008	5.62
505.21	5.55
505.411	5.59
505.613	5.64
505.815	5.7
506.016	5.76
506.218	5.83
506.42	5.83
506.621	5.78
506.823	5.77
507.024	5.75
507.226	5.72
507.427	5.78
507.629	5.85
507.83	5.91
508.032	5.99
508.233	6.08
508.435	6.1
508.636	6.08
508.838	6.03
509.039	5.99
509.24	6.05
509.442	6.04
509.643	6.09
509.845	6.16
510.046	6.18
510.247	6.21
510.448	6.28
510.65	6.3
510.851	6.3
511.052	6.32
511.254	6.29
511.455	6.3
511.656	6.31
511.857	6.36
512.058	6.4
512.26	6.4
512.461	6.41
512.662	6.46
512.863	6.49
513.064	6.52
513.265	6.56
513.466	6.7
513.667	6.66
513.868	6.62
514.069	6.69
514.27	6.68
514.471	6.61
514.672	6.72
514.873	6.78
515.074	6.79
515.275	6.85
515.476	6.86
515.677	6.82
515.878	6.86
516.079	6.87
516.28	6.94
516.481	6.97
516.682	7
516.882	7
517.083	7.03
517.284	6.98
517.485	7
517.686	6.99
517.886	6.98
518.087	7.01
518.288	7.07
518.488	7.07
518.689	7.08
518.89	7.09
519.091	7
519.291	7
519.492	7.02
519.692	7.1
519.893	7.17
520.094	7.24
520.294	7.25
520.495	7.3
520.695	7.35
520.896	7.34
521.096	7.4
521.297	7.44
521.497	7.46
521.698	7.46
521.898	7.44
522.099	7.43
522.299	7.42
522.499	7.42
522.7	7.46
522.9	7.52
523.101	7.54
523.301	7.58
523.501	7.63
523.702	7.63
523.902	7.61
524.102	7.68
524.302	7.69
524.503	7.64
524.703	7.68
524.903	7.75
525.103	7.7
525.304	7.74
525.504	7.78
525.704	7.78
525.904	7.78
526.104	7.85
526.304	7.87
526.504	7.93
526.705	7.97
526.905	8
527.105	7.99
527.305	8.05
527.505	8.06
527.705	8.07
527.905	8.07
528.105	8.12
528.305	8.13
528.505	8.13
528.705	8.16
528.905	8.2
529.105	8.2
529.304	8.21
529.504	8.35
529.704	8.37
529.904	8.43
530.104	8.45
530.304	8.46
530.503	8.33
530.703	8.29
530.903	8.3
531.103	8.35
531.303	8.41
531.502	8.49
531.702	8.56
531.902	8.57
532.101	8.56
532.301	8.56
532.501	8.64
532.7	8.67
532.9	8.7
533.1	8.79
533.299	8.84
533.499	8.82
533.698	8.84
533.898	8.91
534.097	8.89
534.297	8.9
534.496	8.91
534.696	9
534.895	9
535.095	9.09
535.294	9.17
535.494	9.23
535.693	9.19
535.892	9.21
536.092	9.24
536.291	9.23
536.491	9.24
536.69	9.33
536.889	9.41
537.088	9.38
537.288	9.42
537.487	9.49
537.686	9.43
537.886	9.45
538.085	9.46
538.284	9.49
538.483	9.49
538.682	9.6
538.882	9.62
539.081	9.7
539.28	9.74
539.479	9.78
539.678	9.77
539.877	9.87
540.076	9.83
540.275	9.88
540.474	9.94
540.673	9.99
540.872	9.94
541.071	10.08
541.27	10.12
541.469	10.13
541.668	10.23
541.867	10.35
542.066	10.33
542.265	10.4
542.464	10.48
542.663	10.48
542.862	10.49
543.06	10.58
543.259	10.64
543.458	10.69
543.657	10.76
543.856	10.87
544.054	10.94
544.253	10.97
544.452	11.02
544.651	11.09
544.849	11.12
545.048	11.17
545.247	11.26
545.445	11.3
545.644	11.33
545.843	11.35
546.041	11.41
546.24	11.39
546.438	11.44
546.637	11.53
546.836	11.63
547.034	11.68
547.233	11.82
547.431	11.91
547.63	11.96
547.828	12.06
548.027	12.1
548.225	12.15
548.423	12.16
548.622	12.25
548.82	12.29
549.019	12.37
549.217	12.46
549.415	12.55
549.614	12.61
549.812	12.65
550.01	12.76
550.209	12.8
550.407	12.93
550.605	12.98
550.803	13.1
551.002	13.13
551.2	13.15
551.398	13.25
551.596	13.4
551.794	13.48
551.993	13.63
552.191	13.82
552.389	13.94
552.587	14.01
552.785	14.13
552.983	14.25
553.181	14.33
553.379	14.45
553.577	14.52
553.775	14.61
553.973	14.68
554.171	14.84
554.369	14.91
554.567	15.04
554.765	15.11
554.963	15.22
555.161	15.28
555.359	15.4
555.557	15.45
555.755	15.59
555.952	15.78
556.15	15.9
556.348	15.99
556.546	16.19
556.744	16.32
556.941	16.31
557.139	16.49
557.337	16.59
557.535	16.71
557.732	16.82
557.93	16.96
558.128	17.03
558.325	17.15
558.523	17.26
558.721	17.38
558.918	17.47
559.116	17.57
559.313	17.7
559.511	17.83
559.708	17.88
559.906	18.07
560.104	18.17
560.301	18.35
560.498	18.37
560.696	18.56
560.893	18.64
561.091	18.75
561.288	18.79
561.486	18.91
561.683	18.95
561.88	19.12
562.078	19.25
562.275	19.38
562.473	19.51
562.67	19.7
562.867	19.79
563.064	19.92
563.262	20.02
563.459	20.19
563.656	20.34
563.853	20.45
564.051	20.54
564.248	20.62
564.445	20.77
564.642	20.93
564.839	21.16
565.036	21.33
565.234	21.55
565.431	21.59
565.628	21.61
565.825	21.66
566.022	21.77
566.219	21.79
566.416	21.92
566.613	22.06
566.81	22.17
567.007	22.28
567.204	22.39
567.401	22.54
567.598	22.54
567.795	22.58
567.991	22.64
568.188	22.72
568.385	22.76
568.582	22.9
568.779	23.02
568.976	23.1
569.172	23.29
569.369	23.4
569.566	23.43
569.763	23.48
569.96	23.54
570.156	23.49
570.353	23.61
570.55	23.76
570.746	23.77
570.943	23.85
571.14	24.03
571.336	24.07
571.533	24.2
571.729	24.42
571.926	24.43
572.123	24.51
572.319	24.49
572.516	24.5
572.712	24.39
572.909	24.46
573.105	24.44
573.302	24.44
573.498	24.43
573.695	24.56
573.891	24.61
574.087	24.62
574.284	24.73
574.48	24.8
574.677	24.77
574.873	24.8
575.069	24.82
575.266	24.83
575.462	24.83
575.658	24.87
575.854	24.98
576.051	25.11
576.247	25.15
576.443	25.22
576.639	25.19
576.835	25.1
577.032	24.98
577.228	25.04
577.424	25.07
577.62	25.02
577.816	25.05
578.012	25.11
578.208	25.1
578.404	25.03
578.6	25.1
578.796	25
578.993	25.03
579.189	24.93
579.384	24.86
579.58	24.89
579.776	25
579.972	24.87
580.168	24.88
580.364	24.93
580.56	24.94
580.756	24.79
580.952	24.86
581.148	24.85
581.343	24.87
581.539	24.85
581.735	24.92
581.931	24.88
582.127	24.9
582.322	24.87
582.518	24.85
582.714	24.87
582.909	24.89
583.105	24.9
583.301	24.87
583.496	24.8
583.692	24.75
583.888	24.74
584.083	24.69
584.279	24.63
584.474	24.58
584.67	24.55
584.866	24.58
585.061	24.53
585.257	24.56
585.452	24.71
585.648	24.77
585.843	24.73
586.039	24.75
586.234	24.75
586.429	24.63
586.625	24.71
586.82	24.73
587.015	24.73
587.211	24.66
587.406	24.7
587.601	24.58
587.797	24.62
587.992	24.66
588.187	24.74
588.383	24.76
588.578	24.82
588.773	24.8
588.968	24.77
589.163	24.7
589.359	24.69
589.554	24.67
589.749	24.67
589.944	24.73
590.139	24.94
590.334	24.98
590.529	25.01
590.724	25.06
590.919	25.21
591.114	25.21
591.309	25.29
591.504	25.34
591.699	25.4
591.894	25.27
592.089	25.18
592.284	25.25
592.479	25.32
592.674	25.35
592.869	25.46
593.064	25.59
593.259	25.65
593.454	25.7
593.648	25.69
593.843	25.75
594.038	25.86
594.233	25.94
594.428	26.04
594.622	26.25
594.817	26.43
595.012	26.53
595.206	26.55
595.401	26.67
595.596	26.68
595.79	26.74
595.985	26.78
596.18	26.88
596.374	26.9
596.569	27.03
596.763	27
596.958	27.17
597.153	27.26
597.347	27.34
597.542	27.36
597.736	27.53
597.931	27.54
598.125	27.63
598.319	27.73
598.514	27.85
598.708	27.9
598.903	27.99
599.097	28.06
599.291	28.03
599.486	28.11
599.68	28.21
599.874	28.29
600.069	28.31
600.263	28.55
600.457	28.58
600.651	28.61
600.846	28.63
601.04	28.66
601.234	28.61
601.428	28.65
601.622	28.81
601.817	28.86
602.011	28.99
602.205	29.08
602.399	29.07
602.593	29.03
602.787	29.01
602.981	28.85
603.175	28.87
603.369	28.94
603.563	28.96
603.757	29.04
603.951	29.15
604.145	29.11
604.339	29.08
604.533	28.98
604.727	28.92
604.921	28.88
605.115	28.82
605.309	28.89
605.502	28.86
605.696	28.83
605.89	28.77
606.084	28.71
606.278	28.57
606.471	28.57
606.665	28.49
606.859	28.49
607.053	28.46
607.246	28.43
607.44	28.38
607.634	28.36
607.827	28.22
608.021	28.14
608.214	28.13
608.408	28.03
608.602	27.93
608.795	27.93
608.989	27.96
609.182	27.73
609.376	27.55
609.569	27.52
609.763	27.44
609.956	27.33
610.15	27.28
610.343	27.34
610.537	27.3
610.73	27.25
610.923	27.16
611.117	27.06
611.31	26.96
611.504	26.82
611.697	26.69
611.89	26.63
612.083	26.64
612.277	26.5
612.47	26.38
612.663	26.41
612.856	26.32
613.05	26.28
613.243	26.25
613.436	26.21
613.629	26.05
613.822	25.87
614.015	25.75
614.209	25.68
614.402	25.53
614.595	25.45
614.788	25.46
614.981	25.36
615.174	25.35
615.367	25.42
615.56	25.34
615.753	25.25
615.946	25.12
616.139	24.98
616.332	24.8
616.525	24.73
616.718	24.58
616.911	24.6
617.103	24.47
617.296	24.42
617.489	24.25
617.682	24.3
617.875	24.22
618.067	24.17
618.26	24.22
618.453	24.34
618.646	24.23
618.838	24.2
619.031	24.19
619.224	24.08
619.417	24.03
619.609	24.06
619.802	23.97
619.994	23.92
620.187	23.81
620.38	23.71
620.572	23.66
620.765	23.65
620.957	23.62
621.15	23.62
621.342	23.54
621.535	23.38
621.727	23.34
621.92	23.29
622.112	23.28
622.305	23.3
622.497	23.4
622.69	23.37
622.882	23.37
623.074	23.34
623.267	23.35
623.459	23.36
623.651	23.3
623.844	23.32
624.036	23.27
624.228	23.2
624.42	23.16
624.613	23.17
624.805	23.06
624.997	22.97
625.189	22.97
625.381	22.96
625.574	22.91
625.766	22.87
625.958	22.83
626.15	22.79
626.342	22.7
626.534	22.66
626.726	22.66
626.918	22.69
627.11	22.61
627.302	22.56
627.494	22.5
627.686	22.51
627.878	22.52
628.07	22.49
628.262	22.48
628.454	22.47
628.646	22.45
628.838	22.39
629.029	22.32
629.221	22.28
629.413	22.18
629.605	22.05
629.797	22.01
629.989	22.06
630.18	22
630.372	21.96
630.564	21.93
630.755	21.9
630.947	21.76
631.139	21.68
631.33	21.6
631.522	21.62
631.714	21.66
631.905	21.71
632.097	21.77
632.289	21.82
632.48	21.8
632.672	21.68
632.863	21.62
633.055	21.59
633.246	21.47
633.438	21.48
633.629	21.53
633.821	21.5
634.012	21.48
634.203	21.55
634.395	21.44
634.586	21.4
634.777	21.35
634.969	21.33
635.16	21.34
635.351	21.34
635.543	21.29
635.734	21.37
635.925	21.29
636.117	21.36
636.308	21.42
636.499	21.48
636.69	21.38
636.881	21.43
637.073	21.4
637.264	21.33
637.455	21.26
637.646	21.31
637.837	21.22
638.028	21.11
638.219	21.14
638.41	21.11
638.601	21.08
638.792	21.13
638.983	21.21
639.174	21.11
639.365	21.14
639.556	21.15
639.747	21.14
639.938	21.1
640.129	21.13
640.32	21.1
640.511	21.02
640.701	21.02
640.892	20.89
641.083	20.92
641.274	20.82
641.465	20.82
641.655	20.72
641.846	20.75
642.037	20.62
642.228	20.63
642.418	20.6
642.609	20.72
642.8	20.69
642.99	20.68
643.181	20.66
643.372	20.57
643.562	20.49
643.753	20.38
643.943	20.36
644.134	20.25
644.324	20.29
644.515	20.25
644.705	20.33
644.896	20.29
645.086	20.33
645.277	20.23
645.467	20.12
645.658	20.05
645.848	19.98
646.038	19.94
646.229	19.92
646.419	19.97
646.61	20.08
646.8	20.08
646.99	20.16
647.18	20.16
647.371	20.09
647.561	19.92
647.751	19.91
647.941	19.8
648.132	19.77
648.322	19.62
648.512	19.57
648.702	19.45
648.892	19.38
649.082	19.38
649.272	19.42
649.462	19.37
649.653	19.4
649.843	19.41
650.033	19.3
650.223	19.28
650.413	19.25
650.603	19.29
650.793	19.26
650.983	19.26
651.172	19.19
651.362	19.05
651.552	18.96
651.742	18.88
651.932	18.8
652.122	18.76
652.312	18.78
652.502	18.63
652.691	18.51
652.881	18.35
653.071	18.31
653.261	18.16
653.45	18.04
653.64	17.96
653.83	17.95
654.019	17.78
654.209	17.74
654.399	17.67
654.588	17.56
654.778	17.42
654.968	17.22
655.157	17.01
655.347	16.8
655.536	16.52
655.726	16.32
655.915	16.29
656.105	16.18
656.294	15.98
656.484	15.87
656.673	15.85
656.863	15.62
657.052	15.49
657.241	15.37
657.431	15.2
657.62	14.94
657.809	14.64
657.999	14.36
658.188	14.15
658.377	13.97
658.567	13.74
658.756	13.59
658.945	13.47
659.134	13.26
659.324	13.05
659.513	12.85
659.702	12.65
659.891	12.38
660.08	12.21
660.269	12.09
660.458	11.82
660.648	11.77
660.837	11.65
661.026	11.5
661.215	11.3
661.404	11.19
661.593	10.84
661.782	10.62
661.971	10.41
662.16	10.24
662.349	10
662.538	9.95
662.726	9.8
662.915	9.75
663.104	9.59
663.293	9.51
663.482	9.34
663.671	9.14
663.86	8.87
664.048	8.76
664.237	8.58
664.426	8.43
664.615	8.37
664.803	8.23
664.992	8.04
665.181	7.98
665.369	7.96
665.558	7.9
665.747	7.83
665.935	7.77
666.124	7.66
666.312	7.53
666.501	7.34
666.69	7.26
666.878	7.12
667.067	7.09
667.255	6.96
667.444	6.94
667.632	6.8
667.82	6.74
668.009	6.62
668.197	6.54
668.386	6.53
668.574	6.51
668.762	6.49
668.951	6.52
669.139	6.5
669.327	6.39
669.516	6.41
669.704	6.4
669.892	6.41
670.08	6.39
670.269	6.39
670.457	6.32
670.645	6.28
670.833	6.2
671.021	6.25
671.21	6.23
671.398	6.32
671.586	6.26
671.774	6.28
671.962	6.26
672.15	6.43
672.338	6.41
672.526	6.43
672.714	6.4
672.902	6.44
673.09	6.27
673.278	6.29
673.466	6.36
673.654	6.42
673.842	6.33
674.03	6.42
674.218	6.44
674.405	6.4
674.593	6.36
674.781	6.48
674.969	6.54
675.157	6.65
675.344	6.77
675.532	6.83
675.72	6.85
675.908	6.92
676.095	6.87
676.283	6.87
676.471	6.94
676.658	6.99
676.846	6.94
677.033	6.97
677.221	6.99
677.409	6.99
677.596	7.05
677.784	7.12
677.971	7.18
678.159	7.29
678.346	7.39
678.534	7.48
678.721	7.64
678.909	7.76
679.096	7.87
679.283	8.03
679.471	8.14
679.658	8.18
679.846	8.3
680.033	8.39
680.22	8.4
680.408	8.57
680.595	8.69
680.782	8.78
680.969	8.99
681.157	9.13
681.344	9.16
681.531	9.35
681.718	9.37
681.905	9.46
682.093	9.58
682.28	9.74
682.467	9.86
682.654	10.18
682.841	10.37
683.028	10.61
683.215	10.83
683.402	10.97
683.589	11.21
683.776	11.32
683.963	11.52
684.15	11.85
684.337	12.09
684.524	12.36
684.711	12.7
684.898	13.01
685.085	13.2
685.271	13.55
685.458	13.98
685.645	14.3
685.832	14.56
686.019	14.93
686.205	15.19
686.392	15.32
686.579	15.67
686.766	16.11
686.952	16.45
687.139	16.91
687.326	17.34
687.512	17.93
687.699	18.5
687.886	19.1
688.072	19.65
688.259	20.32
688.445	20.63
688.632	21.11
688.818	21.54
689.005	21.95
689.191	22.34
689.378	23
689.564	23.5
689.751	24.06
689.937	24.83
690.124	25.48
690.31	26.14
690.496	26.82
690.683	27.51
690.869	28.14
691.055	28.78
691.242	29.31
691.428	29.89
691.614	30.71
691.8	31.3
691.987	31.92
692.173	32.62
692.359	33.54
692.545	34.16
692.731	35.02
692.918	35.82
693.104	36.62
693.29	37.2
693.476	37.84
693.662	38.47
693.848	39.3
694.034	39.99
694.22	40.63
694.406	41.51
694.592	42.28
694.778	42.85
694.964	43.74
695.15	44.86
695.336	45.59
695.522	46.28
695.708	47.17
695.894	47.65
696.08	48.22
696.265	48.55
696.451	49.23
696.637	49.83
696.823	50.68
697.009	51.12
697.194	52.06
697.38	52.59
697.566	53.13
697.751	53.59
697.937	54.24
698.123	54.57
698.308	55.63
698.494	56.13
698.68	56.75
698.865	57.25
699.051	57.97
699.236	58.18
699.422	58.99
699.607	59.52
699.793	60.28
699.978	60.9
700.164	61.6
700.349	62.15
700.535	62.82
700.72	63.31
700.906	63.84
701.091	64.23
701.276	64.57
701.462	64.93
701.647	65.22
701.832	65.46
702.018	66.07
702.203	66.66
702.388	67.04
702.573	67.55
702.759	68.08
702.944	68.12
703.129	68.53
703.314	69.04
703.499	69.71
703.684	70.32
703.87	70.74
704.055	71.14
704.24	71.39
704.425	71.2
704.61	71.62
704.795	72.11
704.98	72.56
705.165	73.13
705.35	73.73
705.535	74.09
705.72	74.2
705.905	74.21
706.09	74.25
706.275	74.85
706.459	74.78
706.644	75.01
706.829	75.2
707.014	75.63
707.199	75.57
707.384	75.75
707.568	76.16
707.753	76.75
707.938	76.84
708.123	77.11
708.307	77.24
708.492	77.57
708.677	77.42
708.861	77.63
709.046	77.7
709.231	78.2
709.415	78.56
709.6	78.81
709.784	79.33
709.969	79.58
710.153	79.67
710.338	79.73
710.522	79.95
710.707	79.97
710.891	80.37
711.076	80.61
711.26	80.87
711.445	80.82
711.629	80.62
711.813	80.43
711.998	80.77
712.182	80.53
712.366	80.63
712.551	81.17
712.735	81.63
712.919	81.44
713.103	81.86
713.288	82.18
713.472	81.97
713.656	82.03
713.84	82.25
714.024	82.33
714.208	82.46
714.393	82.41
714.577	82.37
714.761	82.28
714.945	82.2
715.129	82.64
715.313	82.58
715.497	82.51
715.681	82.75
715.865	82.85
716.049	82.82
716.233	83.09
716.417	82.97
716.601	82.92
716.785	83.21
716.968	83.24
717.152	83.65
717.336	84.43
717.52	84.83
717.704	84.8
717.888	84.76
718.071	84.48
718.255	84.23
718.439	83.92
718.622	83.9
718.806	84.08
718.99	84.45
719.174	84.59
719.357	85.11
719.541	85.42
719.724	85.65
719.908	85.36
720.092	85.11
720.275	84.96
720.459	85.04
720.642	84.64
720.826	84.9
721.009	85.31
721.193	85.27
721.376	84.63
721.559	84.73
721.743	84.54
721.926	84.16
722.11	84.08
722.293	84.95
722.476	85.06
722.66	85.49
722.843	85.68
723.026	85.64
723.21	85.12
723.393	85.11
723.576	85.67
723.759	86.16
723.942	86.7
724.126	87.01
724.309	86.93
724.492	86.98
724.675	86.99
724.858	86.71
725.041	86.45
725.224	86.86
725.407	86.39
725.59	85.71
725.774	85.89
725.957	85.93
726.14	86.09
726.322	86.15
726.505	87.16
726.688	87.24
726.871	87.35
727.054	87.23
727.237	87.36
727.42	87.29
727.603	87.28
727.786	87.71
727.968	87.69
728.151	87.57
728.334	87.46
728.517	87.85
728.699	87.74
728.882	88.14
729.065	87.86
729.248	88.33
729.43	87.7
729.613	88.01
729.796	88.1
729.978	88.81
730.161	88.19
730.343	88.34
730.526	88.32
730.708	87.4
730.891	87.08
731.073	87.27
731.256	87.59
731.438	88.11
731.621	89.1
731.803	89.26
731.986	89.14
732.168	89.35
732.35	88.83
732.533	88.63
732.715	88.76
732.898	89.25
733.08	88.91
733.262	88.85
733.444	89.54
733.627	89.55
733.809	89.25
733.991	89.39
734.173	89.61
734.355	88.38
734.538	88.3
734.72	88.39
734.902	88.6
735.084	88.64
735.266	88.82
735.448	89.52
735.63	88.73
735.812	89.14
735.994	89.09
736.176	89.48
736.358	89.37
736.54	90.58
736.722	90.57
736.904	90.33
737.086	90.08
737.268	89.92
737.45	89.79
737.632	89.67
737.814	89.64
737.995	89.7
738.177	89.83
738.359	89.3
738.541	88.88
738.723	89.14
738.904	89.89
739.086	90.26
739.268	90.97
739.449	90.8
739.631	90.7
739.813	90.32
739.994	89.63
740.176	89.1
740.358	89.87
740.539	90.19
740.721	90.28
740.902	90.5
741.084	91.36
741.265	90.86
741.447	90.01
741.628	89.04
741.81	88.66
741.991	88.23
742.172	87.97
742.354	88.31
742.535	89.94
742.717	90.24
742.898	90.51
743.079	91.48
743.261	92.06
743.442	91.32
743.623	91.34
743.804	90.87
743.986	90.55
744.167	90.53
744.348	91.04
744.529	90.31
744.71	90.44
744.891	90.28
745.073	90.99
745.254	90.63
745.435	90.87
745.616	90.76
745.797	90.82
745.978	90.3
746.159	89.58
746.34	90.37
746.521	90.65
746.702	89.87
746.883	89.41
747.064	89.89
747.245	89.94
747.426	89.56
747.606	90.66
747.787	91.05
747.968	91.08
748.149	91.25
748.33	91.66
748.51	91.28
748.691	90.74
748.872	90.62
749.053	90.41
749.233	90.31
749.414	89.93
749.595	90.8
749.775	90.62
749.956	89.57
750.137	89.19
750.317	89.97
750.498	89.69
750.678	89.52
750.859	90.36
751.04	91.17
751.22	91.04
751.4	90.9
751.581	91.92
751.761	92.86
751.942	92.79
752.122	92.85
752.303	92.66
752.483	93.16
752.663	92.32
752.844	92.59
753.024	92.66
753.204	93.31
753.385	92.64
753.565	91.79
753.745	91.49
753.925	91.73
754.106	91.56
754.286	91.54
754.466	92.3
754.646	91.63
754.826	90.9
755.006	89.96
755.187	89.32
755.367	89.24
755.547	89.53
755.727	89.26
755.907	89.37
756.087	88.57
756.267	88.45
756.447	89.24
756.627	89.88
756.807	89.4
756.987	91.49
757.167	91.58
757.346	91.61
757.526	90.18
757.706	91.92
757.886	90.85
758.066	91
758.246	90.55
758.425	91.23
758.605	89.85
758.785	89.38
758.965	89.06
759.144	89.05
759.324	89.98
759.504	90.77
759.683	91.69
759.863	92.74
760.043	92.4
760.222	91.33
760.402	90.06
760.581	89.3
760.761	88.89
760.94	88.73
761.12	88.7
761.299	89.64
761.479	90.07
761.658	88.45
761.838	88.51
762.017	88.39
762.197	86.73
762.376	86.5
762.555	86.62
762.735	86.39
762.914	86.89
763.093	88.56
763.273	87.83
763.452	88.19
763.631	88.14
763.81	88.1
763.99	88.75
764.169	88.84
764.348	88.3
764.527	87.84
764.706	87.5
764.885	86.55
765.064	86.36
765.243	87.46
765.423	88.16
765.602	89.2
765.781	89.53
765.96	90.42
766.139	90.08
766.318	90.38
766.497	88.28
766.676	88.69
766.854	88.25
767.033	88.74
767.212	88.39
767.391	90.01
767.57	88.86
767.749	88.71
767.928	87.9
768.106	87.22
768.285	85.92
768.464	86.23
768.643	86.36
768.821	86.2
769	87.54
769.179	88.57
769.357	88.77
769.536	88.97
769.715	89.37
769.893	89.74
770.072	89.39
770.25	87.49
770.429	88.09
770.607	88.67
770.786	85.92
770.964	87.28
771.143	90.44
771.321	89.71
771.5	90.58
771.678	91.63
771.857	90.54
772.035	87.35
772.213	87.38
772.392	85.37
772.57	86.36
772.748	86.68
772.927	89
773.105	89.61
773.283	89.79
773.461	90.03
773.64	89.6
773.818	89.96
773.996	90.35
774.174	90.58
774.352	88.02
774.531	87.73
774.709	86.45
774.887	85.09
775.065	84.83
775.243	85.12
775.421	85.67
775.599	86.77
775.777	87.18
775.955	86.95
776.133	87.96
776.311	88.27
776.489	86.75
776.667	87.28
776.844	89.98
777.022	89.38
777.2	89.79
777.378	89.72
777.556	88.78
777.734	85.12
777.911	85.34
778.089	84.73
778.267	86.3
778.445	87.14
778.622	88.87
778.8	89.34
778.978	87.97
779.155	88.48
779.333	87.49
779.511	85.74
779.688	87.14
779.866	87.86
780.043	86.03
780.221	86.54
780.398	87.13
780.576	86.21
780.753	84.71
780.931	85.39
781.108	84.93
781.286	84.92
781.463	83.98
781.64	82.8
781.818	81.79
781.995	80.17
782.172	80.24
782.35	79.3
782.527	80.56
782.704	80.07
782.882	82.59
783.059	82.7
783.236	85.65
783.413	87.14
783.59	89.14
783.768	88.57
783.945	85.69
784.122	83.2
784.299	83.73
784.476	80.83
784.653	81.7
784.83	86.2
785.007	84.17
785.184	82.48
785.361	84.34
785.538	82.72
785.715	81.89
785.892	83.96
786.069	83.99
786.246	84.44
786.423	83.98
786.6	84.58
786.776	84.86
786.953	84.5
787.13	82.95
787.307	82.29
787.484	81.96
787.66	82.2
787.837	82.69
788.014	84.33
788.191	83.25
788.367	82.13
788.544	82.84
788.721	82.41
788.897	81.1
789.074	82.45
789.25	80.96
789.427	79.21
789.603	82.14
789.78	82.72
789.956	81.41
790.133	83.49
790.309	84.81
790.486	83.26
790.662	84.97
790.839	87.63
791.015	85.61
791.192	81.04
791.368	79.11
791.544	77.33
791.721	77.96
791.897	77.78
792.073	80.28
792.249	83.27
792.426	83.46
792.602	84.44
792.778	84.08
792.954	88.81
793.13	84.6
793.307	84.79
793.483	83.63
793.659	88.28
793.835	85.63
794.011	86.41
794.187	85.5
794.363	82.42
794.539	82.44
794.715	83.69
794.891	85.32
795.067	84.29
795.243	88.11
795.419	83.34
795.595	84.18
795.771	85.68
795.947	87.68
796.122	86.89
796.298	87.28
796.474	83.47
796.65	80.21
796.826	79.62
797.001	77.66
797.177	77.87
797.353	77.17
797.529	78.74
797.704	81.39
797.88	86.08
798.056	86.53
798.231	87.58
798.407	89.91
798.582	86.23
798.758	83.32
798.934	88.33
799.109	87.89
799.285	90.43
799.46	90.75
799.636	90.98
799.811	86.38
799.986	84.11
800.162	77.12
800.337	82.11
800.513	76.29
800.688	75.55
800.863	77.25
801.039	79.27
801.214	72.38
801.389	78.72
801.565	79.19
801.74	78.41
801.915	77
802.09	82.01
802.265	78.98
802.441	78.22
802.616	80.55
802.791	83.78
802.966	81.56
803.141	80.24
803.316	80.58
803.491	84.36
803.666	78.82
803.841	73.47
804.016	76.79
804.191	79.9
804.366	76.67
804.541	79.9
804.716	85.32
804.891	84.6
805.066	81.09
805.241	78.48
805.416	77.56
805.591	72.71
805.765	73.66
805.94	74.83
806.115	77.6
806.29	84.46
806.464	86.57
806.639	79.9
806.814	83.24
806.989	79.87
807.163	73.96
807.338	79.52
807.512	80.41
807.687	77.22
807.862	81.64
808.036	78.96
808.211	73.65
808.385	78.45
808.56	83.37
808.734	82.54
808.909	83.15
809.083	84.7
809.258	81.64
809.432	76.61
809.606	67.47
809.781	69.2
809.955	69.11
810.13	73.35
810.304	67.33
810.478	75.1
810.652	77.78
810.827	78.51
811.001	73.14
811.175	84.38
811.349	81.35
811.524	79.39
811.698	76.75
811.872	79.94
812.046	80.92
812.22	83.11
812.394	80.02
812.568	93.14
812.742	91.86
812.916	82.97
813.09	80.59
813.264	83.79
813.438	73.81
813.612	76.96
813.786	77.42
813.96	86.18
814.134	88.38
814.308	88.76
814.482	79.58
814.656	82.28
814.83	74.91
815.003	71.84
815.177	75.38
815.351	81.56
815.525	76.44
815.698	80.08
815.872	83.79
816.046	76.38
816.219	69.6
816.393	81.52
816.567	75.42
816.74	73.27
816.914	83.07
817.088	90.6
817.261	77.41
817.435	75.49
817.608	72.89
817.782	63.89
817.955	60.05
818.129	70.11
818.302	84.57
818.475	87.7
818.649	91.75
818.822	90.67
818.996	95.89
819.169	89.09
819.342	87.44
819.516	87.43
819.689	87.44
819.862	68.65
820.035	58.98
820.209	61.95
820.382	61.45
820.555	67.66
820.728	71.14
820.901	76.07
821.075	78.23
821.248	76.84
821.421	74.54
821.594	69.72
821.767	69.5
821.94	66.14
822.113	71.98
822.286	78.51
822.459	84.19
822.632	88.35
822.805	85.22
822.978	68.66
823.151	59.95
823.324	67.92
823.496	61.1
823.669	58.95
823.842	67.86
824.015	68.55
824.188	62.02
824.361	58.48
824.533	63.94
824.706	77.2
824.879	72.78
825.051	76.97
825.224	83.84
825.397	83.26
825.569	66.92
825.742	72.44
825.915	75.57
826.087	75.43
826.26	87.42
826.432	85.44
826.605	81.08
826.777	78.96
826.95	77.95
827.122	64.39
827.295	59.99
827.467	63.93
827.64	61.33
827.812	65.77
827.984	72.2
828.157	83.23
828.329	73.25
828.501	74.83
828.674	72.01
828.846	74.73
829.018	72.17
829.19	68.15
829.363	66.5
829.535	66.43
829.707	64.26
829.879	59.77
830.051	65.65
830.223	63.8
830.395	68.75
830.568	61.55
830.74	63.27
830.912	76.41
831.084	74.55
831.256	59.47
831.428	50.49
831.6	53.97
831.772	50.94
831.943	58.38
832.115	63.61
832.287	79.24
832.459	73.04
832.631	70.26
832.803	68.56
832.975	66.83
833.146	58.44
833.318	55.34
833.49	60.8
833.662	57.79
833.833	61.7
834.005	59.05
834.177	71.86
834.348	71.23
834.52	68.37
834.692	61.75
834.863	65.16
835.035	61.68
835.206	54.37
835.378	50.53
835.549	53.8
835.721	59.51
835.892	62.31
836.064	70.74
836.235	75.21
836.407	88.27
836.578	82.81
836.749	73.68
836.921	48.77
837.092	45.31
837.264	38.48
837.435	40.08
837.606	60.95
837.777	97.85
837.949	102.32
838.12	77.71
838.291	78.99
838.462	53.01
838.633	40.39
838.805	46.24
838.976	59.89
839.147	59.36
839.318	63.25
839.489	70.27
839.66	56.92
839.831	63.75
840.002	59.52
840.173	63.96
840.344	57.4
840.515	69.89
840.686	57.33
840.857	69.15
841.028	63.77
841.199	59.05
841.369	68.25
841.54	69.9
841.711	64.93
841.882	72
842.053	79.34
842.223	74.99
842.394	85.21
842.565	96.28
842.736	114.86
842.906	126.1
843.077	118.84
843.248	102.65
843.418	99.22
843.589	73.44
843.759	54.81
843.93	48.88
844.101	47.52
844.271	45.98
844.442	43.95
844.612	50.26
844.783	53.78
844.953	48.86
845.123	59.05
845.294	79.79
845.464	86.51
845.635	91.67
845.805	89.22
845.975	78.22
846.146	55.02
846.316	60.68
846.486	49.08
846.656	46.53
846.827	58.61
846.997	71.88
847.167	75.9
847.337	93.01
847.507	96.58
847.677	77.41
847.848	84.22
848.018	67.48
848.188	65.38
848.358	60.26
848.528	59.98
848.698	52.88
848.868	47.89
849.038	41.04
849.208	44.73
849.378	42.92
849.548	28.46
849.718	32.06
849.887	34.43
850.057	39.04
850.227	54.43
850.397	54.41
850.567	57.79
850.737	39.08
850.906	29.58
851.076	26.57
851.246	52.22
851.415	57.86
851.585	64.65
851.755	67.82
851.924	45.86
852.094	46.5
852.264	39.88
852.433	50.11
852.603	38.94
852.772	56.72
852.942	42.78
853.111	46.66
853.281	61.03
853.45	74.78
853.62	64.13
853.789	68.64
853.959	85.67
854.128	68.74
854.297	80.65
854.467	91.68
854.636	88.5
854.805	70.91
854.975	36.32
855.144	8.16
855.313	6.15
855.482	15.52
855.652	-12.7
855.821	20.31
855.99	30.88
856.159	58.04
856.328	60.73
856.497	62.82
856.667	70.22
856.836	62.33
857.005	16.13
857.174	32.75
857.343	53.7
857.512	31.54
857.681	34.42
857.85	55.17
858.019	29.07
858.188	11.47
858.356	30.73
858.525	42.99
858.694	20.84
858.863	32.09
859.032	40.84
859.201	39.5
859.369	56.71
859.538	79.66
859.707	100.85
859.876	88.81
860.044	96.49
860.213	92.08
860.382	69.99
860.55	44.01
860.719	36.26
860.888	37.47
861.056	32.69
861.225	28.45
861.393	63.65
861.562	64.33
861.73	45.58
861.899	31.2
862.067	48.55
862.236	51.96
862.404	53.42
862.572	57.26
862.741	59.76
862.909	77.88
863.078	66.48
863.246	66.53
863.414	52.19
863.582	69.88
863.751	43.74
863.919	35.5
864.087	72.12
864.255	121.78
864.424	101
864.592	108.24
864.76	155.22
864.928	239.62
865.096	131.57
865.264	178.71
865.432	166.22
865.6	77.5
865.768	37.55
865.936	37.41
866.104	34.67
866.272	40.61
866.44	11.2
866.608	6.36
866.776	3.02
866.944	-13.43
867.112	10.1
867.28	31.4
867.448	20.18
867.615	56.84
867.783	76.02
867.951	68.49
868.119	49.25
868.286	45.35
868.454	28.49
868.622	22.81
868.789	37.16
868.957	83.14
869.125	104.27
869.292	94.84
869.46	84.58
869.627	73.65
869.795	38.67
869.963	36.82
870.13	45.23
870.298	50.43
870.465	62.16
870.632	75.14
870.8	72.85
870.967	55.61
871.135	43.2
871.302	38.11
871.469	2.69
871.637	35.29
871.804	71.53
871.971	47.11
872.139	51.89
872.306	55.77
872.473	35.95
872.64	38.09
872.807	44.1
872.975	37.62
873.142	19.69
873.309	9.76
873.476	-8.99
873.643	9.89
873.81	42.78
873.977	78.85
874.144	65.27
874.311	69.91
874.478	54.81
874.645	56.33
874.812	45.42
874.979	61.93
875.146	60.65
875.313	66.67
875.48	56.1
875.647	73.18
875.813	75.48
875.98	70.74
876.147	64.18
876.314	58.34
876.481	39.9
876.647	32.98
876.814	21.33
876.981	45.81
877.147	56.07
877.314	39.79
877.481	43.78
877.647	29.9
877.814	-24.49
877.98	-41.25
878.147	33.47
878.314	37.05
878.48	41.7
878.647	56.31
878.813	59.55
878.979	6.22
879.146	-21.28
879.312	-4.86
879.479	-37.63
879.645	12.27
879.811	42.79
879.978	35.13
880.144	24.13
880.31	38.56
880.477	23.25
880.643	19.94
880.809	19.74
880.975	53.63
881.142	69.48
881.308	48.32
881.474	51.42
881.64	78.6
881.806	58.11
881.972	53.22
882.138	63.13
882.304	92.27
882.47	127.37
882.636	345.94
882.802	264.94
882.968	334.98
883.134	179.78
883.3	133.72
883.466	61.48
883.632	120.7
883.798	136.09
883.964	75.82
884.129	55.9
884.295	66.78
884.461	37.11
884.627	23.39
884.793	31.37
884.958	57.03
885.124	50.09
885.29	55.41
885.455	58.58
885.621	34.79
885.787	15.91
885.952	5.26
886.118	-4.75
886.283	-27.28
886.449	6.82
886.614	21.46
886.78	24.88
886.945	45.84
887.111	64.17
887.276	66.37
887.442	55.63
887.607	55.98
887.773	54.89
887.938	41.96
888.103	33.36
888.269	37.45
888.434	48.34
888.599	41.34
888.764	83.32
888.93	104.3
889.095	111.53
889.26	121.39
889.425	90.93
889.59	76.68
889.756	64.17
889.921	62
890.086	69.33
890.251	80.56
890.416	88.79
890.581	93.95
890.746	108.54
890.911	117.73
891.076	121.44
891.241	92.51
891.406	110.97
891.571	120.76
891.736	121.55
891.901	114.44
892.065	130.21
892.23	125.01
892.395	105.14
892.56	91.19
892.725	83.46
892.889	82.95
893.054	51.06
893.219	51.38
893.384	50.57
893.548	64.63
893.713	78.58
893.878	78.64
