Data from Ofra_PS_Phys_1GT43_Reflection_3.txt Node
Date: Tue Jul 20 17:52:52 EDT 2021
User: USUARIO
Spectrometer: FLMT01687
Trigger mode: 0
Integration Time (sec): 1.042999E0
Scans to average: 2
Electric dark correction enabled: true
Nonlinearity correction enabled: false
Boxcar width: 2
XAxis mode: Wavelengths
Number of Pixels in Spectrum: 3648
>>>>>Begin Spectral Data<<<<<
179.494	-161.29
179.716	-270.99
179.937	-195.54
180.158	-819.57
180.38	-334.69
180.601	117.48
180.823	72.31
181.044	109.28
181.265	9.3
181.486	82.81
181.708	63.33
181.929	77.85
182.15	29.12
182.372	235.21
182.593	64.44
182.814	43.27
183.035	49.42
183.257	59.64
183.478	49.59
183.699	61.43
183.92	54.46
184.141	42.63
184.363	28.79
184.584	28.22
184.805	34.4
185.026	40.16
185.247	46.5
185.468	29.43
185.689	12.35
185.91	4.74
186.132	-9.45
186.353	-0.1
186.574	12.24
186.795	14.13
187.016	4.69
187.237	4.49
187.458	-46.61
187.679	-21.22
187.9	-8.8
188.121	-30.29
188.342	-289.24
188.563	-51.93
188.784	-27.51
189.005	4.09
189.226	1.09
189.447	32.97
189.667	23.59
189.888	23.44
190.109	15.74
190.33	18.37
190.551	-1.55
190.772	36.73
190.993	47.7
191.214	36.62
191.434	46.38
191.655	40.77
191.876	16.12
192.097	4.77
192.318	37.01
192.538	20.85
192.759	55.91
192.98	56.4
193.201	56.1
193.421	45.62
193.642	63.23
193.863	51.14
194.083	60.81
194.304	57.96
194.525	44.82
194.745	43.87
194.966	42.01
195.187	32.21
195.407	21.44
195.628	45.79
195.848	27.77
196.069	25.69
196.29	39.88
196.51	43.88
196.731	39.78
196.951	46.66
197.172	26.64
197.392	5.38
197.613	-6.42
197.833	-30.04
198.054	-73.25
198.274	-8.68
198.495	9.08
198.715	8.77
198.936	17.23
199.156	25.31
199.377	23.5
199.597	25.32
199.817	49.06
200.038	58.54
200.258	58.65
200.479	50.09
200.699	56.72
200.919	27.6
201.14	34.49
201.36	36.87
201.58	47.06
201.801	59.05
202.021	95.02
202.241	60.68
202.461	-3.52
202.682	-2.57
202.902	-9.39
203.122	-2.96
203.342	8.43
203.563	3.82
203.783	15.35
204.003	5.39
204.223	-27.17
204.443	-38.74
204.663	-19.61
204.884	-3.51
205.104	0.49
205.324	13.59
205.544	-0.71
205.764	10.33
205.984	-46.9
206.204	-12.77
206.424	-25.32
206.644	-12.2
206.864	-10.05
207.084	26.11
207.304	17.65
207.525	22.48
207.745	-5.33
207.964	-14.21
208.184	-5.56
208.404	-8.18
208.624	3.13
208.844	23.05
209.064	20.57
209.284	29.03
209.504	34.16
209.724	33.03
209.944	38.83
210.164	45.13
210.384	40.16
210.604	66.14
210.823	75.05
211.043	38.89
211.263	47.75
211.483	33.68
211.703	21.16
211.922	21.72
212.142	43.77
212.362	37.75
212.582	30.75
212.801	29.79
213.021	-2.81
213.241	-32.87
213.461	32.94
213.68	57.37
213.9	19.58
214.12	44.41
214.339	23.1
214.559	-2.19
214.779	42.02
214.998	80.7
215.218	103.42
215.438	84.2
215.657	79.03
215.877	51.25
216.096	52.05
216.316	24.11
216.535	29.22
216.755	24.36
216.974	16.91
217.194	-1.54
217.413	19.74
217.633	14.29
217.852	19.21
218.072	25.1
218.291	39.23
218.511	32.21
218.73	25.06
218.95	30.5
219.169	33.64
219.389	13.2
219.608	-9.32
219.827	1.53
220.047	7.26
220.266	7.55
220.485	1.75
220.705	24.17
220.924	21.78
221.143	21.8
221.363	18.62
221.582	14.49
221.801	1.05
222.021	16.26
222.24	-1.6
222.459	-1.19
222.678	-14.21
222.897	18.63
223.117	25.59
223.336	39.66
223.555	41.25
223.774	53.52
223.993	47.85
224.213	50.22
224.432	44.25
224.651	36.07
224.87	39.95
225.089	25.77
225.308	23.01
225.527	14.16
225.746	21.12
225.965	14.52
226.184	44.76
226.404	31.26
226.623	18.1
226.842	29.5
227.061	15.55
227.28	-4.11
227.499	23.5
227.718	33.63
227.936	8.08
228.155	29.81
228.374	15
228.593	16.31
228.812	28.91
229.031	43.02
229.25	32.55
229.469	52.94
229.688	45.39
229.907	50.53
230.125	59.77
230.344	78.7
230.563	63.38
230.782	48.43
231.001	49.24
231.22	48.33
231.438	28.95
231.657	31
231.876	50.26
232.095	40.45
232.313	38.11
232.532	44.23
232.751	33.62
232.969	31.87
233.188	27.32
233.407	14.87
233.625	31.34
233.844	42.08
234.063	31.04
234.281	43.55
234.5	57.71
234.719	38.27
234.937	34.44
235.156	51.96
235.374	27.83
235.593	12.03
235.811	16.15
236.03	-28.36
236.249	-60.78
236.467	-2.04
236.686	1.78
236.904	3.99
237.123	39.56
237.341	32.18
237.559	28.7
237.778	30.06
237.996	30.51
238.215	13.06
238.433	20.11
238.652	11.88
238.87	2.24
239.088	3.17
239.307	13.98
239.525	3.03
239.743	2.49
239.962	5.37
240.18	5.48
240.398	8.14
240.617	14.45
240.835	23.92
241.053	21.33
241.271	16.61
241.49	0.54
241.708	11.91
241.926	11.72
242.144	10.47
242.363	14.45
242.581	24.48
242.799	11.12
243.017	23.13
243.235	30.27
243.453	32.97
243.672	36.28
243.89	42.96
244.108	38.11
244.326	38.11
244.544	25.51
244.762	10.59
244.98	11.32
245.198	-8.7
245.416	-7.94
245.634	0.98
245.852	13.88
246.07	33.29
246.288	39.65
246.506	43.54
246.724	58.84
246.942	50.91
247.16	32.87
247.378	43.55
247.596	49.45
247.814	26.69
248.032	25.73
248.25	20.7
248.468	7.64
248.685	3.14
248.903	25.59
249.121	27.06
249.339	42.71
249.557	53.86
249.775	69.84
249.992	55.05
250.21	26.96
250.428	-7.94
250.646	-40.52
250.863	-24.98
251.081	-28.57
251.299	-14.83
251.517	0.46
251.734	42.6
251.952	12.41
252.17	65.2
252.387	39.71
252.605	23.94
252.823	32.21
253.04	43.76
253.258	35.05
253.475	27.14
253.693	35.37
253.911	23.57
254.128	6.97
254.346	14.19
254.563	25.93
254.781	18.72
254.998	7.84
255.216	21.61
255.433	8.66
255.651	20.61
255.868	29.52
256.086	42.45
256.303	46.74
256.521	49.97
256.738	32.65
256.956	30.71
257.173	3.52
257.39	-43.62
257.608	-78.32
257.825	12.74
258.043	3.07
258.26	29.2
258.477	61.66
258.695	55.41
258.912	27.18
259.129	39.35
259.346	31.39
259.564	18.16
259.781	27.43
259.998	14.64
260.216	18.32
260.433	2.89
260.65	27.77
260.867	36.85
261.084	82.03
261.302	63.9
261.519	87.22
261.736	65.34
261.953	37.61
262.17	20.79
262.387	12.12
262.604	-24.57
262.822	-43.34
263.039	-53.59
263.256	-59.5
263.473	-77.79
263.69	-45.23
263.907	-7.17
264.124	12.01
264.341	28.34
264.558	35.33
264.775	35.76
264.992	2.96
265.209	2.26
265.426	-15.32
265.643	-0.3
265.86	-12.4
266.077	11.49
266.294	3.45
266.51	12.41
266.727	18.71
266.944	39.6
267.161	32.54
267.378	36.21
267.595	21.29
267.812	19.96
268.028	10.51
268.245	11.59
268.462	8.34
268.679	6.72
268.896	1.37
269.112	7.28
269.329	7.87
269.546	-17.51
269.763	2
269.979	13.26
270.196	21.62
270.413	31.33
270.629	31.03
270.846	21.58
271.063	9.65
271.279	-5.02
271.496	-26.48
271.712	-33.36
271.929	-32.63
272.146	-21.8
272.362	-33.71
272.579	-40.44
272.795	-25.7
273.012	-35.94
273.228	-18.95
273.445	-12.82
273.661	-6.04
273.878	-35.11
274.094	4.52
274.311	11.5
274.527	23.07
274.744	13.51
274.96	31.91
275.177	16.32
275.393	11.93
275.609	4.18
275.826	31.16
276.042	28.44
276.259	40.83
276.475	40.65
276.691	46.08
276.908	20.13
277.124	28.46
277.34	16.18
277.557	15.6
277.773	6.73
277.989	17.14
278.205	-6.82
278.422	-11.42
278.638	-4.43
278.854	5.98
279.07	3.89
279.286	14.91
279.503	26.24
279.719	20.03
279.935	-5.69
280.151	8.7
280.367	-12.87
280.583	-50
280.799	-26.59
281.016	-10.31
281.232	0.62
281.448	3.08
281.664	11.28
281.88	5.11
282.096	16.4
282.312	23.3
282.528	34.65
282.744	46.01
282.96	47.07
283.176	43.84
283.392	33.39
283.608	36.01
283.824	17.94
284.04	18.65
284.256	20.52
284.471	-3.6
284.687	15.68
284.903	30.88
285.119	29.62
285.335	-24.75
285.551	51.34
285.767	30.83
285.982	34.99
286.198	66.87
286.414	75.91
286.63	56.47
286.846	41.09
287.061	42.31
287.277	33.01
287.493	29.09
287.709	39.26
287.924	52.46
288.14	42.52
288.356	38.26
288.571	50.7
288.787	22.19
289.003	27.07
289.218	59.39
289.434	59.65
289.65	51.1
289.865	55.1
290.081	67.17
290.296	48.37
290.512	35.55
290.727	42.35
290.943	41.3
291.159	48.31
291.374	17.57
291.59	11.36
291.805	-21.56
292.021	-41.62
292.236	-42.06
292.451	-22.04
292.667	-15.21
292.882	1.31
293.098	15.22
293.313	-12.87
293.529	5.1
293.744	-13.01
293.959	-12.65
294.175	-30.8
294.39	-31.41
294.605	-1.1
294.821	30.23
295.036	43.12
295.251	55.55
295.467	48.73
295.682	27.01
295.897	20.38
296.112	5.29
296.328	6.27
296.543	23.73
296.758	35.07
296.973	21.51
297.188	18.08
297.404	-3.63
297.619	-25.87
297.834	-85.67
298.049	-84.23
298.264	-28.8
298.479	-5.39
298.694	2.41
298.909	1.81
299.125	3.97
299.34	-14.21
299.555	-2.95
299.77	-38.52
299.985	-38.65
300.2	-9.63
300.415	4
300.63	-33.37
300.845	12.87
301.06	24.5
301.275	2.65
301.49	6.06
301.704	12.14
301.919	-17.21
302.134	-43.37
302.349	-4.22
302.564	-5.51
302.779	14.26
302.994	36.16
303.209	46.48
303.423	48.99
303.638	40.93
303.853	38
304.068	27.95
304.283	11.24
304.497	2.86
304.712	13.85
304.927	24.18
305.142	17.02
305.356	32.66
305.571	40.88
305.786	33.22
306	32.31
306.215	47.64
306.43	39.46
306.644	34.46
306.859	49.77
307.074	50.45
307.288	48.78
307.503	47.18
307.717	45.9
307.932	32.43
308.147	30.76
308.361	17.67
308.576	23.36
308.79	15.69
309.005	15.45
309.219	7.74
309.434	-4.08
309.648	-21.34
309.863	-7.98
310.077	12.98
310.292	10.07
310.506	26.2
310.72	25.26
310.935	20.36
311.149	2.5
311.364	11.36
311.578	15.23
311.792	27.17
312.007	35.52
312.221	31.79
312.435	28.03
312.649	30.03
312.864	17.55
313.078	-3.41
313.292	6
313.507	1.3
313.721	-3.17
313.935	6.02
314.149	10.12
314.363	12.35
314.578	23.5
314.792	19.27
315.006	18.18
315.22	22.22
315.434	33.91
315.648	31.4
315.862	18.8
316.077	-0.37
316.291	15.16
316.505	-0.27
316.719	-10.32
316.933	10.67
317.147	10.94
317.361	9.66
317.575	21.62
317.789	25.04
318.003	27.97
318.217	36.21
318.431	35.03
318.645	29.71
318.859	44.79
319.073	50.84
319.287	47.22
319.5	41.33
319.714	23.41
319.928	9.96
320.142	-4.9
320.356	-13.85
320.57	-8.26
320.784	1.36
320.997	-3.38
321.211	8.37
321.425	21.45
321.639	33.98
321.853	51.56
322.066	55.57
322.28	61.03
322.494	51.82
322.707	56.46
322.921	42.62
323.135	26.83
323.349	10.25
323.562	-4.69
323.776	-15.04
323.989	-4.22
324.203	5.55
324.417	11.46
324.63	27
324.844	19.56
325.057	14.62
325.271	4.86
325.485	-0.6
325.698	-12.47
325.912	12.78
326.125	-4.61
326.339	0.33
326.552	3.41
326.766	7.62
326.979	-2.48
327.193	18.1
327.406	18.12
327.619	22.2
327.833	31.52
328.046	33.35
328.26	20.88
328.473	29.31
328.686	17.55
328.9	15.06
329.113	24.65
329.326	42.45
329.54	43.43
329.753	54.6
329.966	49.75
330.179	54.73
330.393	55.36
330.606	66.49
330.819	50.59
331.032	49.38
331.246	33.87
331.459	28.15
331.672	14.31
331.885	14.68
332.098	20.28
332.311	23.97
332.525	14.98
332.738	11.61
332.951	27
333.164	25.21
333.377	17.06
333.59	43.57
333.803	46.43
334.016	56.96
334.229	63.46
334.442	75.17
334.655	53.6
334.868	57.11
335.081	53.28
335.294	48.79
335.507	47.99
335.72	40.49
335.933	27.45
336.146	11.52
336.359	21.54
336.572	-0.61
336.785	3.78
336.997	14.91
337.21	-0.28
337.423	-30.74
337.636	-32.6
337.849	-30.75
338.062	-32.44
338.274	-11.67
338.487	-5.39
338.7	-18.27
338.913	-26.42
339.125	-39.68
339.338	-26.95
339.551	-4.8
339.763	12.78
339.976	12.12
340.189	26.79
340.402	6.85
340.614	-6.89
340.827	-1.41
341.039	11.49
341.252	9.75
341.465	30.88
341.677	51.08
341.89	41.8
342.102	39.67
342.315	19.95
342.527	5.48
342.74	15.9
342.952	16.99
343.165	32.14
343.377	46.56
343.59	37.52
343.802	31.41
344.015	48.51
344.227	26.41
344.44	27.83
344.652	50.12
344.864	48.74
345.077	35.96
345.289	58.94
345.502	51.83
345.714	32.1
345.926	32.5
346.139	38.07
346.351	27.33
346.563	23.39
346.775	23.75
346.988	25.53
347.2	-10.9
347.412	-12.88
347.624	-16.34
347.837	-5.05
348.049	-6.69
348.261	-8.13
348.473	4.79
348.685	16.59
348.897	18.76
349.11	15.91
349.322	23.13
349.534	31.89
349.746	39.09
349.958	23.23
350.17	25.17
350.382	31.88
350.594	16.68
350.806	5
351.018	15.57
351.23	1.08
351.442	1.87
351.654	11.57
351.866	11.84
352.078	17.15
352.29	28.88
352.502	27.3
352.714	23.22
352.926	12.77
353.138	5.66
353.35	-8.85
353.561	-24
353.773	-10.99
353.985	-2.51
354.197	-9.84
354.409	10.93
354.621	20.16
354.832	3.87
355.044	0.57
355.256	2.46
355.468	-3
355.679	-6.46
355.891	-0.64
356.103	22.53
356.314	28.9
356.526	30.57
356.738	32.63
356.949	37.44
357.161	52.36
357.373	52.85
357.584	41.45
357.796	30.74
358.008	31.2
358.219	20.52
358.431	13.4
358.642	26.8
358.854	29.78
359.065	21.51
359.277	11.33
359.488	12.87
359.7	9.27
359.911	3.63
360.123	10.33
360.334	7.56
360.546	16.88
360.757	3.94
360.969	0.26
361.18	-3.16
361.391	17.69
361.603	18.49
361.814	27.65
362.025	29.27
362.237	33.27
362.448	13.5
362.659	4.34
362.871	3.21
363.082	1.68
363.293	-0.28
363.504	9.11
363.716	14.68
363.927	-1.97
364.138	-3.28
364.349	-19.84
364.56	-26.1
364.772	-21.57
364.983	-10.83
365.194	-1.87
365.405	-11.14
365.616	-16.88
365.827	-10.75
366.038	1.82
366.25	3.47
366.461	15.4
366.672	24.16
366.883	17.84
367.094	12.32
367.305	8.96
367.516	15.77
367.727	15.09
367.938	9.99
368.149	11.89
368.36	14.11
368.571	24.49
368.781	20.05
368.992	30.74
369.203	36.2
369.414	23.76
369.625	13.01
369.836	9.56
370.047	8.46
370.258	-6.59
370.468	4.7
370.679	8.53
370.89	24.03
371.101	20.53
371.312	23.68
371.522	22.16
371.733	14.73
371.944	18.1
372.155	24.12
372.365	28.15
372.576	29.21
372.787	33.21
372.997	15.07
373.208	-0.49
373.419	13.94
373.629	9.51
373.84	-2.23
374.05	-5.45
374.261	5.64
374.472	-6.75
374.682	10.7
374.893	16.91
375.103	35.5
375.314	31.01
375.524	16.91
375.735	14.59
375.945	18.45
376.156	10.6
376.366	20.35
376.577	42.16
376.787	34.89
376.997	34.55
377.208	40.94
377.418	30.85
377.629	22.49
377.839	26.12
378.049	24.44
378.26	14.29
378.47	16.16
378.68	6.28
378.89	-1.65
379.101	5.3
379.311	6
379.521	4.18
379.732	18.28
379.942	34.86
380.152	42.85
380.362	45.06
380.572	52.32
380.783	44.56
380.993	40.47
381.203	27.32
381.413	24.11
381.623	10.16
381.833	1.18
382.043	-1.44
382.253	-11.57
382.463	-3.83
382.674	-4.69
382.884	2.88
383.094	10.65
383.304	12.07
383.514	14.2
383.724	22.77
383.934	18.92
384.144	13.97
384.353	16.21
384.563	9.82
384.773	4.88
384.983	12.18
385.193	7.25
385.403	7.41
385.613	14.94
385.823	17.5
386.033	6.78
386.242	9.2
386.452	7.34
386.662	6.29
386.872	9.44
387.082	12.95
387.291	10.94
387.501	14.29
387.711	5.45
387.921	-2.65
388.13	0.68
388.34	7.49
388.55	7.37
388.759	11.85
388.969	13.91
389.179	13.2
389.388	12.14
389.598	13.06
389.807	14.08
390.017	16.49
390.227	15.07
390.436	8.61
390.646	6.8
390.855	8.66
391.065	4.68
391.274	4.55
391.484	10.03
391.693	10.6
391.903	10.87
392.112	13.17
392.322	14.02
392.531	11.55
392.74	13.76
392.95	11.01
393.159	9.64
393.369	9.38
393.578	8.98
393.787	6.33
393.997	6.55
394.206	7.49
394.415	8.42
394.625	10.3
394.834	11.67
395.043	11.87
395.252	12.05
395.462	13.15
395.671	11.33
395.88	10.14
396.089	10.15
396.298	9.97
396.508	8.03
396.717	9.16
396.926	9.96
397.135	9.7
397.344	8.73
397.553	9.84
397.762	9.21
397.971	8.54
398.181	8.81
398.39	9.16
398.599	8.41
398.808	8.38
399.017	9.17
399.226	9.82
399.435	10.02
399.644	10.08
399.853	10.06
400.062	9.58
400.27	9.09
400.479	8.72
400.688	8.8
400.897	9.1
401.106	8.88
401.315	8.57
401.524	8.87
401.733	9.01
401.941	8.97
402.15	9.07
402.359	9.33
402.568	9.18
402.777	9
402.985	8.68
403.194	8.49
403.403	8.21
403.612	8.06
403.82	7.91
404.029	7.94
404.238	8.2
404.446	8.2
404.655	8.32
404.864	8.33
405.072	8.4
405.281	8.45
405.489	8.49
405.698	8.61
405.906	8.55
406.115	8.47
406.324	8.38
406.532	8.33
406.741	8.21
406.949	8.22
407.158	8.28
407.366	8.07
407.574	7.95
407.783	7.92
407.991	7.96
408.2	7.98
408.408	7.98
408.617	7.94
408.825	7.84
409.033	7.75
409.242	7.74
409.45	7.77
409.658	7.88
409.867	7.92
410.075	7.89
410.283	7.75
410.491	7.56
410.7	7.43
410.908	7.38
411.116	7.35
411.324	7.46
411.533	7.56
411.741	7.63
411.949	7.59
412.157	7.67
412.365	7.51
412.573	7.55
412.781	7.54
412.99	7.5
413.198	7.42
413.406	7.4
413.614	7.41
413.822	7.43
414.03	7.53
414.238	7.43
414.446	7.48
414.654	7.4
414.862	7.51
415.07	7.4
415.278	7.56
415.486	7.5
415.694	7.47
415.902	7.36
416.109	7.26
416.317	7.19
416.525	7.04
416.733	6.91
416.941	6.64
417.149	6.7
417.357	6.73
417.564	6.79
417.772	6.8
417.98	7
418.188	6.95
418.395	6.84
418.603	6.93
418.811	6.89
419.019	6.75
419.226	6.88
419.434	6.73
419.642	6.58
419.849	6.73
420.057	6.78
420.265	6.71
420.472	6.89
420.68	6.99
420.887	6.95
421.095	6.94
421.302	6.84
421.51	6.8
421.717	6.8
421.925	6.64
422.132	6.58
422.34	6.55
422.547	6.34
422.755	6.21
422.962	6.2
423.17	6.16
423.377	6.14
423.585	6.09
423.792	6.03
423.999	6.09
424.207	6.1
424.414	6.11
424.621	6.41
424.829	6.47
425.036	6.52
425.243	6.73
425.451	6.8
425.658	6.53
425.865	6.66
426.072	6.42
426.28	6.29
426.487	6.2
426.694	6.27
426.901	6.25
427.108	6.45
427.315	6.49
427.523	6.54
427.73	6.68
427.937	6.52
428.144	6.4
428.351	6.22
428.558	6.06
428.765	5.76
428.972	5.75
429.179	5.75
429.386	5.8
429.593	5.75
429.8	6.03
430.007	6.25
430.214	6.36
430.421	6.35
430.628	6.59
430.835	6.52
431.042	6.47
431.249	6.54
431.456	6.61
431.662	6.63
431.869	6.66
432.076	6.64
432.283	6.6
432.49	6.65
432.697	6.66
432.903	6.62
433.11	6.56
433.317	6.54
433.524	6.73
433.73	6.5
433.937	6.53
434.144	6.63
434.35	6.74
434.557	6.54
434.764	6.7
434.97	6.65
435.177	6.71
435.384	6.6
435.59	6.61
435.797	6.72
436.003	6.76
436.21	6.61
436.416	6.57
436.623	6.52
436.829	6.51
437.036	6.67
437.242	6.83
437.449	6.88
437.655	6.96
437.862	6.94
438.068	6.84
438.275	6.72
438.481	6.79
438.687	6.73
438.894	6.78
439.1	6.8
439.307	6.91
439.513	7.02
439.719	7.1
439.926	7
440.132	7.06
440.338	7.07
440.544	6.91
440.751	6.98
440.957	7.02
441.163	6.93
441.369	7.06
441.575	7.11
441.782	7.12
441.988	7.19
442.194	7.25
442.4	7.11
442.606	7.14
442.812	7.11
443.018	7.11
443.224	7.14
443.431	7.2
443.637	7.18
443.843	7.15
444.049	7.12
444.255	7.01
444.461	7.06
444.667	7.09
444.873	7.08
445.079	7.15
445.284	7.31
445.49	7.27
445.696	7.2
445.902	7.2
446.108	7.15
446.314	7.06
446.52	7.09
446.726	7.32
446.931	7.38
447.137	7.32
447.343	7.41
447.549	7.46
447.755	7.32
447.96	7.32
448.166	7.46
448.372	7.59
448.578	7.57
448.783	7.63
448.989	7.77
449.195	7.78
449.4	7.69
449.606	7.72
449.812	7.76
450.017	7.71
450.223	7.72
450.428	7.74
450.634	7.71
450.84	7.75
451.045	7.77
451.251	7.71
451.456	7.67
451.662	7.61
451.867	7.61
452.073	7.49
452.278	7.48
452.483	7.49
452.689	7.51
452.894	7.42
453.1	7.39
453.305	7.34
453.51	7.41
453.716	7.52
453.921	7.46
454.127	7.5
454.332	7.58
454.537	7.52
454.742	7.42
454.948	7.48
455.153	7.52
455.358	7.51
455.563	7.52
455.769	7.38
455.974	7.39
456.179	7.35
456.384	7.33
456.589	7.4
456.795	7.53
457	7.53
457.205	7.45
457.41	7.46
457.615	7.42
457.82	7.45
458.025	7.48
458.23	7.5
458.435	7.42
458.64	7.44
458.845	7.47
459.05	7.46
459.255	7.6
459.46	7.68
459.665	7.61
459.87	7.56
460.075	7.57
460.28	7.55
460.485	7.58
460.69	7.56
460.895	7.58
461.099	7.55
461.304	7.67
461.509	7.73
461.714	7.81
461.919	7.9
462.123	7.88
462.328	7.81
462.533	7.8
462.738	7.85
462.942	7.82
463.147	7.85
463.352	7.86
463.556	7.83
463.761	7.8
463.966	7.78
464.17	7.82
464.375	7.88
464.58	7.91
464.784	7.85
464.989	7.9
465.193	7.91
465.398	7.89
465.602	7.91
465.807	7.94
466.011	7.95
466.216	8.03
466.42	8.09
466.625	8.13
466.829	8.28
467.034	8.32
467.238	8.38
467.443	8.21
467.647	8.21
467.851	8.06
468.056	8.04
468.26	8
468.464	8.07
468.669	8.02
468.873	8.11
469.077	8.14
469.282	8.12
469.486	8.34
469.69	8.44
469.894	8.46
470.099	8.59
470.303	8.57
470.507	8.5
470.711	8.42
470.915	8.45
471.119	8.33
471.324	8.39
471.528	8.38
471.732	8.42
471.936	8.42
472.14	8.51
472.344	8.51
472.548	8.56
472.752	8.62
472.956	8.67
473.16	8.76
473.364	8.89
473.568	8.85
473.772	8.93
473.976	8.91
474.18	8.82
474.384	8.85
474.588	8.93
474.792	8.87
474.995	8.91
475.199	9.03
475.403	8.96
475.607	8.93
475.811	8.92
476.015	8.97
476.218	8.9
476.422	8.94
476.626	8.96
476.83	9.05
477.033	9.17
477.237	9.22
477.441	9.27
477.644	9.35
477.848	9.3
478.052	9.24
478.255	9.27
478.459	9.25
478.663	9.28
478.866	9.39
479.07	9.4
479.273	9.39
479.477	9.43
479.681	9.45
479.884	9.39
480.088	9.4
480.291	9.44
480.495	9.47
480.698	9.43
480.901	9.51
481.105	9.57
481.308	9.52
481.512	9.42
481.715	9.45
481.919	9.48
482.122	9.42
482.325	9.48
482.529	9.54
482.732	9.54
482.935	9.46
483.138	9.49
483.342	9.55
483.545	9.62
483.748	9.69
483.952	9.76
484.155	9.81
484.358	9.75
484.561	9.69
484.764	9.67
484.967	9.57
485.171	9.57
485.374	9.56
485.577	9.65
485.78	9.64
485.983	9.82
486.186	9.83
486.389	9.84
486.592	9.77
486.795	9.84
486.998	9.68
487.201	9.66
487.404	9.69
487.607	9.81
487.81	9.73
488.013	9.85
488.216	9.84
488.419	9.8
488.622	9.75
488.825	9.75
489.028	9.72
489.231	9.72
489.433	9.68
489.636	9.64
489.839	9.63
490.042	9.66
490.245	9.65
490.447	9.7
490.65	9.75
490.853	9.69
491.056	9.61
491.258	9.63
491.461	9.61
491.664	9.55
491.866	9.63
492.069	9.7
492.272	9.74
492.474	9.77
492.677	9.82
492.879	9.8
493.082	9.87
493.285	9.9
493.487	9.9
493.69	9.93
493.892	9.95
494.095	9.93
494.297	9.87
494.5	9.97
494.702	10
494.905	10.05
495.107	10.04
495.309	10.14
495.512	10
495.714	10.01
495.917	10.08
496.119	10.15
496.321	10.23
496.524	10.32
496.726	10.31
496.928	10.23
497.13	10.17
497.333	10.05
497.535	10.04
497.737	10.04
497.939	10.07
498.142	10.12
498.344	10.16
498.546	10.18
498.748	10.26
498.95	10.27
499.152	10.31
499.355	10.4
499.557	10.38
499.759	10.45
499.961	10.53
500.163	10.51
500.365	10.46
500.567	10.58
500.769	10.5
500.971	10.5
501.173	10.53
501.375	10.53
501.577	10.44
501.779	10.56
501.981	10.56
502.183	10.55
502.385	10.6
502.587	10.73
502.788	10.7
502.99	10.77
503.192	10.75
503.394	10.75
503.596	10.75
503.798	10.72
503.999	10.77
504.201	10.88
504.403	10.92
504.605	10.93
504.806	10.97
505.008	10.97
505.21	10.99
505.411	11.05
505.613	11.09
505.815	11.19
506.016	11.27
506.218	11.31
506.42	11.35
506.621	11.38
506.823	11.38
507.024	11.38
507.226	11.38
507.427	11.44
507.629	11.52
507.83	11.48
508.032	11.5
508.233	11.54
508.435	11.54
508.636	11.48
508.838	11.62
509.039	11.68
509.24	11.83
509.442	11.8
509.643	11.85
509.845	11.84
510.046	11.88
510.247	11.79
510.448	11.83
510.65	11.93
510.851	11.93
511.052	11.98
511.254	12.05
511.455	12.08
511.656	12.03
511.857	12.09
512.058	12.06
512.26	12.07
512.461	12.19
512.662	12.3
512.863	12.29
513.064	12.36
513.265	12.44
513.466	12.38
513.667	12.4
513.868	12.41
514.069	12.42
514.27	12.44
514.471	12.51
514.672	12.49
514.873	12.59
515.074	12.62
515.275	12.54
515.476	12.51
515.677	12.58
515.878	12.55
516.079	12.54
516.28	12.5
516.481	12.5
516.682	12.51
516.882	12.51
517.083	12.44
517.284	12.57
517.485	12.6
517.686	12.55
517.886	12.59
518.087	12.66
518.288	12.66
518.488	12.74
518.689	12.83
518.89	12.88
519.091	12.92
519.291	12.97
519.492	12.95
519.692	12.96
519.893	12.98
520.094	13.03
520.294	13.02
520.495	13.09
520.695	13.18
520.896	13.16
521.096	13.18
521.297	13.19
521.497	13.21
521.698	13.16
521.898	13.14
522.099	13.14
522.299	13.13
522.499	13.13
522.7	13.19
522.9	13.27
523.101	13.29
523.301	13.31
523.501	13.33
523.702	13.31
523.902	13.21
524.102	13.29
524.302	13.33
524.503	13.35
524.703	13.36
524.903	13.48
525.103	13.44
525.304	13.48
525.504	13.57
525.704	13.6
525.904	13.65
526.104	13.68
526.304	13.64
526.504	13.59
526.705	13.6
526.905	13.58
527.105	13.62
527.305	13.66
527.505	13.67
527.705	13.74
527.905	13.77
528.105	13.73
528.305	13.75
528.505	13.75
528.705	13.72
528.905	13.7
529.105	13.79
529.304	13.84
529.504	13.92
529.704	14
529.904	14.06
530.104	14.03
530.304	14.08
530.503	14.09
530.703	14.01
530.903	14.02
531.103	14.07
531.303	14.07
531.502	14.11
531.702	14.16
531.902	14.17
532.101	14.23
532.301	14.29
532.501	14.26
532.7	14.33
532.9	14.43
533.1	14.4
533.299	14.37
533.499	14.41
533.698	14.4
533.898	14.4
534.097	14.44
534.297	14.49
534.496	14.56
534.696	14.62
534.895	14.66
535.095	14.74
535.294	14.8
535.494	14.79
535.693	14.84
535.892	14.84
536.092	14.79
536.291	14.79
536.491	14.82
536.69	14.83
536.889	14.92
537.088	15.01
537.288	15
537.487	15.12
537.686	15.12
537.886	15.09
538.085	15.16
538.284	15.24
538.483	15.24
538.682	15.33
538.882	15.36
539.081	15.38
539.28	15.48
539.479	15.5
539.678	15.52
539.877	15.55
540.076	15.61
540.275	15.61
540.474	15.66
540.673	15.72
540.872	15.8
541.071	15.81
541.27	15.78
541.469	15.77
541.668	15.82
541.867	15.93
542.066	16.04
542.265	16.17
542.464	16.28
542.663	16.34
542.862	16.35
543.06	16.33
543.259	16.36
543.458	16.41
543.657	16.45
543.856	16.5
544.054	16.62
544.253	16.66
544.452	16.69
544.651	16.74
544.849	16.8
545.048	16.8
545.247	16.92
545.445	16.97
545.644	17.07
545.843	17.18
546.041	17.27
546.24	17.25
546.438	17.36
546.637	17.4
546.836	17.48
547.034	17.56
547.233	17.6
547.431	17.65
547.63	17.72
547.828	17.74
548.027	17.8
548.225	17.85
548.423	17.97
548.622	18.04
548.82	18.1
549.019	18.23
549.217	18.41
549.415	18.48
549.614	18.57
549.812	18.64
550.01	18.66
550.209	18.64
550.407	18.75
550.605	18.78
550.803	18.89
551.002	18.97
551.2	19.13
551.398	19.19
551.596	19.33
551.794	19.43
551.993	19.54
552.191	19.58
552.389	19.63
552.587	19.69
552.785	19.65
552.983	19.8
553.181	19.9
553.379	20.1
553.577	20.23
553.775	20.49
553.973	20.51
554.171	20.66
554.369	20.78
554.567	20.8
554.765	20.79
554.963	20.99
555.161	21.04
555.359	21.03
555.557	21.26
555.755	21.39
555.952	21.42
556.15	21.6
556.348	21.72
556.546	21.73
556.744	21.92
556.941	21.99
557.139	22.08
557.337	22.17
557.535	22.29
557.732	22.36
557.93	22.48
558.128	22.52
558.325	22.64
558.523	22.7
558.721	22.79
558.918	22.96
559.116	23.19
559.313	23.34
559.511	23.51
559.708	23.6
559.906	23.68
560.104	23.83
560.301	23.96
560.498	24.14
560.696	24.27
560.893	24.4
561.091	24.46
561.288	24.58
561.486	24.63
561.683	24.77
561.88	24.94
562.078	25.07
562.275	25.23
562.473	25.4
562.67	25.57
562.867	25.55
563.064	25.64
563.262	25.65
563.459	25.72
563.656	25.8
563.853	26.03
564.051	26.21
564.248	26.3
564.445	26.49
564.642	26.6
564.839	26.65
565.036	26.72
565.234	26.85
565.431	27.01
565.628	27.14
565.825	27.22
566.022	27.33
566.219	27.49
566.416	27.48
566.613	27.53
566.81	27.73
567.007	27.76
567.204	27.9
567.401	28
567.598	28.15
567.795	28.22
567.991	28.29
568.188	28.45
568.385	28.53
568.582	28.53
568.779	28.55
568.976	28.72
569.172	28.74
569.369	28.81
569.566	28.95
569.763	29.01
569.96	29.08
570.156	29.13
570.353	29.22
570.55	29.34
570.746	29.45
570.943	29.49
571.14	29.47
571.336	29.46
571.533	29.47
571.729	29.58
571.926	29.64
572.123	29.71
572.319	29.88
572.516	29.89
572.712	29.95
572.909	29.93
573.105	29.94
573.302	29.89
573.498	29.92
573.695	29.93
573.891	29.98
574.087	29.97
574.284	30.01
574.48	30.08
574.677	30.01
574.873	30.03
575.069	30.1
575.266	30.06
575.462	30.04
575.658	30.09
575.854	30.09
576.051	30.08
576.247	30.14
576.443	30.07
576.639	30.15
576.835	30.2
577.032	30.2
577.228	30.22
577.424	30.27
577.62	30.22
577.816	30.22
578.012	30.22
578.208	30.25
578.404	30.38
578.6	30.4
578.796	30.4
578.993	30.54
579.189	30.45
579.384	30.32
579.58	30.34
579.776	30.26
579.972	30.16
580.168	30.13
580.364	30.08
580.56	30.04
580.756	30.04
580.952	30.03
581.148	30.09
581.343	30.14
581.539	30.08
581.735	30.14
581.931	30.16
582.127	30.16
582.322	30.16
582.518	30.22
582.714	30.17
582.909	30.08
583.105	30.06
583.301	30.03
583.496	29.92
583.692	29.81
583.888	29.84
584.083	29.79
584.279	29.72
584.474	29.59
584.67	29.66
584.866	29.64
585.061	29.61
585.257	29.65
585.452	29.94
585.648	29.88
585.843	29.82
586.039	29.8
586.234	29.78
586.429	29.55
586.625	29.55
586.82	29.63
587.015	29.65
587.211	29.58
587.406	29.61
587.601	29.67
587.797	29.61
587.992	29.54
588.187	29.63
588.383	29.63
588.578	29.64
588.773	29.66
588.968	29.74
589.163	29.8
589.359	29.81
589.554	29.76
589.749	29.71
589.944	29.76
590.139	29.77
590.334	29.92
590.529	30.04
590.724	30.31
590.919	30.28
591.114	30.29
591.309	30.19
591.504	30.14
591.699	30.02
591.894	30.04
592.089	29.99
592.284	30.01
592.479	30.07
592.674	30.18
592.869	30.27
593.064	30.38
593.259	30.58
593.454	30.71
593.648	30.72
593.843	30.79
594.038	30.9
594.233	30.92
594.428	31.01
594.622	31.14
594.817	31.32
595.012	31.28
595.206	31.3
595.401	31.31
595.596	31.23
595.79	31.23
595.985	31.38
596.18	31.5
596.374	31.55
596.569	31.78
596.763	31.84
596.958	31.8
597.153	31.79
597.347	31.93
597.542	31.97
597.736	31.95
597.931	32.12
598.125	32.26
598.319	32.32
598.514	32.35
598.708	32.56
598.903	32.56
599.097	32.57
599.291	32.61
599.486	32.67
599.68	32.65
599.874	32.75
600.069	32.86
600.263	32.89
600.457	32.92
600.651	33
600.846	33.09
601.04	33.08
601.234	33.16
601.428	33.23
601.622	33.26
601.817	33.34
602.011	33.39
602.205	33.3
602.399	33.27
602.593	33.37
602.787	33.18
602.981	33.18
603.175	33.35
603.369	33.45
603.563	33.39
603.757	33.6
603.951	33.59
604.145	33.39
604.339	33.39
604.533	33.34
604.727	33.21
604.921	33.23
605.115	33.14
605.309	33.11
605.502	33.06
605.696	33.02
605.89	32.92
606.084	33.01
606.278	32.88
606.471	32.91
606.665	32.88
606.859	32.9
607.053	32.85
607.246	32.74
607.44	32.71
607.634	32.67
607.827	32.6
608.021	32.61
608.214	32.62
608.408	32.47
608.602	32.42
608.795	32.33
608.989	32.23
609.182	32.1
609.376	32.08
609.569	32.08
609.763	32.04
609.956	31.93
610.15	31.83
610.343	31.68
610.537	31.51
610.73	31.48
610.923	31.39
611.117	31.42
611.31	31.41
611.504	31.32
611.697	31.07
611.89	31.07
612.083	30.93
612.277	30.84
612.47	30.72
612.663	30.74
612.856	30.59
613.05	30.54
613.243	30.44
613.436	30.35
613.629	30.17
613.822	30.15
614.015	29.97
614.209	29.86
614.402	29.82
614.595	29.9
614.788	29.86
614.981	29.94
615.174	29.86
615.367	29.78
615.56	29.6
615.753	29.47
615.946	29.32
616.139	29.28
616.332	29.14
616.525	29.08
616.718	28.93
616.911	28.89
617.103	28.83
617.296	28.85
617.489	28.74
617.682	28.73
617.875	28.66
618.067	28.62
618.26	28.52
618.453	28.47
618.646	28.41
618.838	28.32
619.031	28.27
619.224	28.24
619.417	28.2
619.609	28.21
619.802	28.11
619.994	28.1
620.187	28.07
620.38	28.01
620.572	27.96
620.765	28.02
620.957	28
621.15	28.03
621.342	28.03
621.535	27.95
621.727	27.92
621.92	27.86
622.112	27.75
622.305	27.8
622.497	27.81
622.69	27.76
622.882	27.61
623.074	27.69
623.267	27.66
623.459	27.6
623.651	27.57
623.844	27.67
624.036	27.57
624.228	27.42
624.42	27.38
624.613	27.45
624.805	27.37
624.997	27.43
625.189	27.42
625.381	27.46
625.574	27.26
625.766	27.2
625.958	27.06
626.15	27.09
626.342	27.16
626.534	27.24
626.726	27.22
626.918	27.2
627.11	27.17
627.302	27.01
627.494	26.99
627.686	26.96
627.878	26.94
628.07	26.9
628.262	26.86
628.454	26.73
628.646	26.69
628.838	26.66
629.029	26.59
629.221	26.49
629.413	26.55
629.605	26.56
629.797	26.51
629.989	26.42
630.18	26.46
630.372	26.37
630.564	26.26
630.755	26.16
630.947	26.14
631.139	25.98
631.33	25.9
631.522	25.91
631.714	25.85
631.905	25.87
632.097	25.83
632.289	25.84
632.48	25.89
632.672	25.86
632.863	25.85
633.055	25.78
633.246	25.82
633.438	25.71
633.629	25.75
633.821	25.7
634.012	25.77
634.203	25.63
634.395	25.55
634.586	25.48
634.777	25.42
634.969	25.46
635.16	25.44
635.351	25.44
635.543	25.44
635.734	25.32
635.925	25.28
636.117	25.26
636.308	25.25
636.499	25.19
636.69	25.24
636.881	25.22
637.073	25.32
637.264	25.36
637.455	25.46
637.646	25.51
637.837	25.51
638.028	25.38
638.219	25.34
638.41	25.25
638.601	25.27
638.792	25.27
638.983	25.22
639.174	25.2
639.365	25.28
639.556	25.19
639.747	25.16
639.938	25.29
640.129	25.16
640.32	25.08
640.511	25.06
640.701	25.04
640.892	24.95
641.083	25
641.274	24.93
641.465	24.93
641.655	24.84
641.846	24.73
642.037	24.65
642.228	24.59
642.418	24.56
642.609	24.52
642.8	24.5
642.99	24.46
643.181	24.48
643.372	24.45
643.562	24.43
643.753	24.44
643.943	24.36
644.134	24.33
644.324	24.27
644.515	24.28
644.705	24.18
644.896	24.25
645.086	24.31
645.277	24.23
645.467	24.17
645.658	24.17
645.848	24.03
646.038	23.99
646.229	23.95
646.419	23.98
646.61	23.98
646.8	24
646.99	23.88
647.18	23.95
647.371	23.93
647.561	23.81
647.751	23.89
647.941	23.92
648.132	23.84
648.322	23.73
648.512	23.72
648.702	23.63
648.892	23.64
649.082	23.62
649.272	23.66
649.462	23.68
649.653	23.63
649.843	23.58
650.033	23.51
650.223	23.44
650.413	23.44
650.603	23.47
650.793	23.33
650.983	23.29
651.172	23.31
651.362	23.13
651.552	23.01
651.742	22.99
651.932	22.92
652.122	22.78
652.312	22.71
652.502	22.58
652.691	22.4
652.881	22.34
653.071	22.24
653.261	22.19
653.45	22.1
653.64	22.15
653.83	22.05
654.019	21.99
654.209	21.85
654.399	21.75
654.588	21.6
654.778	21.4
654.968	21.25
655.157	21.19
655.347	21.08
655.536	20.79
655.726	20.63
655.915	20.36
656.105	20.14
656.294	19.98
656.484	19.85
656.673	19.72
656.863	19.64
657.052	19.48
657.241	19.24
657.431	18.96
657.62	18.84
657.809	18.57
657.999	18.46
658.188	18.19
658.377	18.08
658.567	17.82
658.756	17.67
658.945	17.42
659.134	17.35
659.324	17.11
659.513	16.93
659.702	16.69
659.891	16.47
660.08	16.24
660.269	16.11
660.458	15.89
660.648	15.77
660.837	15.68
661.026	15.55
661.215	15.34
661.404	15.12
661.593	14.89
661.782	14.59
661.971	14.34
662.16	14.15
662.349	14.02
662.538	13.84
662.726	13.8
662.915	13.73
663.104	13.66
663.293	13.53
663.482	13.39
663.671	13.18
663.86	12.92
664.048	12.65
664.237	12.51
664.426	12.4
664.615	12.27
664.803	12.23
664.992	12.14
665.181	12.01
665.369	11.89
665.558	11.78
665.747	11.6
665.935	11.58
666.124	11.47
666.312	11.37
666.501	11.32
666.69	11.33
666.878	11.25
667.067	11.05
667.255	11.03
667.444	11
667.632	10.86
667.82	10.72
668.009	10.81
668.197	10.67
668.386	10.51
668.574	10.44
668.762	10.39
668.951	10.26
669.139	10.27
669.327	10.27
669.516	10.3
669.704	10.23
669.892	10.35
670.08	10.31
670.269	10.18
670.457	10.06
670.645	10.11
670.833	10.04
671.021	10.08
671.21	10.13
671.398	10.28
671.586	10.24
671.774	10.17
671.962	10.13
672.15	10.19
672.338	10.1
672.526	10.13
672.714	10.16
672.902	10.2
673.09	10.2
673.278	10.23
673.466	10.28
673.654	10.42
673.842	10.4
674.03	10.45
674.218	10.49
674.405	10.5
674.593	10.46
674.781	10.54
674.969	10.64
675.157	10.62
675.344	10.72
675.532	10.75
675.72	10.82
675.908	10.83
676.095	10.9
676.283	10.89
676.471	10.95
676.658	10.94
676.846	10.99
677.033	11.17
677.221	11.35
677.409	11.45
677.596	11.58
677.784	11.69
677.971	11.71
678.159	11.81
678.346	11.9
678.534	12.03
678.721	12.17
678.909	12.24
679.096	12.28
679.283	12.34
679.471	12.31
679.658	12.35
679.846	12.53
680.033	12.72
680.22	12.92
680.408	13.11
680.595	13.27
680.782	13.36
680.969	13.5
681.157	13.62
681.344	13.86
681.531	13.9
681.718	13.97
681.905	14.08
682.093	14.32
682.28	14.32
682.467	14.63
682.654	15.06
682.841	15.32
683.028	15.48
683.215	15.8
683.402	16.02
683.589	16.15
683.776	16.27
683.963	16.46
684.15	16.77
684.337	17.07
684.524	17.36
684.711	17.77
684.898	18.06
685.085	18.34
685.271	18.72
685.458	18.94
685.645	19.14
685.832	19.45
686.019	19.77
686.205	20.03
686.392	20.34
686.579	20.82
686.766	21.24
686.952	21.53
687.139	21.84
687.326	22.52
687.512	22.9
687.699	23.44
687.886	24.1
688.072	24.66
688.259	24.98
688.445	25.56
688.632	26.02
688.818	26.55
689.005	26.98
689.191	27.61
689.378	27.87
689.564	28.31
689.751	28.77
689.937	29.45
690.124	29.8
690.31	30.75
690.496	31.4
690.683	32.22
690.869	32.79
691.055	33.78
691.242	34.37
691.428	35
691.614	35.4
691.8	35.92
691.987	36.41
692.173	37.13
692.359	37.93
692.545	38.79
692.731	39.69
692.918	40.37
693.104	40.68
693.29	41.32
693.476	41.84
693.662	42.45
693.848	43.12
694.034	43.77
694.22	44.28
694.406	44.78
694.592	45.36
694.778	45.91
694.964	46.97
695.15	47.7
695.336	48.41
695.522	49.1
695.708	49.91
695.894	50.23
696.08	50.66
696.265	51.21
696.451	51.93
696.637	52.39
696.823	52.98
697.009	53.94
697.194	54.65
697.38	55.04
697.566	55.74
697.751	56.2
697.937	56.51
698.123	57.09
698.308	57.85
698.494	58.13
698.68	58.68
698.865	59.21
699.051	59.83
699.236	60.04
699.422	60.56
699.607	61.3
699.793	61.64
699.978	62.04
700.164	62.57
700.349	63.28
700.535	63.66
700.72	64.33
700.906	64.89
701.091	65.41
701.276	65.68
701.462	66.1
701.647	66.16
701.832	66.35
702.018	66.38
702.203	66.71
702.388	67.03
702.573	67.66
702.759	68
702.944	68.69
703.129	68.92
703.314	69.2
703.499	69.57
703.684	69.81
703.87	70.05
704.055	70.66
704.24	70.99
704.425	70.95
704.61	71.23
704.795	71.33
704.98	71.08
705.165	71.37
705.35	71.76
705.535	72.03
705.72	72.1
705.905	72.45
706.09	72.63
706.275	72.95
706.459	73.13
706.644	73.47
706.829	73.53
707.014	73.77
707.199	73.88
707.384	74.02
707.568	74.29
707.753	74.93
707.938	74.84
708.123	75.11
708.307	75.38
708.492	75.83
708.677	75.74
708.861	75.98
709.046	76.3
709.231	76.5
709.415	76.67
709.6	76.84
709.784	77.14
709.969	77.28
710.153	77.78
710.338	77.57
710.522	77.57
710.707	77.7
710.891	77.62
711.076	77.34
711.26	77.37
711.445	77.54
711.629	77.84
711.813	77.87
711.998	78.07
712.182	77.98
712.366	78.31
712.551	78.25
712.735	78.33
712.919	78.51
713.103	79.04
713.288	78.98
713.472	79.24
713.656	79.6
713.84	79.37
714.024	79.59
714.208	79.84
714.393	79.3
714.577	79.29
714.761	79.24
714.945	79.21
715.129	79.28
715.313	79.89
715.497	80.31
715.681	80.34
715.865	80.77
716.049	80.81
716.233	80.9
716.417	80.5
716.601	80.83
716.785	80.72
716.968	80.89
717.152	80.83
717.336	81.24
717.52	81.51
717.704	81.52
717.888	81.2
718.071	81.37
718.255	81.21
718.439	81.13
718.622	80.88
718.806	81.13
718.99	81.44
719.174	81.28
719.357	81.38
719.541	81.87
719.724	82.36
719.908	81.92
720.092	82.29
720.275	81.83
720.459	82.14
720.642	82.02
720.826	82.12
721.009	81.65
721.193	82.12
721.376	81.53
721.559	81.27
721.743	81.11
721.926	81.41
722.11	81.52
722.293	81.9
722.476	82.48
722.66	82.66
722.843	82.71
723.026	82.66
723.21	82.26
723.393	82.39
723.576	82.86
723.759	83.02
723.942	83.27
724.126	83.39
724.309	83.05
724.492	82.85
724.675	83.18
724.858	82.89
725.041	83.46
725.224	83.58
725.407	83.36
725.59	83.2
725.774	83.53
725.957	83.54
726.14	83.54
726.322	83.8
726.505	83.94
726.688	84.36
726.871	83.68
727.054	83.71
727.237	84.13
727.42	84.7
727.603	84.1
727.786	84.29
727.968	84.29
728.151	84.46
728.334	84.22
728.517	84.6
728.699	85.11
728.882	84.96
729.065	84.33
729.248	83.77
729.43	83.21
729.613	83.02
729.796	82.72
729.978	83.14
730.161	83.29
730.343	83.15
730.526	82.91
730.708	83.29
730.891	83.34
731.073	83.58
731.256	84.41
731.438	84.52
731.621	84.55
731.803	84.48
731.986	84.26
732.168	83.95
732.35	84.33
732.533	84.58
732.715	83.94
732.898	84.67
733.08	84.97
733.262	85.67
733.444	85.97
733.627	86.26
733.809	85.78
733.991	85.87
734.173	84.91
734.355	85.04
734.538	84.87
734.72	85
734.902	84.92
735.084	85.32
735.266	84.35
735.448	85.02
735.63	85.2
735.812	85.62
735.994	85.42
736.176	86.05
736.358	86.31
736.54	87.09
736.722	87.69
736.904	87.46
737.086	87.05
737.268	86.43
737.45	85.99
737.632	85.62
737.814	85.96
737.995	86.63
738.177	87.62
738.359	87.33
738.541	86.79
738.723	86.92
738.904	86.96
739.086	86.67
739.268	86.78
739.449	86.94
739.631	87.16
739.813	86.56
739.994	86.41
740.176	85.85
740.358	85.54
740.539	84.93
740.721	85.13
740.902	85.49
741.084	86.26
741.265	86.88
741.447	87.26
741.628	87.53
741.81	87.15
741.991	86.42
742.172	86.51
742.354	86.84
742.535	87.27
742.717	86.47
742.898	87.15
743.079	86.78
743.261	86.52
743.442	84.95
743.623	84.93
743.804	84.07
743.986	83.78
744.167	83.3
744.348	84.01
744.529	84.49
744.71	84.3
744.891	84.54
745.073	85.29
745.254	85.55
745.435	85.35
745.616	86.39
745.797	85.96
745.978	85.05
746.159	85.54
746.34	85.7
746.521	86.28
746.702	86.24
746.883	86.57
747.064	86.16
747.245	86.24
747.426	85.26
747.606	85.54
747.787	85.09
747.968	86.1
748.149	86.26
748.33	85.57
748.51	85.8
748.691	85.92
748.872	84.39
749.053	84.73
749.233	85.08
749.414	85.49
749.595	85.98
749.775	86.62
749.956	86.86
750.137	86.63
750.317	85.31
750.498	86.03
750.678	85.6
750.859	86.1
751.04	86.04
751.22	86.9
751.4	85.62
751.581	85.23
751.761	84.4
751.942	84.13
752.122	84.71
752.303	84.41
752.483	84.12
752.663	83.24
752.844	83.96
753.024	82.83
753.204	83.24
753.385	83.65
753.565	83.62
753.745	83.19
753.925	84.32
754.106	85.37
754.286	86.06
754.466	85.92
754.646	86.58
754.826	86.22
755.006	85.52
755.187	85.76
755.367	86.97
755.547	87.6
755.727	87.49
755.907	86.65
756.087	86.69
756.267	86.3
756.447	85.28
756.627	85.87
756.807	85.51
756.987	84.19
757.167	84.29
757.346	84.88
757.526	83.8
757.706	84.99
757.886	86.64
758.066	86.02
758.246	86.06
758.425	87.38
758.605	88.03
758.785	87.47
758.965	87.48
759.144	86.53
759.324	85.44
759.504	84.55
759.683	82.53
759.863	83.59
760.043	84.1
760.222	85.07
760.402	84.65
760.581	86.24
760.761	84.03
760.94	82.83
761.12	82.9
761.299	84.59
761.479	84.09
761.658	85.61
761.838	87.32
762.017	87.03
762.197	86.53
762.376	86.36
762.555	85.44
762.735	84.41
762.914	82.9
763.093	82.13
763.273	82.04
763.452	84.16
763.631	83.73
763.81	84.51
763.99	85.25
764.169	84.86
764.348	83.97
764.527	85.78
764.706	85.6
764.885	84.4
765.064	86.19
765.243	85.56
765.423	83.77
765.602	82.9
765.781	82.42
765.96	81.98
766.139	80.91
766.318	81.27
766.497	81.13
766.676	80.71
766.854	79
767.033	79.68
767.212	79.02
767.391	80.06
767.57	81.25
767.749	82.86
767.928	83.19
768.106	83.06
768.285	83.42
768.464	83.73
768.643	83.57
768.821	85.27
769	86.83
769.179	86.38
769.357	85.1
769.536	83.39
769.715	81.29
769.893	79.52
770.072	79.09
770.25	79.33
770.429	81.87
770.607	80.75
770.786	83.14
770.964	84.08
771.143	84.78
771.321	85.43
771.5	86.85
771.678	85.9
771.857	84.8
772.035	83.72
772.213	81.98
772.392	83.03
772.57	82.93
772.748	84.89
772.927	86.45
773.105	85.81
773.283	82.91
773.461	80.88
773.64	78.64
773.818	77.77
773.996	78.29
774.174	80.5
774.352	81.61
774.531	80.92
774.709	80.95
774.887	81.38
775.065	81.2
775.243	80.28
775.421	81.63
775.599	80.92
775.777	79.69
775.955	77.62
776.133	79.29
776.311	78.6
776.489	79.33
776.667	80.41
776.844	81.54
777.022	78.78
777.2	78.08
777.378	78.17
777.556	76.92
777.734	75.8
777.911	79.56
778.089	79.15
778.267	79.78
778.445	79.35
778.622	80.34
778.8	78.83
778.978	81.75
779.155	82.32
779.333	81.6
779.511	81.67
779.688	82.21
779.866	82.19
780.043	82.23
780.221	83.39
780.398	82.36
780.576	82.48
780.753	79.54
780.931	77.7
781.108	75
781.286	73.01
781.463	72.46
781.64	74.83
781.818	78.32
781.995	81.66
782.172	84.43
782.35	85.48
782.527	82.92
782.704	79.54
782.882	80.95
783.059	79.5
783.236	77.95
783.413	80.9
783.59	82.81
783.768	82.64
783.945	87.2
784.122	90.22
784.299	86.98
784.476	84.46
784.653	86.25
784.83	83.95
785.007	81.01
785.184	81.88
785.361	82.22
785.538	79.4
785.715	78.57
785.892	78.51
786.069	77.44
786.246	77.25
786.423	74.3
786.6	75.3
786.776	76.98
786.953	74.56
787.13	74.98
787.307	77.73
787.484	73.93
787.66	73.33
787.837	74.27
788.014	75.99
788.191	75.19
788.367	77.57
788.544	80.63
788.721	82.38
788.897	77.22
789.074	76.33
789.25	76.22
789.427	74.16
789.603	73.43
789.78	75.74
789.956	75.22
790.133	73.11
790.309	72.34
790.486	74.12
790.662	74.81
790.839	75.95
791.015	78.79
791.192	73.29
791.368	73.43
791.544	73.94
791.721	76.32
791.897	79.37
792.073	89
792.249	88.94
792.426	86.13
792.602	83.18
792.778	83.23
792.954	74.62
793.13	73.13
793.307	73.96
793.483	74.68
793.659	69.91
793.835	77.32
794.011	77.77
794.187	76.65
794.363	72.75
794.539	73.68
794.715	73.56
794.891	71.63
795.067	74
795.243	78.06
795.419	80.79
795.595	75.55
795.771	79.75
795.947	77
796.122	77.74
796.298	73.11
796.474	79.77
796.65	76.08
796.826	74.43
797.001	74.28
797.177	76.47
797.353	73.21
797.529	77.33
797.704	81.77
797.88	80.03
798.056	77.36
798.231	75.09
798.407	72.73
798.582	74.16
798.758	75.16
798.934	78.33
799.109	80.99
799.285	78.81
799.46	78.67
799.636	77.09
799.811	75.49
799.986	75.34
800.162	77.23
800.337	73.77
800.513	74.95
800.688	72.58
800.863	70.78
801.039	67.18
801.214	65.16
801.389	63.01
801.565	70.07
801.74	69.46
801.915	71.85
802.09	73.14
802.265	73.87
802.441	73.1
802.616	71.62
802.791	69.88
802.966	73.91
803.141	68.9
803.316	66.78
803.491	67.11
803.666	59.84
803.841	57.56
804.016	59.93
804.191	62.57
804.366	64.21
804.541	74.23
804.716	71.37
804.891	75.03
805.066	73.94
805.241	79.25
805.416	79.05
805.591	81.36
805.765	81.36
805.94	78.26
806.115	75.58
806.29	69.22
806.464	74.67
806.639	69.19
806.814	69.93
806.989	64.65
807.163	66.02
807.338	61.4
807.512	71.2
807.687	69.74
807.862	73.67
808.036	76.98
808.211	70.18
808.385	60.81
808.56	66.3
808.734	68.61
808.909	68.94
809.083	74.59
809.258	82.97
809.432	81.78
809.606	78.36
809.781	82.27
809.955	78.02
810.13	76.44
810.304	73.02
810.478	72.78
810.652	69.59
810.827	71.05
811.001	67.86
811.175	70.17
811.349	66.11
811.524	69.49
811.698	72.31
811.872	77.61
812.046	74.43
812.22	78.29
812.394	79.17
812.568	75.31
812.742	71.38
812.916	71.49
813.09	71.39
813.264	70.47
813.438	68.12
813.612	74.41
813.786	72.35
813.96	80.66
814.134	86.6
814.308	86.1
814.482	82.84
814.656	81.98
814.83	72.16
815.003	67.41
815.177	75.73
815.351	78.62
815.525	82.17
815.698	86.06
815.872	92.04
816.046	89.52
816.219	84.52
816.393	78.7
816.567	85.82
816.74	74.71
816.914	70.07
817.088	62.58
817.261	55.9
817.435	49.55
817.608	54.23
817.782	47.63
817.955	61.03
818.129	72.83
818.302	75.99
818.475	70.06
818.649	67.23
818.822	56.9
818.996	64.2
819.169	57.65
819.342	56.62
819.516	65.66
819.689	71.97
819.862	62.26
820.035	64.3
820.209	72.97
820.382	70.05
820.555	60.03
820.728	63.66
820.901	67.46
821.075	69.66
821.248	78.44
821.421	77.8
821.594	79.31
821.767	84.88
821.94	76.09
822.113	77.09
822.286	88.54
822.459	82.2
822.632	71.23
822.805	82.28
822.978	79.61
823.151	72.58
823.324	67.67
823.496	74.56
823.669	69.53
823.842	69.59
824.015	61.62
824.188	44.62
824.361	43.53
824.533	43.42
824.706	28.08
824.879	45.51
825.051	77.64
825.224	69.82
825.397	64.09
825.569	71.93
825.742	73.98
825.915	61.35
826.087	75.67
826.26	72.49
826.432	61.28
826.605	64.05
826.777	68.38
826.95	57.83
827.122	58.92
827.295	77.32
827.467	68.23
827.64	67.18
827.812	56.99
827.984	62.63
828.157	55.28
828.329	46.01
828.501	49.06
828.674	76.22
828.846	80.36
829.018	85.91
829.19	87.76
829.363	88.81
829.535	85.83
829.707	76.75
829.879	61.56
830.051	61.15
830.223	50.88
830.395	38.24
830.568	23.45
830.74	23.84
830.912	39.44
831.084	46.14
831.256	45.22
831.428	56.48
831.6	87.54
831.772	68.39
831.943	59.63
832.115	72.64
832.287	68.39
832.459	37.63
832.631	26.29
832.803	49.72
832.975	52.88
833.146	59.52
833.318	57.61
833.49	65.11
833.662	49.51
833.833	52.15
834.005	64.72
834.177	59.04
834.348	55.84
834.52	65.27
834.692	58.79
834.863	53.53
835.035	60.01
835.206	71.06
835.378	76.91
835.549	87
835.721	74.87
835.892	62.13
836.064	50.93
836.235	40.96
836.407	41.37
836.578	40.47
836.749	45.07
836.921	41.27
837.092	36.53
837.264	38.84
837.435	41.54
837.606	52.21
837.777	50.05
837.949	46.24
838.12	53.94
838.291	58.72
838.462	58.42
838.633	49.96
838.805	59.06
838.976	60.98
839.147	49.36
839.318	36.08
839.489	50.19
839.66	51.62
839.831	41.58
840.002	54.95
840.173	59.06
840.344	63.89
840.515	68.82
840.686	82.95
840.857	67.74
841.028	87.99
841.199	78
841.369	78.13
841.54	72.19
841.711	71.54
841.882	65.36
842.053	77.19
842.223	49.24
842.394	63.32
842.565	80.04
842.736	79.36
842.906	56.53
843.077	98.93
843.248	139.19
843.418	101.33
843.589	49.66
843.759	30.4
843.93	-25.37
844.101	1.78
844.271	17.75
844.442	46.8
844.612	58.04
844.783	110.93
844.953	124.59
845.123	-23000
845.294	119.4
845.464	117.67
845.635	115.57
845.805	88.41
845.975	96.07
846.146	92.03
846.316	93.2
846.486	79.22
846.656	72.66
846.827	42.92
846.997	40.87
847.167	21.11
847.337	30.43
847.507	21.03
847.677	36.2
847.848	58.19
848.018	101.58
848.188	58.28
848.358	46.91
848.528	45.08
848.698	0.86
848.868	2.76
849.038	36.74
849.208	83.18
849.378	76.75
849.548	79.07
849.718	50.15
849.887	46.21
850.057	33.81
850.227	43.4
850.397	52.25
850.567	50.83
850.737	49.49
850.906	51.26
851.076	38.98
851.246	25.1
851.415	28.53
851.585	40.04
851.755	24.33
851.924	35.91
852.094	86.58
852.264	71.52
852.433	22.66
852.603	41.71
852.772	29.31
852.942	-4.89
853.111	-9.55
853.281	20.27
853.45	24.9
853.62	38.86
853.789	51.66
853.959	61.51
854.128	60.63
854.297	49.05
854.467	50.1
854.636	45.45
854.805	14.29
854.975	-35.43
855.144	21.36
855.313	34.1
855.482	46.17
855.652	53.27
855.821	51.36
855.99	45.45
856.159	53.2
856.328	33.85
856.497	8.17
856.667	25.99
856.836	56.44
857.005	54.91
857.174	31.42
857.343	23.52
857.512	47.92
857.681	30.1
857.85	-271.31
858.019	30.64
858.188	56.6
858.356	0.23
858.525	-23.35
858.694	18.27
858.863	9.91
859.032	-6.72
859.201	-59.75
859.369	49.83
859.538	-21.75
859.707	-58.87
859.876	-17.52
860.044	28.59
860.213	28.77
860.382	56.8
860.55	74.61
860.719	88.24
860.888	71.93
861.056	56.24
861.225	61.51
861.393	86.94
861.562	80.95
861.73	88.39
861.899	84.17
862.067	96.22
862.236	57.71
862.404	54.73
862.572	7.64
862.741	6.25
862.909	17.69
863.078	19.58
863.246	4.34
863.414	36.8
863.582	20.17
863.751	-67.18
863.919	-186.59
864.087	-33.55
864.255	441.1
864.424	-16.78
864.592	49.6
864.76	33.96
864.928	10.67
865.096	26.23
865.264	20.96
865.432	11
865.6	18.35
865.768	10.81
865.936	23.05
866.104	36.32
866.272	41.89
866.44	31.18
866.608	48.91
866.776	45.7
866.944	42.66
867.112	40.98
867.28	52.56
867.448	32.85
867.615	70.08
867.783	35.89
867.951	36.32
868.119	37.78
868.286	78.42
868.454	75.29
868.622	77.28
868.789	88.08
868.957	82.47
869.125	52.76
869.292	48.75
869.46	23.47
869.627	-27.25
869.795	-380.88
869.963	502.27
870.13	567.21
870.298	13.67
870.465	-9.34
870.632	13.32
870.8	29.31
870.967	0.71
871.135	-20.96
871.302	5.79
871.469	9.04
871.637	39.85
871.804	43.65
871.971	58.52
872.139	32.35
872.306	34.01
872.473	2.29
872.64	-3.89
872.807	-58.31
872.975	-26.43
873.142	-27.5
873.309	14.2
873.476	50.99
873.643	105.16
873.81	81.01
873.977	49.92
874.144	20.22
874.311	18.1
874.478	-7.11
874.645	25
874.812	41.33
874.979	18.44
875.146	13.63
875.313	48.14
875.48	14.93
875.647	-1.95
875.813	56.33
875.98	84.33
876.147	26.88
876.314	17.24
876.481	33.38
876.647	20.54
876.814	-3.99
876.981	21.74
877.147	5050
877.314	-30.6
877.481	495.45
877.647	-295.45
877.814	50.49
877.98	40.31
878.147	49.17
878.314	144.62
878.48	120.33
878.647	107.07
878.813	87.96
878.979	78.46
879.146	39.88
879.312	21.81
879.479	49.53
879.645	87.48
879.811	96.62
879.978	104.49
880.144	84.79
880.31	43.52
880.477	24.21
880.643	9.02
880.809	19.22
880.975	32.15
881.142	-92.97
881.308	-3063.64
881.474	-17.57
881.64	24.34
881.806	46.95
881.972	-47.2
882.138	-64.38
882.304	71.87
882.47	57.14
882.636	-180.65
882.802	-28.79
882.968	218.31
883.134	-3.31
883.3	25.9
883.466	82.5
883.632	69.76
883.798	45.92
883.964	101.58
884.129	158.88
884.295	104.39
884.461	154.46
884.627	75.98
884.793	76.86
884.958	80.05
885.124	86.81
885.29	87.25
885.455	123.48
885.621	42.82
885.787	16.46
885.952	-15.66
886.118	-57.71
886.283	-26.1
886.449	-42.89
886.614	-33.88
886.78	-14.12
886.945	1.46
887.111	6.57
887.276	33.44
887.442	43.18
887.607	59.08
887.773	65.71
887.938	80.29
888.103	121.91
888.269	110.76
888.434	125.3
888.599	244
888.764	109.73
888.93	110.34
889.095	100.48
889.26	148.52
889.425	116.45
889.59	122.02
889.756	75.19
889.921	75.76
890.086	73.02
890.251	92.35
890.416	98.24
890.581	123.67
890.746	70.57
890.911	5.57
891.076	-67.7
891.241	12.08
891.406	44.04
891.571	80.25
891.736	95.87
891.901	100.34
892.065	82.62
892.23	100
892.395	75.44
892.56	50.6
892.725	-1.5
892.889	-14.19
893.054	-19.65
893.219	-117.61
893.384	-257.42
893.548	741.77
893.713	767.74
893.878	262.71
