Data from Ofra_PS_Phys_4HS23_Reflection_2.txt Node
Date: Tue Jul 20 20:40:20 EDT 2021
User: USUARIO
Spectrometer: FLMT01687
Trigger mode: 0
Integration Time (sec): 1.042999E0
Scans to average: 2
Electric dark correction enabled: true
Nonlinearity correction enabled: false
Boxcar width: 2
XAxis mode: Wavelengths
Number of Pixels in Spectrum: 3648
>>>>>Begin Spectral Data<<<<<
179.494	145.07
179.716	57.33
179.937	64.09
180.158	18.02
180.38	26.28
180.601	36.74
180.823	39.35
181.044	54.22
181.265	-165.17
181.486	20
181.708	106.99
181.929	92.45
182.15	175.25
182.372	32.34
182.593	43.98
182.814	-25.16
183.035	0.64
183.257	-11.19
183.478	-264.88
183.699	-181.52
183.92	-42.51
184.141	-76.95
184.363	-61.31
184.584	16.46
184.805	2.29
185.026	50.19
185.247	13.16
185.468	31.01
185.689	53.62
185.91	55.56
186.132	29.91
186.353	61.26
186.574	80.76
186.795	47.54
187.016	79.45
187.237	59.93
187.458	59.46
187.679	49.59
187.9	55.63
188.121	37.36
188.342	46.65
188.563	42.02
188.784	43.03
189.005	41.63
189.226	47.1
189.447	41.42
189.667	45.61
189.888	50.17
190.109	68.32
190.33	94.96
190.551	130.11
190.772	160.19
190.993	116.48
191.214	73.53
191.434	84.86
191.655	88.68
191.876	71.27
192.097	72.23
192.318	93.25
192.538	81.45
192.759	56.99
192.98	53.62
193.201	45
193.421	37.75
193.642	36.13
193.863	51.06
194.083	65.45
194.304	51.72
194.525	35.88
194.745	41.34
194.966	27.91
195.187	23.72
195.407	16.03
195.628	54.08
195.848	18.8
196.069	46.25
196.29	50.14
196.51	72.19
196.731	64.89
196.951	71.09
197.172	80.8
197.392	69.8
197.613	62.91
197.833	79.01
198.054	100.7
198.274	99.57
198.495	107.82
198.715	120.86
198.936	78.98
199.156	56.25
199.377	63.71
199.597	71.48
199.817	69.64
200.038	78.42
200.258	77.46
200.479	59.3
200.699	57.07
200.919	58.9
201.14	69.44
201.36	82.88
201.58	185.23
201.801	82.01
202.021	29.96
202.241	17.9
202.461	34.19
202.682	26.25
202.902	53.22
203.122	128.02
203.342	125.15
203.563	105.53
203.783	118.84
204.003	98.22
204.223	51.15
204.443	45.67
204.663	41.97
204.884	26.76
205.104	22.66
205.324	32.16
205.544	37.74
205.764	46.67
205.984	44.54
206.204	65.37
206.424	53.42
206.644	43.59
206.864	41.63
207.084	64.84
207.304	62.43
207.525	67.6
207.745	79.58
207.964	69.32
208.184	40.91
208.404	52.8
208.624	77.1
208.844	68.54
209.064	82.42
209.284	104.76
209.504	62.97
209.724	62.56
209.944	78.47
210.164	63.79
210.384	56.29
210.604	69.6
210.823	49.92
211.043	46.39
211.263	47.39
211.483	57.89
211.703	43.37
211.922	47.83
212.142	85.19
212.362	93.82
212.582	58.01
212.801	69.25
213.021	59.73
213.241	19.41
213.461	7.07
213.68	-13.6
213.9	-6.96
214.12	-19.67
214.339	-19.59
214.559	7.43
214.779	7.85
214.998	23.56
215.218	36.65
215.438	30.01
215.657	46.46
215.877	60.05
216.096	56.7
216.316	58.22
216.535	80.86
216.755	49.91
216.974	54.09
217.194	52
217.413	49.39
217.633	38.9
217.852	57.24
218.072	57.04
218.291	47.54
218.511	52.02
218.73	64.04
218.95	55.22
219.169	49.63
219.389	68.05
219.608	70.44
219.827	59.04
220.047	53.47
220.266	47.96
220.485	59.98
220.705	48.16
220.924	34.54
221.143	39.93
221.363	36.87
221.582	-9.35
221.801	-18.12
222.021	7.51
222.24	10.53
222.459	5.78
222.678	35.54
222.897	33.14
223.117	30.75
223.336	36.38
223.555	79.84
223.774	63.77
223.993	78.97
224.213	68.92
224.432	59.81
224.651	54.11
224.87	52.45
225.089	44.59
225.308	39.7
225.527	59.36
225.746	60.33
225.965	67.96
226.184	62.88
226.404	76.33
226.623	84.12
226.842	57.05
227.061	59.92
227.28	50.47
227.499	50.9
227.718	41.47
227.936	49.73
228.155	63.17
228.374	60.35
228.593	59.62
228.812	60.45
229.031	64.07
229.25	42.45
229.469	40.97
229.688	32.54
229.907	29.05
230.125	43.56
230.344	70.46
230.563	59.08
230.782	72.97
231.001	87.19
231.22	55.58
231.438	27.6
231.657	25.49
231.876	13.47
232.095	-6.43
232.313	19.54
232.532	37.73
232.751	36.48
232.969	32.55
233.188	49.59
233.407	59.09
233.625	43.37
233.844	55.86
234.063	57.57
234.281	55.65
234.5	55.34
234.719	72.13
234.937	69.74
235.156	64.2
235.374	53.81
235.593	37.89
235.811	30.95
236.03	26.79
236.249	33.84
236.467	35.96
236.686	45.84
236.904	52.68
237.123	57.51
237.341	60.61
237.559	65.2
237.778	62.09
237.996	44.82
238.215	23.18
238.433	29.6
238.652	39.75
238.87	40.98
239.088	59.9
239.307	58.5
239.525	39.25
239.743	29.56
239.962	40.29
240.18	18.35
240.398	29.71
240.617	47.79
240.835	32.92
241.053	30.49
241.271	42.54
241.49	34.1
241.708	50.85
241.926	51.65
242.144	43.73
242.363	31.96
242.581	41.77
242.799	21.29
243.017	35.96
243.235	31.7
243.453	24.99
243.672	24.61
243.89	23.99
244.108	21.4
244.326	34.77
244.544	48.59
244.762	51.9
244.98	53.34
245.198	50.89
245.416	36.68
245.634	37.26
245.852	33.86
246.07	22.66
246.288	3.63
246.506	17.46
246.724	14.75
246.942	23.12
247.16	21.35
247.378	57.5
247.596	55.98
247.814	49.36
248.032	38.13
248.25	56.05
248.468	50.57
248.685	55.76
248.903	62.55
249.121	63.25
249.339	61.56
249.557	55.09
249.775	51.65
249.992	44.69
250.21	51.54
250.428	41.24
250.646	49.52
250.863	44.15
251.081	15.22
251.299	36.5
251.517	36.6
251.734	27.13
251.952	29.66
252.17	54.8
252.387	47.06
252.605	43.32
252.823	57.11
253.04	56.88
253.258	61.21
253.475	65.03
253.693	80.19
253.911	77.61
254.128	95.76
254.346	92.51
254.563	68.33
254.781	43.26
254.998	47.94
255.216	51.14
255.433	21.29
255.651	24.54
255.868	87.67
256.086	81.62
256.303	46.31
256.521	54.53
256.738	40.3
256.956	11.61
257.173	16.1
257.39	36.04
257.608	29.29
257.825	38.57
258.043	52.31
258.26	56.43
258.477	50.41
258.695	63.12
258.912	68.07
259.129	77.19
259.346	59.85
259.564	66.34
259.781	71.15
259.998	76.21
260.216	55.24
260.433	61.98
260.65	64.72
260.867	79.15
261.084	77.95
261.302	89.58
261.519	94.03
261.736	84.17
261.953	61.09
262.17	43.64
262.387	45.18
262.604	40.88
262.822	41.08
263.039	53.44
263.256	62.38
263.473	57.01
263.69	59.64
263.907	79.63
264.124	45
264.341	56.18
264.558	58.54
264.775	73.66
264.992	44.79
265.209	74.48
265.426	61.02
265.643	69.65
265.86	61.51
266.077	39.19
266.294	41.33
266.51	37.13
266.727	30.66
266.944	29.66
267.161	39.78
267.378	43.79
267.595	51.95
267.812	41.08
268.028	46.7
268.245	42.14
268.462	28.91
268.679	27.88
268.896	44.02
269.112	39.84
269.329	45.35
269.546	58.6
269.763	54.45
269.979	53.04
270.196	52.27
270.413	44.35
270.629	31.77
270.846	34.07
271.063	31.89
271.279	33.56
271.496	43.93
271.712	48.76
271.929	59.84
272.146	64.81
272.362	53.52
272.579	47.75
272.795	52.83
273.012	48.34
273.228	32.87
273.445	38.12
273.661	42.79
273.878	50.03
274.094	59.82
274.311	75.13
274.527	72.08
274.744	70.98
274.96	53.58
275.177	42.22
275.393	26.71
275.609	1.57
275.826	-5.33
276.042	4.47
276.259	-1.88
276.475	30.92
276.691	29.44
276.908	21.77
277.124	16.02
277.34	27.61
277.557	19.61
277.773	32.18
277.989	37.28
278.205	51.83
278.422	45.39
278.638	56.11
278.854	63.83
279.07	58.16
279.286	60.93
279.503	64.66
279.719	44.03
279.935	49.87
280.151	50.99
280.367	45.49
280.583	46.08
280.799	54.2
281.016	34.1
281.232	35.48
281.448	50.22
281.664	57.78
281.88	51.38
282.096	65.31
282.312	67.81
282.528	65.94
282.744	58.39
282.96	63.62
283.176	30.94
283.392	23.62
283.608	-8.14
283.824	4.58
284.04	-8.65
284.256	15.47
284.471	20.67
284.687	45.8
284.903	33.47
285.119	41.08
285.335	46.54
285.551	49.54
285.767	20.61
285.982	21.62
286.198	27.91
286.414	34.67
286.63	29.51
286.846	34.78
287.061	41.64
287.277	26.65
287.493	5.99
287.709	-2.54
287.924	4.53
288.14	-0.62
288.356	5.62
288.571	6.01
288.787	22.81
289.003	17.33
289.218	24.22
289.434	34.67
289.65	35.52
289.865	26.47
290.081	52.83
290.296	61.47
290.512	61.26
290.727	80.13
290.943	66.36
291.159	55.76
291.374	54.86
291.59	37.25
291.805	21.1
292.021	41.37
292.236	46.44
292.451	49.36
292.667	68.51
292.882	58.29
293.098	49.17
293.313	48.71
293.529	55.07
293.744	45.31
293.959	59.12
294.175	69.93
294.39	72.59
294.605	49
294.821	66.12
295.036	56.31
295.251	52.6
295.467	48.02
295.682	39.67
295.897	17.47
296.112	25.82
296.328	24.92
296.543	20.63
296.758	30.9
296.973	39.43
297.188	33.57
297.404	33.36
297.619	42.3
297.834	36.74
298.049	32.97
298.264	17.34
298.479	22.77
298.694	29.49
298.909	40.63
299.125	52.77
299.34	64.67
299.555	54.15
299.77	52.05
299.985	47.2
300.2	41.4
300.415	45.57
300.63	47.17
300.845	25.09
301.06	46.25
301.275	47.67
301.49	42.01
301.704	36.91
301.919	55.89
302.134	37.77
302.349	32.85
302.564	40.06
302.779	27.32
302.994	22.07
303.209	23.54
303.423	41.74
303.638	45.36
303.853	46.46
304.068	52.71
304.283	59.56
304.497	46.89
304.712	41.97
304.927	61.01
305.142	57.8
305.356	56.25
305.571	57.75
305.786	52.83
306	52.97
306.215	47.07
306.43	39.56
306.644	39.49
306.859	54.37
307.074	53.97
307.288	54.92
307.503	42.13
307.717	25.3
307.932	15.03
308.147	11.36
308.361	3.82
308.576	5.58
308.79	20.76
309.005	13.24
309.219	7.02
309.434	6
309.648	14.97
309.863	-3.46
310.077	12.89
310.292	21.66
310.506	48.53
310.72	33.19
310.935	49.79
311.149	44.53
311.364	31.14
311.578	28.88
311.792	37.62
312.007	30.81
312.221	47.75
312.435	38.59
312.649	29.59
312.864	50.13
313.078	47.45
313.292	43.03
313.507	50.95
313.721	47.84
313.935	32.97
314.149	44.9
314.363	41.24
314.578	30.43
314.792	39.02
315.006	38.84
315.22	13.51
315.434	3.4
315.648	26.39
315.862	25.71
316.077	35.33
316.291	44.45
316.505	44.57
316.719	48.26
316.933	39.03
317.147	23.18
317.361	29.56
317.575	39.63
317.789	9.57
318.003	3.91
318.217	23.6
318.431	26.7
318.645	17.4
318.859	27.45
319.073	42.48
319.287	34.34
319.5	32.71
319.714	39.89
319.928	40.08
320.142	27.68
320.356	34.63
320.57	36.15
320.784	29.68
320.997	36.04
321.211	42.38
321.425	41.36
321.639	45.62
321.853	51.99
322.066	56.5
322.28	54.35
322.494	47.82
322.707	36.91
322.921	40.23
323.135	29.4
323.349	25.85
323.562	27.47
323.776	33.99
323.989	37.57
324.203	27.38
324.417	39.62
324.63	44.78
324.844	49.05
325.057	54.98
325.271	70.61
325.485	57.05
325.698	63.01
325.912	53.55
326.125	44
326.339	39.39
326.552	52.24
326.766	48.9
326.979	55.86
327.193	63.68
327.406	57.59
327.619	47.57
327.833	37.42
328.046	35.46
328.26	28.62
328.473	33.09
328.686	25.14
328.9	36.45
329.113	28.38
329.326	38.33
329.54	18.87
329.753	27.12
329.966	29.27
330.179	38.34
330.393	24.16
330.606	41.94
330.819	39.43
331.032	39.33
331.246	49.8
331.459	55.69
331.672	58.28
331.885	63.99
332.098	61.13
332.311	54.74
332.525	54.6
332.738	46.61
332.951	38.8
333.164	31.7
333.377	33.9
333.59	24.67
333.803	29.43
334.016	31.21
334.229	24.17
334.442	18.45
334.655	24.61
334.868	30.18
335.081	32.06
335.294	26.42
335.507	31.04
335.72	43.61
335.933	45.06
336.146	45.34
336.359	47.24
336.572	45.5
336.785	43.05
336.997	37.44
337.21	41.93
337.423	64.61
337.636	75.34
337.849	62.25
338.062	74.69
338.274	76.18
338.487	70.14
338.7	60.01
338.913	53.69
339.125	45.21
339.338	24.11
339.551	25.68
339.763	32.97
339.976	36.06
340.189	32.73
340.402	50.71
340.614	32.69
340.827	46.04
341.039	66.47
341.252	54.62
341.465	53.43
341.677	58.4
341.89	25.7
342.102	15.98
342.315	39.95
342.527	53.65
342.74	48.85
342.952	57.52
343.165	48.18
343.377	46.32
343.59	36.78
343.802	38.45
344.015	34.57
344.227	44.8
344.44	35.79
344.652	29.73
344.864	26.52
345.077	21
345.289	22.75
345.502	13.97
345.714	10.19
345.926	23.26
346.139	29.22
346.351	21.9
346.563	48.37
346.775	48.14
346.988	37.7
347.2	43.05
347.412	51.19
347.624	38.83
347.837	49.07
348.049	59.09
348.261	54.49
348.473	22.97
348.685	28.58
348.897	19.52
349.11	33.99
349.322	28.71
349.534	32.55
349.746	26.5
349.958	21.48
350.17	19.76
350.382	20.27
350.594	37.82
350.806	45.51
351.018	52.93
351.23	47.41
351.442	61.06
351.654	51.37
351.866	50.68
352.078	53.08
352.29	53.71
352.502	42.78
352.714	40.69
352.926	46.05
353.138	38.36
353.35	26.45
353.561	42.08
353.773	34.31
353.985	15.53
354.197	20.76
354.409	29.63
354.621	19.4
354.832	23.95
355.044	45.03
355.256	41.58
355.468	28.69
355.679	43.42
355.891	45.29
356.103	23.07
356.314	17.54
356.526	43.71
356.738	24.68
356.949	22.25
357.161	45.6
357.373	52.34
357.584	50.09
357.796	55.12
358.008	58.11
358.219	49.9
358.431	38.89
358.642	30.22
358.854	25.45
359.065	18.94
359.277	9.73
359.488	33.66
359.7	20.03
359.911	30.88
360.123	14.1
360.334	11.8
360.546	20.31
360.757	40.12
360.969	30.09
361.18	46.88
361.391	49.51
361.603	31.51
361.814	22.29
362.025	31.44
362.237	17.67
362.448	10.68
362.659	14.87
362.871	30.44
363.082	23.15
363.293	38.39
363.504	33.36
363.716	39.85
363.927	26.05
364.138	25.41
364.349	19.92
364.56	22.52
364.772	33.25
364.983	41.55
365.194	46.74
365.405	52.38
365.616	57.03
365.827	46.03
366.038	37.67
366.25	24.7
366.461	30.57
366.672	26.58
366.883	19.87
367.094	35.19
367.305	43.51
367.516	44.93
367.727	54.45
367.938	52.15
368.149	34.38
368.36	41.12
368.571	33.6
368.781	35.92
368.992	38.72
369.203	50.51
369.414	34.43
369.625	32.52
369.836	30.93
370.047	33.55
370.258	34.29
370.468	52.58
370.679	55.4
370.89	44.58
371.101	42.3
371.312	46.59
371.522	32.82
371.733	34.46
371.944	37.71
372.155	37.19
372.365	25.75
372.576	30.69
372.787	30.4
372.997	31
373.208	36.88
373.419	29.71
373.629	14.83
373.84	1.98
374.05	4.71
374.261	2.9
374.472	18.44
374.682	33.6
374.893	43.79
375.103	47.05
375.314	46
375.524	48.64
375.735	45.06
375.945	39.79
376.156	35.66
376.366	36.37
376.577	21.17
376.787	25.81
376.997	21.26
377.208	25.57
377.418	28.86
377.629	44.3
377.839	39.93
378.049	55.3
378.26	49.71
378.47	33.31
378.68	23.52
378.89	29.29
379.101	27.68
379.311	48.52
379.521	71.64
379.732	66.44
379.942	56.4
380.152	43.73
380.362	31.11
380.572	24.68
380.783	34.03
380.993	39.43
381.203	39
381.413	29.6
381.623	30.93
381.833	29.77
382.043	22.24
382.253	28
382.463	36.38
382.674	36.86
382.884	32.18
383.094	28.91
383.304	30.21
383.514	35.59
383.724	24.31
383.934	20.98
384.144	26.83
384.353	27.57
384.563	18.77
384.773	37.42
384.983	40.15
385.193	37.31
385.403	28.22
385.613	35.12
385.823	17.9
386.033	14.55
386.242	5.21
386.452	4.96
386.662	2.4
386.872	16.49
387.082	15.46
387.291	24.96
387.501	32.69
387.711	32.5
387.921	26.14
388.13	28.74
388.34	22.09
388.55	16.64
388.759	9.05
388.969	2.86
389.179	8.6
389.388	9.3
389.598	10.55
389.807	18.64
390.017	20.94
390.227	12.59
390.436	17.83
390.646	14.44
390.855	13.23
391.065	13.87
391.274	16.06
391.484	13.47
391.693	16.53
391.903	15.67
392.112	12.04
392.322	10.05
392.531	10.07
392.74	7.18
392.95	3.99
393.159	5.66
393.369	7.2
393.578	7
393.787	8.64
393.997	11.51
394.206	11.61
394.415	11.8
394.625	12.87
394.834	11.65
395.043	10.26
395.252	9.81
395.462	7.63
395.671	5.7
395.88	6.5
396.089	5.06
396.298	4.5
396.508	5.61
396.717	5.64
396.926	4.83
397.135	5.62
397.344	5.63
397.553	5.93
397.762	6.23
397.971	5.6
398.181	5.77
398.39	5.99
398.599	5.37
398.808	4.78
399.017	5.65
399.226	6.14
399.435	5.8
399.644	6.24
399.853	6.61
400.062	6.6
400.27	6.24
400.479	6.39
400.688	6.41
400.897	6.32
401.106	5.8
401.315	5.72
401.524	5.58
401.733	5.25
401.941	4.83
402.15	4.37
402.359	4.1
402.568	4.24
402.777	4.16
402.985	4.22
403.194	4.81
403.403	4.91
403.612	4.81
403.82	4.7
404.029	4.79
404.238	4.69
404.446	4.75
404.655	4.43
404.864	4.72
405.072	4.77
405.281	4.85
405.489	4.74
405.698	4.89
405.906	4.62
406.115	4.55
406.324	4.37
406.532	4.29
406.741	4.41
406.949	4.52
407.158	4.58
407.366	4.66
407.574	4.66
407.783	4.57
407.991	4.33
408.2	4.4
408.408	4.36
408.617	4.3
408.825	4.37
409.033	4.6
409.242	4.38
409.45	4.42
409.658	4.38
409.867	4.14
410.075	4.06
410.283	4.05
410.491	3.98
410.7	4.21
410.908	4.27
411.116	4.39
411.324	4.62
411.533	4.67
411.741	4.57
411.949	4.73
412.157	4.58
412.365	4.52
412.573	4.39
412.781	4.25
412.99	4.24
413.198	4.21
413.406	4.12
413.614	4.24
413.822	4.36
414.03	4.31
414.238	4.25
414.446	4.13
414.654	4.12
414.862	3.93
415.07	3.95
415.278	4.04
415.486	4.03
415.694	3.9
415.902	3.98
416.109	3.88
416.317	3.85
416.525	3.95
416.733	3.99
416.941	4.05
417.149	4.01
417.357	4.1
417.564	4.16
417.772	4.08
417.98	4.17
418.188	4.17
418.395	4.05
418.603	3.93
418.811	4.07
419.019	3.99
419.226	4.12
419.434	4.26
419.642	4.2
419.849	4.12
420.057	4.04
420.265	4.05
420.472	3.83
420.68	3.84
420.887	3.94
421.095	3.95
421.302	3.8
421.51	3.79
421.717	3.86
421.925	3.86
422.132	3.81
422.34	3.73
422.547	3.67
422.755	3.63
422.962	3.37
423.17	3.25
423.377	3.47
423.585	3.55
423.792	3.37
423.999	3.48
424.207	3.42
424.414	3.36
424.621	3.29
424.829	3.36
425.036	3.28
425.243	3.47
425.451	3.47
425.658	3.46
425.865	3.59
426.072	3.71
426.28	3.83
426.487	3.86
426.694	3.89
426.901	3.82
427.108	3.74
427.315	3.59
427.523	3.61
427.73	3.6
427.937	3.42
428.144	3.34
428.351	3.27
428.558	3.19
428.765	3.14
428.972	3.32
429.179	3.42
429.386	3.48
429.593	3.42
429.8	3.43
430.007	3.43
430.214	3.44
430.421	3.33
430.628	3.3
430.835	3.23
431.042	3.08
431.249	3.05
431.456	3.22
431.662	3.33
431.869	3.4
432.076	3.5
432.283	3.39
432.49	3.24
432.697	3.17
432.903	3.11
433.11	2.96
433.317	3.05
433.524	3.08
433.73	2.94
433.937	3.03
434.144	3.14
434.35	3.22
434.557	3.23
434.764	3.26
434.97	3.16
435.177	3.11
435.384	3.01
435.59	3.03
435.797	3.15
436.003	3.21
436.21	3.27
436.416	3.1
436.623	2.95
436.829	2.89
437.036	2.96
437.242	2.94
437.449	3.05
437.655	3.17
437.862	3.19
438.068	3.21
438.275	3.21
438.481	3.34
438.687	3.3
438.894	3.23
439.1	3.13
439.307	3.13
439.513	3.08
439.719	3.15
439.926	3.22
440.132	3.25
440.338	3.23
440.544	3.08
440.751	3.05
440.957	3
441.163	2.92
441.369	2.98
441.575	3.09
441.782	3.09
441.988	3.07
442.194	3.15
442.4	3.05
442.606	3.06
442.812	3.06
443.018	3
443.224	2.86
443.431	2.87
443.637	2.79
443.843	2.74
444.049	2.84
444.255	2.98
444.461	3.04
444.667	3.16
444.873	3.1
445.079	3.1
445.284	3.03
445.49	2.98
445.696	2.99
445.902	3.05
446.108	3.09
446.314	3.14
446.52	3.18
446.726	3.13
446.931	3.28
447.137	3.3
447.343	3.27
447.549	3.27
447.755	3.25
447.96	3.14
448.166	3.07
448.372	3.1
448.578	3.09
448.783	3.07
448.989	3.05
449.195	3.04
449.4	3
449.606	2.92
449.812	2.95
450.017	2.86
450.223	2.88
450.428	2.93
450.634	2.93
450.84	2.93
451.045	3.05
451.251	3.03
451.456	2.97
451.662	3.06
451.867	3.12
452.073	3.15
452.278	3.13
452.483	3.2
452.689	3.2
452.894	3.14
453.1	3.05
453.305	3.11
453.51	3.1
453.716	3.03
453.921	3.01
454.127	3.07
454.332	2.99
454.537	2.93
454.742	2.96
454.948	2.9
455.153	2.88
455.358	2.92
455.563	2.96
455.769	2.95
455.974	2.97
456.179	2.97
456.384	2.87
456.589	2.87
456.795	2.9
457	2.9
457.205	2.99
457.41	3.08
457.615	3.03
457.82	3.04
458.025	3
458.23	2.86
458.435	2.82
458.64	2.87
458.845	2.82
459.05	2.78
459.255	2.83
459.46	2.89
459.665	2.86
459.87	2.86
460.075	2.95
460.28	2.98
460.485	2.96
460.69	3.06
460.895	2.99
461.099	2.98
461.304	2.93
461.509	2.86
461.714	2.8
461.919	2.9
462.123	2.93
462.328	2.94
462.533	3.05
462.738	3.1
462.942	3.05
463.147	3.05
463.352	3.14
463.556	3.03
463.761	2.96
463.966	3
464.17	2.95
464.375	2.86
464.58	2.96
464.784	2.96
464.989	2.88
465.193	2.97
465.398	2.92
465.602	2.94
465.807	2.9
466.011	2.96
466.216	2.93
466.42	2.96
466.625	2.96
466.829	3.01
467.034	2.98
467.238	2.97
467.443	3.04
467.647	3.04
467.851	2.94
468.056	2.93
468.26	2.96
468.464	2.9
468.669	2.83
468.873	2.92
469.077	2.93
469.282	2.96
469.486	2.9
469.69	2.91
469.894	2.94
470.099	2.98
470.303	2.99
470.507	3.15
470.711	3.15
470.915	3.13
471.119	3.15
471.324	3.14
471.528	3.09
471.732	3.1
471.936	3.09
472.14	3.14
472.344	3.12
472.548	3.18
472.752	3.3
472.956	3.35
473.16	3.37
473.364	3.3
473.568	3.28
473.772	3.23
473.976	3.32
474.18	3.25
474.384	3.32
474.588	3.34
474.792	3.34
474.995	3.29
475.199	3.38
475.403	3.5
475.607	3.46
475.811	3.47
476.015	3.46
476.218	3.47
476.422	3.32
476.626	3.33
476.83	3.28
477.033	3.35
477.237	3.32
477.441	3.4
477.644	3.4
477.848	3.46
478.052	3.44
478.255	3.36
478.459	3.31
478.663	3.39
478.866	3.38
479.07	3.37
479.273	3.45
479.477	3.5
479.681	3.49
479.884	3.45
480.088	3.49
480.291	3.51
480.495	3.54
480.698	3.56
480.901	3.62
481.105	3.63
481.308	3.62
481.512	3.58
481.715	3.56
481.919	3.59
482.122	3.63
482.325	3.69
482.529	3.74
482.732	3.77
482.935	3.75
483.138	3.63
483.342	3.55
483.545	3.48
483.748	3.43
483.952	3.46
484.155	3.54
484.358	3.56
484.561	3.6
484.764	3.59
484.967	3.57
485.171	3.6
485.374	3.65
485.577	3.64
485.78	3.7
485.983	3.69
486.186	3.61
486.389	3.61
486.592	3.65
486.795	3.62
486.998	3.62
487.201	3.67
487.404	3.64
487.607	3.64
487.81	3.71
488.013	3.75
488.216	3.73
488.419	3.67
488.622	3.64
488.825	3.59
489.028	3.57
489.231	3.58
489.433	3.57
489.636	3.57
489.839	3.56
490.042	3.54
490.245	3.55
490.447	3.62
490.65	3.67
490.853	3.71
491.056	3.71
491.258	3.7
491.461	3.64
491.664	3.6
491.866	3.59
492.069	3.57
492.272	3.6
492.474	3.61
492.677	3.62
492.879	3.65
493.082	3.71
493.285	3.74
493.487	3.74
493.69	3.8
493.892	3.76
494.095	3.76
494.297	3.7
494.5	3.75
494.702	3.7
494.905	3.73
495.107	3.68
495.309	3.76
495.512	3.83
495.714	3.88
495.917	3.93
496.119	3.97
496.321	3.92
496.524	3.89
496.726	3.84
496.928	3.81
497.13	3.85
497.333	3.85
497.535	3.84
497.737	3.87
497.939	3.9
498.142	3.92
498.344	4
498.546	4.05
498.748	4.09
498.95	4.11
499.152	4.07
499.355	4.06
499.557	4.07
499.759	4.1
499.961	4.09
500.163	4.14
500.365	4.16
500.567	4.15
500.769	4.18
500.971	4.17
501.173	4.17
501.375	4.22
501.577	4.26
501.779	4.23
501.981	4.27
502.183	4.33
502.385	4.24
502.587	4.25
502.788	4.3
502.99	4.29
503.192	4.27
503.394	4.32
503.596	4.35
503.798	4.3
503.999	4.4
504.201	4.4
504.403	4.48
504.605	4.48
504.806	4.53
505.008	4.46
505.21	4.51
505.411	4.49
505.613	4.52
505.815	4.53
506.016	4.62
506.218	4.65
506.42	4.64
506.621	4.63
506.823	4.67
507.024	4.57
507.226	4.6
507.427	4.69
507.629	4.71
507.83	4.71
508.032	4.83
508.233	4.78
508.435	4.7
508.636	4.68
508.838	4.68
509.039	4.67
509.24	4.7
509.442	4.75
509.643	4.84
509.845	4.84
510.046	4.87
510.247	4.91
510.448	4.96
510.65	4.95
510.851	4.93
511.052	4.98
511.254	5.01
511.455	5.04
511.656	5.05
511.857	5.13
512.058	5.1
512.26	5.08
512.461	5.1
512.662	5.14
512.863	5.15
513.064	5.19
513.265	5.23
513.466	5.24
513.667	5.28
513.868	5.28
514.069	5.27
514.27	5.22
514.471	5.16
514.672	5.11
514.873	5.04
515.074	5.07
515.275	5.14
515.476	5.18
515.677	5.24
515.878	5.35
516.079	5.42
516.28	5.42
516.481	5.46
516.682	5.46
516.882	5.48
517.083	5.41
517.284	5.42
517.485	5.44
517.686	5.45
517.886	5.47
518.087	5.49
518.288	5.56
518.488	5.56
518.689	5.54
518.89	5.54
519.091	5.56
519.291	5.55
519.492	5.56
519.692	5.64
519.893	5.69
520.094	5.73
520.294	5.73
520.495	5.76
520.695	5.74
520.896	5.73
521.096	5.74
521.297	5.77
521.497	5.8
521.698	5.81
521.898	5.83
522.099	5.85
522.299	5.9
522.499	5.85
522.7	5.9
522.9	5.9
523.101	5.93
523.301	5.89
523.501	6
523.702	6.01
523.902	6.04
524.102	6.07
524.302	6.11
524.503	6.08
524.703	6.09
524.903	6.13
525.103	6.1
525.304	6.06
525.504	6.1
525.704	6.14
525.904	6.13
526.104	6.09
526.304	6.22
526.504	6.23
526.705	6.23
526.905	6.21
527.105	6.29
527.305	6.23
527.505	6.22
527.705	6.2
527.905	6.27
528.105	6.22
528.305	6.26
528.505	6.32
528.705	6.38
528.905	6.4
529.105	6.45
529.304	6.45
529.504	6.44
529.704	6.45
529.904	6.44
530.104	6.46
530.304	6.44
530.503	6.46
530.703	6.45
530.903	6.53
531.103	6.55
531.303	6.58
531.502	6.62
531.702	6.61
531.902	6.62
532.101	6.65
532.301	6.73
532.501	6.75
532.7	6.82
532.9	6.8
533.1	6.84
533.299	6.84
533.499	6.86
533.698	6.9
533.898	6.95
534.097	7.02
534.297	7.02
534.496	7
534.696	7.02
534.895	6.99
535.095	6.95
535.294	6.99
535.494	7
535.693	7.01
535.892	7.05
536.092	7.11
536.291	7.12
536.491	7.15
536.69	7.19
536.889	7.23
537.088	7.23
537.288	7.26
537.487	7.33
537.686	7.3
537.886	7.33
538.085	7.38
538.284	7.44
538.483	7.45
538.682	7.57
538.882	7.59
539.081	7.61
539.28	7.58
539.479	7.58
539.678	7.6
539.877	7.6
540.076	7.66
540.275	7.72
540.474	7.75
540.673	7.74
540.872	7.77
541.071	7.79
541.27	7.83
541.469	7.89
541.668	7.98
541.867	8.09
542.066	8.09
542.265	8.14
542.464	8.15
542.663	8.19
542.862	8.22
543.06	8.35
543.259	8.43
543.458	8.49
543.657	8.52
543.856	8.54
544.054	8.54
544.253	8.52
544.452	8.58
544.651	8.61
544.849	8.68
545.048	8.77
545.247	8.82
545.445	8.91
545.644	8.96
545.843	9
546.041	9.03
546.24	9.07
546.438	9.06
546.637	9.12
546.836	9.14
547.034	9.2
547.233	9.27
547.431	9.36
547.63	9.37
547.828	9.47
548.027	9.51
548.225	9.63
548.423	9.67
548.622	9.79
548.82	9.8
549.019	9.87
549.217	9.86
549.415	9.92
549.614	9.97
549.812	10.06
550.01	10.12
550.209	10.23
550.407	10.33
550.605	10.31
550.803	10.34
551.002	10.38
551.2	10.39
551.398	10.44
551.596	10.51
551.794	10.6
551.993	10.71
552.191	10.81
552.389	10.89
552.587	11.03
552.785	11.08
552.983	11.15
553.181	11.24
553.379	11.27
553.577	11.36
553.775	11.43
553.973	11.49
554.171	11.59
554.369	11.7
554.567	11.82
554.765	11.9
554.963	11.99
555.161	12.1
555.359	12.19
555.557	12.23
555.755	12.36
555.952	12.46
556.15	12.52
556.348	12.65
556.546	12.76
556.744	12.89
556.941	12.95
557.139	13.05
557.337	13.14
557.535	13.19
557.732	13.23
557.93	13.28
558.128	13.29
558.325	13.36
558.523	13.47
558.721	13.51
558.918	13.66
559.116	13.83
559.313	13.9
559.511	14.04
559.708	14.23
559.906	14.29
560.104	14.37
560.301	14.51
560.498	14.6
560.696	14.61
560.893	14.77
561.091	14.82
561.288	14.88
561.486	14.93
561.683	15.09
561.88	15.18
562.078	15.36
562.275	15.47
562.473	15.6
562.67	15.7
562.867	15.83
563.064	15.92
563.262	15.99
563.459	16.1
563.656	16.26
563.853	16.28
564.051	16.28
564.248	16.39
564.445	16.45
564.642	16.45
564.839	16.59
565.036	16.76
565.234	16.81
565.431	16.94
565.628	17.03
565.825	17.07
566.022	17.11
566.219	17.25
566.416	17.29
566.613	17.36
566.81	17.48
567.007	17.63
567.204	17.75
567.401	17.84
567.598	17.93
567.795	18.07
567.991	18.11
568.188	18.17
568.385	18.26
568.582	18.38
568.779	18.3
568.976	18.28
569.172	18.34
569.369	18.41
569.566	18.49
569.763	18.63
569.96	18.72
570.156	18.76
570.353	18.78
570.55	18.75
570.746	18.74
570.943	18.83
571.14	18.9
571.336	18.97
571.533	19.03
571.729	19.16
571.926	19.27
572.123	19.29
572.319	19.26
572.516	19.35
572.712	19.37
572.909	19.32
573.105	19.35
573.302	19.38
573.498	19.3
573.695	19.32
573.891	19.34
574.087	19.23
574.284	19.3
574.48	19.35
574.677	19.35
574.873	19.38
575.069	19.53
575.266	19.49
575.462	19.53
575.658	19.5
575.854	19.58
576.051	19.53
576.247	19.69
576.443	19.7
576.639	19.78
576.835	19.7
577.032	19.72
577.228	19.64
577.424	19.64
577.62	19.65
577.816	19.69
578.012	19.74
578.208	19.65
578.404	19.63
578.6	19.62
578.796	19.56
578.993	19.49
579.189	19.47
579.384	19.42
579.58	19.39
579.776	19.48
579.972	19.54
580.168	19.57
580.364	19.58
580.56	19.54
580.756	19.4
580.952	19.37
581.148	19.4
581.343	19.45
581.539	19.47
581.735	19.5
581.931	19.42
582.127	19.41
582.322	19.37
582.518	19.42
582.714	19.37
582.909	19.31
583.105	19.32
583.301	19.2
583.496	19
583.692	19
583.888	19.05
584.083	19.03
584.279	19.07
584.474	19.11
584.67	19.09
584.866	19.07
585.061	18.95
585.257	18.93
585.452	18.96
585.648	18.88
585.843	18.87
586.039	18.94
586.234	18.94
586.429	18.93
586.625	18.96
586.82	18.89
587.015	18.77
587.211	18.75
587.406	18.71
587.601	18.68
587.797	18.7
587.992	18.74
588.187	18.7
588.383	18.64
588.578	18.62
588.773	18.59
588.968	18.62
589.163	18.64
589.359	18.69
589.554	18.7
589.749	18.81
589.944	18.83
590.139	18.87
590.334	18.93
590.529	18.97
590.724	18.88
590.919	18.82
591.114	18.78
591.309	18.77
591.504	18.78
591.699	18.82
591.894	18.87
592.089	18.92
592.284	18.98
592.479	19.05
592.674	19.07
592.869	19.12
593.064	19.09
593.259	19.07
593.454	19.04
593.648	19.1
593.843	19.11
594.038	19.2
594.233	19.29
594.428	19.38
594.622	19.41
594.817	19.57
595.012	19.55
595.206	19.62
595.401	19.63
595.596	19.68
595.79	19.65
595.985	19.74
596.18	19.82
596.374	19.92
596.569	20.1
596.763	20.27
596.958	20.41
597.153	20.38
597.347	20.42
597.542	20.42
597.736	20.42
597.931	20.42
598.125	20.51
598.319	20.56
598.514	20.56
598.708	20.54
598.903	20.62
599.097	20.7
599.291	20.69
599.486	20.74
599.68	20.81
599.874	20.84
600.069	20.85
600.263	20.86
600.457	20.85
600.651	20.91
600.846	21
601.04	20.93
601.234	21.05
601.428	21.17
601.622	21.15
601.817	21.17
602.011	21.32
602.205	21.28
602.399	21.26
602.593	21.34
602.787	21.27
602.981	21.29
603.175	21.38
603.369	21.35
603.563	21.37
603.757	21.35
603.951	21.31
604.145	21.23
604.339	21.23
604.533	21.2
604.727	21.24
604.921	21.19
605.115	21.2
605.309	21.16
605.502	21.09
605.696	21.04
605.89	20.91
606.084	20.91
606.278	20.85
606.471	20.7
606.665	20.7
606.859	20.79
607.053	20.61
607.246	20.6
607.44	20.66
607.634	20.59
607.827	20.49
608.021	20.45
608.214	20.31
608.408	20.2
608.602	20.15
608.795	20.11
608.989	20.14
609.182	20.13
609.376	20.15
609.569	20.01
609.763	19.84
609.956	19.73
610.15	19.66
610.343	19.58
610.537	19.56
610.73	19.61
610.923	19.53
611.117	19.43
611.31	19.26
611.504	19.19
611.697	19.1
611.89	19.02
612.083	18.9
612.277	18.91
612.47	18.83
612.663	18.72
612.856	18.56
613.05	18.49
613.243	18.32
613.436	18.17
613.629	18.07
613.822	18.19
614.015	18.17
614.209	18.09
614.402	18.15
614.595	18.08
614.788	17.98
614.981	17.9
615.174	17.85
615.367	17.74
615.56	17.69
615.753	17.6
615.946	17.47
616.139	17.41
616.332	17.36
616.525	17.29
616.718	17.19
616.911	17.19
617.103	17.19
617.296	17.19
617.489	17.15
617.682	17.15
617.875	17.15
618.067	17.07
618.26	16.95
618.453	16.9
618.646	16.83
618.838	16.74
619.031	16.68
619.224	16.73
619.417	16.75
619.609	16.66
619.802	16.61
619.994	16.58
620.187	16.45
620.38	16.37
620.572	16.43
620.765	16.46
620.957	16.44
621.15	16.42
621.342	16.37
621.535	16.3
621.727	16.28
621.92	16.26
622.112	16.22
622.305	16.23
622.497	16.19
622.69	16.03
622.882	15.93
623.074	15.97
623.267	15.91
623.459	15.87
623.651	15.94
623.844	15.98
624.036	15.89
624.228	15.87
624.42	15.81
624.613	15.82
624.805	15.77
624.997	15.73
625.189	15.74
625.381	15.75
625.574	15.66
625.766	15.6
625.958	15.54
626.15	15.52
626.342	15.52
626.534	15.48
626.726	15.51
626.918	15.49
627.11	15.41
627.302	15.3
627.494	15.28
627.686	15.19
627.878	15.19
628.07	15.23
628.262	15.22
628.454	15.18
628.646	15.2
628.838	15.18
629.029	15.07
629.221	15.04
629.413	15.05
629.605	15.02
629.797	14.94
629.989	14.93
630.18	14.87
630.372	14.75
630.564	14.66
630.755	14.59
630.947	14.53
631.139	14.48
631.33	14.47
631.522	14.51
631.714	14.5
631.905	14.48
632.097	14.48
632.289	14.48
632.48	14.38
632.672	14.27
632.863	14.28
633.055	14.27
633.246	14.22
633.438	14.22
633.629	14.35
633.821	14.31
634.012	14.29
634.203	14.34
634.395	14.35
634.586	14.24
634.777	14.22
634.969	14.21
635.16	14.18
635.351	14.16
635.543	14.1
635.734	14.11
635.925	14.03
636.117	13.99
636.308	13.97
636.499	14
636.69	13.9
636.881	13.92
637.073	13.92
637.264	13.85
637.455	13.8
637.646	13.86
637.837	13.85
638.028	13.74
638.219	13.77
638.41	13.78
638.601	13.76
638.792	13.76
638.983	13.79
639.174	13.78
639.365	13.73
639.556	13.67
639.747	13.64
639.938	13.65
640.129	13.57
640.32	13.57
640.511	13.52
640.701	13.52
640.892	13.43
641.083	13.4
641.274	13.35
641.465	13.34
641.655	13.3
641.846	13.32
642.037	13.29
642.228	13.29
642.418	13.22
642.609	13.13
642.8	13.03
642.99	13.02
643.181	13.06
643.372	13.08
643.562	13
643.753	13.06
643.943	13.03
644.134	12.9
644.324	12.83
644.515	12.9
644.705	12.81
644.896	12.86
645.086	12.79
645.277	12.76
645.467	12.75
645.658	12.77
645.848	12.64
646.038	12.66
646.229	12.73
646.419	12.71
646.61	12.68
646.8	12.67
646.99	12.7
647.18	12.59
647.371	12.53
647.561	12.47
647.751	12.46
647.941	12.34
648.132	12.32
648.322	12.24
648.512	12.17
648.702	12.22
648.892	12.24
649.082	12.24
649.272	12.29
649.462	12.35
649.653	12.34
649.843	12.31
650.033	12.3
650.223	12.32
650.413	12.3
650.603	12.22
650.793	12.22
650.983	12.15
651.172	12.12
651.362	12.14
651.552	12.09
651.742	12.04
651.932	12.03
652.122	12
652.312	11.91
652.502	11.9
652.691	11.82
652.881	11.72
653.071	11.6
653.261	11.5
653.45	11.36
653.64	11.37
653.83	11.37
654.019	11.26
654.209	11.18
654.399	11.16
654.588	11.02
654.778	10.93
654.968	10.92
655.157	10.76
655.347	10.71
655.536	10.57
655.726	10.37
655.915	10.22
656.105	10.18
656.294	10.03
656.484	9.93
656.673	9.86
656.863	9.81
657.052	9.68
657.241	9.51
657.431	9.35
657.62	9.3
657.809	9.08
657.999	9.02
658.188	8.98
658.377	8.95
658.567	8.72
658.756	8.6
658.945	8.48
659.134	8.29
659.324	8.12
659.513	8.07
659.702	7.96
659.891	7.79
660.08	7.74
660.269	7.62
660.458	7.5
660.648	7.43
660.837	7.39
661.026	7.3
661.215	7.21
661.404	7.08
661.593	6.94
661.782	6.81
661.971	6.56
662.16	6.47
662.349	6.4
662.538	6.3
662.726	6.13
662.915	6.13
663.104	6.01
663.293	5.88
663.482	5.83
663.671	5.75
663.86	5.65
664.048	5.59
664.237	5.46
664.426	5.42
664.615	5.45
664.803	5.33
664.992	5.25
665.181	5.26
665.369	5.2
665.558	5.09
665.747	5.08
665.935	5.07
666.124	5.09
666.312	4.99
666.501	4.93
666.69	4.94
666.878	4.96
667.067	4.91
667.255	4.89
667.444	4.98
667.632	4.96
667.82	4.9
668.009	4.81
668.197	4.75
668.386	4.6
668.574	4.49
668.762	4.48
668.951	4.49
669.139	4.52
669.327	4.61
669.516	4.66
669.704	4.62
669.892	4.62
670.08	4.58
670.269	4.51
670.457	4.5
670.645	4.55
670.833	4.52
671.021	4.57
671.21	4.59
671.398	4.57
671.586	4.58
671.774	4.63
671.962	4.62
672.15	4.64
672.338	4.73
672.526	4.86
672.714	4.93
672.902	4.96
673.09	4.87
673.278	4.96
673.466	4.8
673.654	4.8
673.842	4.86
674.03	4.92
674.218	4.87
674.405	5.02
674.593	5.09
674.781	5.09
674.969	5.21
675.157	5.26
675.344	5.24
675.532	5.28
675.72	5.42
675.908	5.38
676.095	5.5
676.283	5.5
676.471	5.54
676.658	5.57
676.846	5.76
677.033	5.8
677.221	5.85
677.409	5.96
677.596	5.89
677.784	5.8
677.971	5.82
678.159	5.86
678.346	5.9
678.534	6.09
678.721	6.23
678.909	6.37
679.096	6.59
679.283	6.54
679.471	6.5
679.658	6.61
679.846	6.51
680.033	6.57
680.22	6.75
680.408	6.83
680.595	6.94
680.782	7.07
680.969	6.98
681.157	7.05
681.344	7.24
681.531	7.24
681.718	7.39
681.905	7.53
682.093	7.68
682.28	7.74
682.467	7.99
682.654	8.07
682.841	8.22
683.028	8.29
683.215	8.43
683.402	8.42
683.589	8.55
683.776	8.7
683.963	8.92
684.15	9.21
684.337	9.4
684.524	9.51
684.711	9.7
684.898	9.76
685.085	9.79
685.271	10.13
685.458	10.39
685.645	10.56
685.832	10.76
686.019	10.97
686.205	11.01
686.392	11.23
686.579	11.54
686.766	11.75
686.952	12.06
687.139	12.48
687.326	12.84
687.512	13.12
687.699	13.57
687.886	13.95
688.072	14.24
688.259	14.49
688.445	14.71
688.632	15.08
688.818	15.37
689.005	15.63
689.191	16.05
689.378	16.5
689.564	16.81
689.751	17.21
689.937	17.64
690.124	17.99
690.31	18.55
690.496	19.09
690.683	19.59
690.869	20.21
691.055	20.78
691.242	21.24
691.428	21.76
691.614	22.22
691.8	22.83
691.987	23.56
692.173	24.24
692.359	24.86
692.545	25.46
692.731	25.97
692.918	26.39
693.104	26.87
693.29	27.33
693.476	28
693.662	28.48
693.848	29.24
694.034	29.79
694.22	30.45
694.406	31.16
694.592	31.87
694.778	32.51
694.964	33.11
695.15	33.58
695.336	34.18
695.522	34.99
695.708	35.56
695.894	36.28
696.08	37.11
696.265	37.76
696.451	38.24
696.637	38.77
696.823	39.48
697.009	40.26
697.194	40.78
697.38	41.25
697.566	42.04
697.751	42.36
697.937	42.89
698.123	43.45
698.308	44.25
698.494	44.77
698.68	45.73
698.865	46.06
699.051	46.66
699.236	46.94
699.422	47.45
699.607	47.78
699.793	48.66
699.978	49.32
700.164	50.03
700.349	50.44
700.535	50.96
700.72	51.38
700.906	51.75
701.091	52.33
701.276	53
701.462	53.65
701.647	54.27
701.832	54.72
702.018	55.2
702.203	55.58
702.388	56.04
702.573	56.38
702.759	56.73
702.944	57.4
703.129	57.98
703.314	58.26
703.499	58.7
703.684	59.28
703.87	59.63
704.055	59.95
704.24	60.35
704.425	60.48
704.61	60.78
704.795	60.95
704.98	61.29
705.165	61.87
705.35	62.45
705.535	62.87
705.72	63.45
705.905	63.81
706.09	64.14
706.275	64.54
706.459	65.27
706.644	65.42
706.829	65.97
707.014	66.26
707.199	66.37
707.384	66.34
707.568	66.53
707.753	66.56
707.938	66.63
708.123	67.09
708.307	67.35
708.492	67.85
708.677	67.96
708.861	68.23
709.046	68.59
709.231	68.97
709.415	69.01
709.6	69.81
709.784	70.33
709.969	70.56
710.153	70.66
710.338	71.18
710.522	71.18
710.707	71.39
710.891	71.37
711.076	71.49
711.26	71.6
711.445	71.76
711.629	72.01
711.813	72.16
711.998	72.49
712.182	72.49
712.366	72.36
712.551	72.48
712.735	72.61
712.919	72.72
713.103	73.1
713.288	73.45
713.472	73.38
713.656	73.91
713.84	74.2
714.024	74.74
714.208	74.89
714.393	75.44
714.577	75.32
714.761	75.96
714.945	75.6
715.129	76.04
715.313	76.21
715.497	76.14
715.681	75.39
715.865	75.75
716.049	76
716.233	76.17
716.417	76.37
716.601	76.63
716.785	76.95
716.968	76.67
717.152	76.37
717.336	76.77
717.52	77.19
717.704	77.17
717.888	77.49
718.071	77.77
718.255	78.25
718.439	78.21
718.622	77.96
718.806	78.11
718.99	78.25
719.174	78.19
719.357	78.64
719.541	79.04
719.724	79.19
719.908	79.79
720.092	79.53
720.275	79.56
720.459	79.38
720.642	79.18
720.826	78.32
721.009	78.72
721.193	78.53
721.376	78.72
721.559	79.11
721.743	79.49
721.926	79.74
722.11	79.67
722.293	80.17
722.476	79.65
722.66	80.24
722.843	79.76
723.026	79.8
723.21	79.58
723.393	79.98
723.576	79.64
723.759	79.94
723.942	80.43
724.126	80.3
724.309	80.75
724.492	80.74
724.675	81.33
724.858	81.21
725.041	81.04
725.224	81.32
725.407	81.76
725.59	81.36
725.774	81.14
725.957	81.84
726.14	81.28
726.322	80.92
726.505	81.45
726.688	81.85
726.871	82.22
727.054	82.24
727.237	82.43
727.42	82.51
727.603	82.67
727.786	82.19
727.968	82.93
728.151	83.58
728.334	83.23
728.517	83.59
728.699	83.38
728.882	82.66
729.065	82.25
729.248	82.47
729.43	82.32
729.613	82.69
729.796	83.45
729.978	83.34
730.161	83.15
730.343	83.39
730.526	83.3
730.708	83.13
730.891	83.34
731.073	83.52
731.256	83.81
731.438	84
731.621	84.43
731.803	84.96
731.986	85.47
732.168	84.83
732.35	84.82
732.533	84.38
732.715	84.18
732.898	83.79
733.08	84.1
733.262	84.2
733.444	84.53
733.627	84.81
733.809	84.82
733.991	85.23
734.173	85.41
734.355	85.72
734.538	85.26
734.72	85.87
734.902	86.15
735.084	86.93
735.266	86.92
735.448	87.43
735.63	87.28
735.812	86.85
735.994	86.75
736.176	87.16
736.358	87.62
736.54	88.38
736.722	88.76
736.904	88.37
737.086	88.04
737.268	87.76
737.45	86.98
737.632	87
737.814	87.04
737.995	86.84
738.177	86.76
738.359	86.98
738.541	86.8
738.723	87.48
738.904	87.41
739.086	87.75
739.268	87.72
739.449	88.44
739.631	87.99
739.813	88.14
739.994	89.13
740.176	89.08
740.358	88.42
740.539	88.56
740.721	88.66
740.902	87.67
741.084	88.76
741.265	89.68
741.447	90.15
741.628	90.65
741.81	91.19
741.991	90.83
742.172	89.99
742.354	89.17
742.535	88.82
742.717	88.6
742.898	88.21
743.079	88.77
743.261	89.29
743.442	89.93
743.623	89.79
743.804	89.58
743.986	89.21
744.167	89.6
744.348	88.74
744.529	88.4
744.71	89.43
744.891	89.99
745.073	90.38
745.254	90.29
745.435	90.9
745.616	89.86
745.797	89.5
745.978	88.76
746.159	88.67
746.34	88.15
746.521	88.42
746.702	88.64
746.883	88.96
747.064	89.7
747.245	90.21
747.426	89.51
747.606	89.12
747.787	88.63
747.968	87.85
748.149	87.57
748.33	87.91
748.51	88.38
748.691	89.57
748.872	90.73
749.053	91.13
749.233	91.22
749.414	90.72
749.595	90.26
749.775	89.8
749.956	88.99
750.137	88.8
750.317	89.29
750.498	88.8
750.678	89.23
750.859	88.87
751.04	89.81
751.22	88.8
751.4	89.47
751.581	88.13
751.761	88.41
751.942	88.15
752.122	88.57
752.303	87.51
752.483	88.51
752.663	89.85
752.844	89.34
753.024	90.16
753.204	90.42
753.385	90.78
753.565	89.23
753.745	91
753.925	90.06
754.106	90.07
754.286	88.79
754.466	88.49
754.646	86.15
754.826	86.03
755.006	86.17
755.187	87.65
755.367	88.61
755.547	89.16
755.727	89.77
755.907	89.99
756.087	88.83
756.267	88.23
756.447	88.83
756.627	89.16
756.807	88.04
756.987	88.05
757.167	88.87
757.346	89.75
757.526	89.69
757.706	90.35
757.886	89.9
758.066	88.63
758.246	86.98
758.425	86.59
758.605	86.67
758.785	87.81
758.965	88.66
759.144	89.46
759.324	88.96
759.504	88.08
759.683	88.21
759.863	88.03
760.043	86.92
760.222	86.94
760.402	88.08
760.581	88.68
760.761	88.78
760.94	89.32
761.12	90.07
761.299	90.97
761.479	89.41
761.658	88.93
761.838	87.85
762.017	88.14
762.197	88.19
762.376	89.8
762.555	90.15
762.735	91.72
762.914	91.43
763.093	90.26
763.273	88.09
763.452	87.77
763.631	88.35
763.81	87.89
763.99	87.23
764.169	88.82
764.348	89.59
764.527	87.69
764.706	88.15
764.885	89.05
765.064	88.87
765.243	87.77
765.423	89.13
765.602	87.64
765.781	86.28
765.96	84.41
766.139	87.08
766.318	86.83
766.497	87.52
766.676	89.26
766.854	90.61
767.033	89.06
767.212	87.67
767.391	87.45
767.57	86.87
767.749	86.65
767.928	86.12
768.106	87.01
768.285	88.45
768.464	88.17
768.643	88.4
768.821	89.24
769	89.4
769.179	88.7
769.357	87.88
769.536	88.47
769.715	86.35
769.893	88.22
770.072	87.5
770.25	88.7
770.429	87.23
770.607	89.81
770.786	88
770.964	88.79
771.143	88.59
771.321	88.83
771.5	88.09
771.678	88.57
771.857	88.89
772.035	88.35
772.213	90.38
772.392	88.66
772.57	88.36
772.748	87.67
772.927	87.41
773.105	86.93
773.283	87.27
773.461	86.98
773.64	85.96
773.818	85.96
773.996	84.78
774.174	85.82
774.352	84.12
774.531	84.7
774.709	85.12
774.887	84.92
775.065	84.13
775.243	86.65
775.421	88.22
775.599	87.7
775.777	88.59
775.955	88.34
776.133	87.11
776.311	85.31
776.489	86.27
776.667	87.12
776.844	89.34
777.022	89.39
777.2	89.72
777.378	90.05
777.556	88.05
777.734	85.96
777.911	85.28
778.089	84.68
778.267	84.58
778.445	85.98
778.622	83.94
778.8	85.02
778.978	86.98
779.155	84.58
779.333	84.27
779.511	86.51
779.688	85.11
779.866	84.9
780.043	86.8
780.221	87.61
780.398	86.65
780.576	88.24
780.753	86.53
780.931	87.12
781.108	84.29
781.286	87.1
781.463	86.82
781.64	88.59
781.818	87.56
781.995	89.39
782.172	90
782.35	88.98
782.527	88.32
782.704	88.53
782.882	89.96
783.059	86.38
783.236	90.56
783.413	90.22
783.59	90.82
783.768	91.87
783.945	93.21
784.122	89.96
784.299	90.94
784.476	88.62
784.653	84.19
784.83	84.06
785.007	83.25
785.184	81.54
785.361	84.33
785.538	86.02
785.715	85.66
785.892	85.18
786.069	87.1
786.246	87.05
786.423	86.54
786.6	87.56
786.776	88.14
786.953	86.69
787.13	84.25
787.307	86.79
787.484	86.64
787.66	87.4
787.837	89.15
788.014	90.12
788.191	89.68
788.367	89.24
788.544	86.08
788.721	86.19
788.897	85.31
789.074	84.83
789.25	84.25
789.427	87.73
789.603	86.57
789.78	87.1
789.956	86.01
790.133	86.72
790.309	84.93
790.486	85.52
790.662	85.88
790.839	86.79
791.015	86.26
791.192	87.65
791.368	84.01
791.544	83.98
791.721	83.9
791.897	86
792.073	87.72
792.249	90.59
792.426	86.84
792.602	85.05
792.778	83.63
792.954	80.51
793.13	78.15
793.307	83.71
793.483	86.24
793.659	88.04
793.835	90.94
794.011	94.78
794.187	92.49
794.363	91.03
794.539	89.25
794.715	87.86
794.891	83.69
795.067	84.05
795.243	84.31
795.419	85.97
795.595	87.26
795.771	88.02
795.947	86.36
796.122	87.79
796.298	83.65
796.474	81.22
796.65	80.17
796.826	82.08
797.001	78.13
797.177	81.04
797.353	81.43
797.529	85.05
797.704	83.63
797.88	85.31
798.056	87.23
798.231	88.04
798.407	88.26
798.582	88.16
798.758	89.2
798.934	86.15
799.109	85.95
799.285	86.24
799.46	87.78
799.636	86.21
799.811	89.16
799.986	90.07
800.162	89.94
800.337	88.17
800.513	89.85
800.688	87.03
800.863	85.48
801.039	82.67
801.214	82.1
801.389	79.3
801.565	80.96
801.74	82.77
801.915	82.65
802.09	84.04
802.265	88.23
802.441	88.65
802.616	87.94
802.791	93.19
802.966	95.94
803.141	89.86
803.316	86.81
803.491	85.1
803.666	85.45
803.841	84.35
804.016	87.65
804.191	86.91
804.366	90.64
804.541	92.15
804.716	88.12
804.891	91.08
805.066	93.62
805.241	91.45
805.416	88.45
805.591	91.72
805.765	83.5
805.94	80.1
806.115	80.77
806.29	80.54
806.464	76.16
806.639	76.79
806.814	85.09
806.989	77.83
807.163	76.15
807.338	80.1
807.512	81.28
807.687	80.17
807.862	87.81
808.036	85.79
808.211	91.52
808.385	98.32
808.56	99.06
808.734	84.28
808.909	84.51
809.083	80.8
809.258	75.62
809.432	64.74
809.606	77.75
809.781	85.03
809.955	79.42
810.13	76.9
810.304	82.95
810.478	79.9
810.652	77.83
810.827	82.11
811.001	89.22
811.175	89.37
811.349	91.84
811.524	89.6
811.698	91.41
811.872	91.52
812.046	91.66
812.22	92.42
812.394	96.68
812.568	96.3
812.742	95.56
812.916	89.59
813.09	88.78
813.264	82.29
813.438	80.26
813.612	82.17
813.786	84.41
813.96	87.98
814.134	89.14
814.308	93.54
814.482	89.94
814.656	90.4
814.83	90.04
815.003	93.03
815.177	88.01
815.351	82.69
815.525	84
815.698	77.59
815.872	76.69
816.046	80.92
816.219	85.04
816.393	85.1
816.567	89.02
816.74	88.15
816.914	88
817.088	94.35
817.261	102.03
817.435	100.68
817.608	100.1
817.782	105
817.955	99.42
818.129	87.55
818.302	95.16
818.475	98.82
818.649	93.75
818.822	99.58
818.996	104.42
819.169	91.25
819.342	83.91
819.516	95.4
819.689	98.12
819.862	92.85
820.035	92.25
820.209	90.28
820.382	81.28
820.555	74.23
820.728	79.8
820.901	73.71
821.075	83.19
821.248	82.18
821.421	83.6
821.594	85.03
821.767	97.11
821.94	96.22
822.113	97.82
822.286	104.11
822.459	101.57
822.632	99.73
822.805	94.47
822.978	89.58
823.151	96.65
823.324	96.86
823.496	91.46
823.669	85.12
823.842	89.21
824.015	80.33
824.188	72.34
824.361	82.99
824.533	84.69
824.706	93.56
824.879	77.4
825.051	95.25
825.224	94.53
825.397	109.05
825.569	103.66
825.742	118.21
825.915	101.77
826.087	100.28
826.26	87.93
826.432	82.73
826.605	70.57
826.777	75.01
826.95	77.35
827.122	70.5
827.295	70.52
827.467	87.34
827.64	82.06
827.812	87.96
827.984	105.51
828.157	101.55
828.329	89.84
828.501	89.02
828.674	76.19
828.846	71.73
829.018	87.44
829.19	106.27
829.363	124
829.535	118.79
829.707	129.09
829.879	120.03
830.051	100
830.223	99.62
830.395	123.32
830.568	98.84
830.74	93.37
830.912	87.89
831.084	84.63
831.256	85.18
831.428	92.68
831.6	93.58
831.772	101.71
831.943	99.86
832.115	92.98
832.287	90.29
832.459	93.61
832.631	80.52
832.803	90.73
832.975	92.19
833.146	91.85
833.318	84.36
833.49	89.62
833.662	85.01
833.833	86.12
834.005	81.12
834.177	94.06
834.348	98.28
834.52	100.49
834.692	120.49
834.863	116.27
835.035	115.23
835.206	116.12
835.378	106.7
835.549	104.32
835.721	112.05
835.892	99.57
836.064	101.3
836.235	105.63
836.407	94.3
836.578	104.5
836.749	107.66
836.921	117.31
837.092	123.58
837.264	126.16
837.435	94.88
837.606	77.1
837.777	78.88
837.949	78.33
838.12	96.04
838.291	107.49
838.462	165.26
838.633	185.33
838.805	138.61
838.976	113.94
839.147	90.84
839.318	74.49
839.489	71.65
839.66	85.49
839.831	81.04
840.002	104.36
840.173	122.34
840.344	108.38
840.515	99.52
840.686	116.46
840.857	119.81
841.028	99.71
841.199	136.76
841.369	120.87
841.54	83.57
841.711	83.05
841.882	92.83
842.053	84.7
842.223	75.94
842.394	73.76
842.565	83.62
842.736	75.28
842.906	71.76
843.077	77.2
843.248	87.91
843.418	65.09
843.589	72.61
843.759	68.12
843.93	77.2
844.101	76.63
844.271	86.55
844.442	85.5
844.612	85.15
844.783	104.6
844.953	97.43
845.123	110.09
845.294	115.51
845.464	111.75
845.635	78.05
845.805	86
845.975	87.5
846.146	77.91
846.316	79.49
846.486	79.73
846.656	80.19
846.827	80.69
846.997	83.53
847.167	74.4
847.337	115.43
847.507	98.62
847.677	86.6
847.848	84.52
848.018	127.58
848.188	102.79
848.358	107.33
848.528	94.86
848.698	93.7
848.868	72.51
849.038	71.66
849.208	83.07
849.378	84.6
849.548	85.68
849.718	65.19
849.887	70.78
850.057	70.78
850.227	71.03
850.397	63.68
850.567	82.17
850.737	116.71
850.906	94.77
851.076	102.76
851.246	124.11
851.415	131.7
851.585	110.74
851.755	191.49
851.924	150.96
852.094	117.32
852.264	93.05
852.433	74.45
852.603	76.64
852.772	87.51
852.942	92.72
853.111	89.68
853.281	110.53
853.45	88.79
853.62	73.36
853.789	77.87
853.959	66.51
854.128	44.49
854.297	57.1
854.467	60.13
854.636	34.14
854.805	51.33
854.975	70.39
855.144	70.42
855.313	95.81
855.482	122.21
855.652	144.1
855.821	115.4
855.99	118.96
856.159	106
856.328	87.84
856.497	65.03
856.667	99.62
856.836	109.87
857.005	136.18
857.174	215.09
857.343	155.05
857.512	137.73
857.681	181.19
857.85	147.88
858.019	136.01
858.188	162.02
858.356	138.81
858.525	105.63
858.694	103.03
858.863	107.42
859.032	78.49
859.201	96.08
859.369	120.89
859.538	128.33
859.707	132.9
859.876	175.33
860.044	182.42
860.213	143.36
860.382	165.92
860.55	152.28
860.719	175.19
860.888	152.27
861.056	182.34
861.225	167.18
861.393	164.47
861.562	114.44
861.73	122.89
861.899	78.85
862.067	84.29
862.236	82.12
862.404	115.06
862.572	105.64
862.741	83.22
862.909	106.05
863.078	67.41
863.246	43.55
863.414	21.95
863.582	61.19
863.751	57.01
863.919	80.05
864.087	88.83
864.255	116.45
864.424	116.61
864.592	100.78
864.76	115.52
864.928	65.51
865.096	49.34
865.264	56.36
865.432	42.26
865.6	13.56
865.768	32.52
865.936	27.11
866.104	44.98
866.272	63.45
866.44	79.82
866.608	82.59
866.776	79.34
866.944	81.55
867.112	77.08
867.28	96.31
867.448	88.93
867.615	108.02
867.783	98.92
867.951	95.07
868.119	96.28
868.286	117.44
868.454	131.77
868.622	119.64
868.789	165.43
868.957	204.55
869.125	187.38
869.292	145.6
869.46	195.32
869.627	139.95
869.795	88.9
869.963	74.33
870.13	109.72
870.298	93.91
870.465	89.48
870.632	92.21
870.8	78.78
870.967	56.8
871.135	65.44
871.302	105.06
871.469	80.2
871.637	141.76
871.804	155.46
871.971	183.93
872.139	128.53
872.306	225.76
872.473	118.32
872.64	121.74
872.807	151.19
872.975	162.3
873.142	112
873.309	93.06
873.476	75.99
873.643	53.94
873.81	44.76
873.977	69.99
874.144	101.45
874.311	96.36
874.478	158.2
874.645	149.77
874.812	155.72
874.979	137.84
875.146	141.93
875.313	122.12
875.48	114.57
875.647	83.73
875.813	84.31
875.98	76.28
876.147	40.24
876.314	45.47
876.481	78.88
876.647	71.7
876.814	72.49
876.981	82.48
877.147	94.94
877.314	90.29
877.481	134.18
877.647	123.04
877.814	101.33
877.98	68.76
878.147	34.86
878.314	18.55
878.48	55.95
878.647	84.35
878.813	69.69
878.979	72.19
879.146	73.91
879.312	73.8
879.479	56.63
879.645	43.11
879.811	63.66
879.978	67.43
880.144	75.08
880.31	112.37
880.477	230.05
880.643	138.74
880.809	111.29
880.975	67.74
881.142	54.14
881.308	60.45
881.474	77.42
881.64	83.04
881.806	107.58
881.972	132
882.138	141.03
882.304	131.21
882.47	110.4
882.636	104.42
882.802	114.8
882.968	101.78
883.134	106.81
883.3	141.94
883.466	127.73
883.632	119.5
883.798	160.29
883.964	155.28
884.129	125.19
884.295	149.55
884.461	207.53
884.627	163.25
884.793	75.29
884.958	71.51
885.124	43.54
885.29	-13.73
885.455	32.85
885.621	84.05
885.787	102.22
885.952	99.6
886.118	110.5
886.283	132.26
886.449	190.39
886.614	98.76
886.78	115.4
886.945	90.73
887.111	68.56
887.276	57.7
887.442	88.64
887.607	85.41
887.773	94.34
887.938	116.77
888.103	104.59
888.269	99.71
888.434	114.48
888.599	123.63
888.764	113.4
888.93	137.27
889.095	122.31
889.26	88.31
889.425	95.03
889.59	86.16
889.756	63.23
889.921	84.31
890.086	124.79
890.251	86.1
890.416	132.29
890.581	174.09
890.746	248.41
890.911	427.27
891.076	-337.09
891.241	-174.75
891.406	-31.54
891.571	450.33
891.736	105.95
891.901	182.38
892.065	188.26
892.23	118.15
892.395	82.61
892.56	458.44
892.725	72.27
892.889	79.93
893.054	55.84
893.219	96.77
893.384	113.51
893.548	138.49
893.713	140.22
893.878	156.3
