Data from Ofra_PS_Phys_2GT31_Reflection_1.txt Node
Date: Tue Jul 20 14:41:22 EDT 2021
User: USUARIO
Spectrometer: FLMT01687
Trigger mode: 0
Integration Time (sec): 1.200000E0
Scans to average: 2
Electric dark correction enabled: true
Nonlinearity correction enabled: false
Boxcar width: 2
XAxis mode: Wavelengths
Number of Pixels in Spectrum: 3648
>>>>>Begin Spectral Data<<<<<
179.494	-64.26
179.716	-251.52
179.937	881.03
180.158	132.16
180.38	111.03
180.601	147.46
180.823	583.54
181.044	448.7
181.265	-433.03
181.486	-295.02
181.708	-57.68
181.929	185.36
182.15	192.79
182.372	-1286.18
182.593	255.89
182.814	-2066.67
183.035	-449.15
183.257	-8.53
183.478	24.88
183.699	30.72
183.92	-30.52
184.141	46.64
184.363	48.1
184.584	48.43
184.805	55.41
185.026	62.55
185.247	51.96
185.468	45
185.689	50.44
185.91	46.72
186.132	44.54
186.353	42.95
186.574	37.57
186.795	25.21
187.016	24.83
187.237	28.92
187.458	27.73
187.679	32.73
187.9	43.55
188.121	41.01
188.342	45.56
188.563	56.32
188.784	33.43
189.005	33.69
189.226	9.21
189.447	-8.28
189.667	0.04
189.888	28.06
190.109	29.92
190.33	48.4
190.551	56.26
190.772	45.74
190.993	42.84
191.214	37.84
191.434	48.33
191.655	41.93
191.876	34.78
192.097	36.49
192.318	44.11
192.538	35.44
192.759	41.03
192.98	63.93
193.201	53.36
193.421	47.51
193.642	47.05
193.863	44.11
194.083	35.78
194.304	34.98
194.525	24.51
194.745	20.45
194.966	21.22
195.187	1.01
195.407	-20.59
195.628	0.28
195.848	9.71
196.069	10.24
196.29	19.04
196.51	47.39
196.731	45.05
196.951	40.81
197.172	38.77
197.392	46.76
197.613	21.5
197.833	25.88
198.054	35.9
198.274	36.48
198.495	30.31
198.715	27.76
198.936	23.59
199.156	13.13
199.377	-2.7
199.597	38.16
199.817	65.2
200.038	71.61
200.258	62.56
200.479	65.03
200.699	53.59
200.919	46.84
201.14	35.7
201.36	35.21
201.58	28.41
201.801	21.26
202.021	11.43
202.241	24.93
202.461	12.65
202.682	12.03
202.902	25.82
203.122	24.06
203.342	21.98
203.563	15.15
203.783	18.69
204.003	23.71
204.223	52.35
204.443	53.55
204.663	69.33
204.884	89.68
205.104	87.21
205.324	53.74
205.544	62.3
205.764	63.66
205.984	52.25
206.204	47.57
206.424	41.01
206.644	11.45
206.864	-7.19
207.084	12
207.304	27.39
207.525	29.41
207.745	43.63
207.964	56.91
208.184	59.35
208.404	50.1
208.624	66.67
208.844	74.5
209.064	71.11
209.284	45.39
209.504	41.41
209.724	17.95
209.944	20.6
210.164	8.31
210.384	30.56
210.604	22.58
210.823	45.55
211.043	41.52
211.263	27.58
211.483	18
211.703	33.84
211.922	29.21
212.142	20.38
212.362	28.54
212.582	19.57
212.801	21.36
213.021	24.19
213.241	17.54
213.461	13.14
213.68	28.1
213.9	29.44
214.12	31.9
214.339	51.22
214.559	51.29
214.779	43.32
214.998	28.33
215.218	18.64
215.438	30.48
215.657	43.26
215.877	34.81
216.096	53.94
216.316	54.63
216.535	23.32
216.755	29.98
216.974	30.69
217.194	29.61
217.413	41.8
217.633	64.29
217.852	76.52
218.072	73.12
218.291	77.06
218.511	61.47
218.73	51.7
218.95	50.35
219.169	61.55
219.389	59.79
219.608	58.99
219.827	65.5
220.047	53.93
220.266	56.95
220.485	56.59
220.705	76.32
220.924	63.93
221.143	71.97
221.363	59.85
221.582	50.93
221.801	25.6
222.021	29.46
222.24	12.42
222.459	14.64
222.678	7.94
222.897	18.5
223.117	6.82
223.336	9.71
223.555	5.16
223.774	29.32
223.993	29.98
224.213	36.65
224.432	45.38
224.651	38.01
224.87	14.48
225.089	23.95
225.308	26.39
225.527	20.48
225.746	27.18
225.965	41.79
226.184	23.18
226.404	29.14
226.623	33.74
226.842	27.98
227.061	27.04
227.28	36.15
227.499	28.38
227.718	26.75
227.936	40.14
228.155	45.32
228.374	46
228.593	38.38
228.812	34.69
229.031	22.97
229.25	22.34
229.469	21.25
229.688	28.58
229.907	33.26
230.125	38.41
230.344	32.35
230.563	30.05
230.782	25.12
231.001	-3.33
231.22	3.93
231.438	-0.65
231.657	-4.9
231.876	2.43
232.095	35.59
232.313	42.52
232.532	47.47
232.751	57.07
232.969	46.22
233.188	47.96
233.407	37.9
233.625	27.27
233.844	26.75
234.063	41.91
234.281	32.68
234.5	35.32
234.719	38.85
234.937	38.86
235.156	38.44
235.374	44.88
235.593	48.52
235.811	50.65
236.03	51.89
236.249	43.24
236.467	40.07
236.686	33.82
236.904	22.45
237.123	16.04
237.341	21.12
237.559	19.93
237.778	32.12
237.996	37.72
238.215	49.18
238.433	42.28
238.652	51.93
238.87	36.69
239.088	38.02
239.307	34.9
239.525	42.4
239.743	41.44
239.962	35.34
240.18	26.35
240.398	24.35
240.617	26.33
240.835	23.68
241.053	27.59
241.271	40.13
241.49	44.49
241.708	53.44
241.926	59.15
242.144	70.65
242.363	78.48
242.581	85.14
242.799	86.72
243.017	78.51
243.235	59.11
243.453	56.45
243.672	40.93
243.89	34.67
244.108	31.59
244.326	27.44
244.544	11.35
244.762	26.5
244.98	26.01
245.198	32.18
245.416	35.79
245.634	46.51
245.852	52.19
246.07	49.05
246.288	45.24
246.506	41.19
246.724	26.67
246.942	7.39
247.16	18.2
247.378	23.02
247.596	30.12
247.814	40.91
248.032	50.49
248.25	52.24
248.468	46.23
248.685	32.3
248.903	32.98
249.121	35.09
249.339	29.4
249.557	33.49
249.775	42.1
249.992	40.42
250.21	36.8
250.428	38.11
250.646	35.27
250.863	32.68
251.081	30.88
251.299	33.13
251.517	27.41
251.734	25.93
251.952	13.34
252.17	20.07
252.387	21.19
252.605	23.04
252.823	16.96
253.04	26.7
253.258	28.9
253.475	27.3
253.693	23.19
253.911	35.35
254.128	36.12
254.346	18.06
254.563	13.49
254.781	23.19
254.998	4.74
255.216	4.83
255.433	34.19
255.651	45.47
255.868	40.46
256.086	39.85
256.303	43.72
256.521	39.14
256.738	37.01
256.956	28.45
257.173	38.78
257.39	36.41
257.608	25.91
257.825	17.06
258.043	33.66
258.26	15.87
258.477	16.69
258.695	3.95
258.912	15.49
259.129	15.76
259.346	18.14
259.564	12.8
259.781	15.93
259.998	40.04
260.216	38.06
260.433	47.79
260.65	64.65
260.867	62.98
261.084	34.91
261.302	40.26
261.519	22.84
261.736	15.97
261.953	29.61
262.17	50.28
262.387	51.39
262.604	57.43
262.822	61.44
263.039	48.12
263.256	30.43
263.473	11.04
263.69	11.11
263.907	7.13
264.124	13.15
264.341	17.21
264.558	31.31
264.775	22.31
264.992	14.62
265.209	15.92
265.426	20.24
265.643	26.07
265.86	30.77
266.077	35.41
266.294	32.45
266.51	35.29
266.727	41.06
266.944	36.95
267.161	43.49
267.378	41.92
267.595	42.79
267.812	23.68
268.028	29.62
268.245	23.36
268.462	25.85
268.679	23.45
268.896	24.09
269.112	27.63
269.329	29.66
269.546	25.09
269.763	34.07
269.979	44.05
270.196	38.3
270.413	29.68
270.629	30.1
270.846	21.61
271.063	7.75
271.279	17.97
271.496	6.99
271.712	20.26
271.929	23.92
272.146	42.54
272.362	27.78
272.579	40.68
272.795	30.87
273.012	28.12
273.228	27.51
273.445	31.85
273.661	31.64
273.878	25.19
274.094	27.74
274.311	10.14
274.527	9.48
274.744	9.19
274.96	12.3
275.177	5.11
275.393	4.23
275.609	11.32
275.826	10.35
276.042	17.92
276.259	1.26
276.475	11.01
276.691	7.29
276.908	3.85
277.124	5.9
277.34	21.09
277.557	26.55
277.773	25.05
277.989	32.41
278.205	28.31
278.422	30.8
278.638	30.19
278.854	44.97
279.07	39.71
279.286	39.63
279.503	40.13
279.719	34.43
279.935	22.85
280.151	25.52
280.367	30.44
280.583	41.83
280.799	39.45
281.016	52.21
281.232	45.87
281.448	43.78
281.664	40.79
281.88	56.29
282.096	46.5
282.312	53.99
282.528	54.36
282.744	44.31
282.96	33.38
283.176	35.81
283.392	27.4
283.608	21.18
283.824	27.04
284.04	19.85
284.256	11.06
284.471	7.14
284.687	3.7
284.903	-3.42
285.119	9.11
285.335	28.34
285.551	36.68
285.767	39.73
285.982	34.79
286.198	27.9
286.414	17.84
286.63	17.63
286.846	5.88
287.061	19.62
287.277	9.94
287.493	11.52
287.709	14.15
287.924	24.79
288.14	19.3
288.356	32.88
288.571	40.23
288.787	32.08
289.003	32.22
289.218	26.11
289.434	20.17
289.65	12.45
289.865	8.14
290.081	22.36
290.296	16.35
290.512	15.64
290.727	11.43
290.943	30.96
291.159	23.37
291.374	32.8
291.59	38.34
291.805	42.95
292.021	20.63
292.236	13.44
292.451	17.04
292.667	15.85
292.882	22.08
293.098	33.99
293.313	51.54
293.529	49.05
293.744	46.26
293.959	38.62
294.175	32.74
294.39	22.9
294.605	21.92
294.821	22.57
295.036	26.7
295.251	46.1
295.467	42.19
295.682	38.2
295.897	39.82
296.112	37.04
296.328	15.08
296.543	12.53
296.758	26.54
296.973	26.9
297.188	41.68
297.404	46.34
297.619	42.51
297.834	43.9
298.049	43.13
298.264	30.21
298.479	44.35
298.694	39.18
298.909	36.59
299.125	50.2
299.34	44.13
299.555	42.12
299.77	50.51
299.985	35.56
300.2	25.42
300.415	28.5
300.63	16.53
300.845	17.65
301.06	19.53
301.275	10.14
301.49	6.83
301.704	17.01
301.919	24.24
302.134	38.06
302.349	37.72
302.564	51.28
302.779	50.19
302.994	35.09
303.209	34.65
303.423	33.11
303.638	24.37
303.853	17.2
304.068	19.98
304.283	5.45
304.497	11.49
304.712	-1.06
304.927	15.47
305.142	22.3
305.356	26.87
305.571	33.62
305.786	43.28
306	35.57
306.215	37.04
306.43	43.01
306.644	39.12
306.859	38.76
307.074	32.99
307.288	27.42
307.503	20.31
307.717	22.86
307.932	16.84
308.147	24.09
308.361	39.09
308.576	27.65
308.79	34.37
309.005	45.45
309.219	33.35
309.434	26.79
309.648	44.07
309.863	30.39
310.077	13.07
310.292	20.08
310.506	13.04
310.72	19.89
310.935	10.76
311.149	0.76
311.364	16.38
311.578	29.82
311.792	26.01
312.007	31.5
312.221	31.34
312.435	33.92
312.649	26.98
312.864	31.55
313.078	26.81
313.292	25.21
313.507	13.51
313.721	2.63
313.935	-7.73
314.149	4.29
314.363	12.86
314.578	-8.92
314.792	-8.5
315.006	8.33
315.22	2.42
315.434	11.24
315.648	39.59
315.862	49.32
316.077	40.59
316.291	46.02
316.505	43.56
316.719	39.64
316.933	41.16
317.147	41.78
317.361	38.5
317.575	22.2
317.789	34.47
318.003	28.49
318.217	12.21
318.431	14.64
318.645	14.21
318.859	8.59
319.073	10.48
319.287	26.37
319.5	23.18
319.714	36.81
319.928	35.25
320.142	34.71
320.356	34.71
320.57	39.46
320.784	39.51
320.997	45.91
321.211	48.14
321.425	52.17
321.639	37.81
321.853	39.1
322.066	21.48
322.28	17.82
322.494	21.49
322.707	28.03
322.921	18.59
323.135	14.98
323.349	10.09
323.562	12.33
323.776	15.6
323.989	18.26
324.203	27.58
324.417	35.92
324.63	24.22
324.844	19.64
325.057	24.92
325.271	22.76
325.485	20.09
325.698	25.21
325.912	20.55
326.125	15.6
326.339	18.62
326.552	25.1
326.766	15.56
326.979	25.36
327.193	25.39
327.406	22.82
327.619	8.26
327.833	25.91
328.046	26.38
328.26	25.88
328.473	23.54
328.686	32.09
328.9	20.81
329.113	20.18
329.326	24.68
329.54	26.76
329.753	34.29
329.966	47.98
330.179	49.4
330.393	42.94
330.606	44.67
330.819	36.33
331.032	33.01
331.246	20.66
331.459	28.63
331.672	26.97
331.885	28.36
332.098	24.41
332.311	32.91
332.525	20.64
332.738	31.9
332.951	40.87
333.164	38.99
333.377	31.85
333.59	36.6
333.803	28.55
334.016	21.51
334.229	32.29
334.442	44.62
334.655	44.91
334.868	60.9
335.081	58.63
335.294	55.16
335.507	47.56
335.72	47.74
335.933	38.06
336.146	32.43
336.359	39.22
336.572	41.22
336.785	35.77
336.997	33.61
337.21	25.94
337.423	7.95
337.636	3.5
337.849	4.54
338.062	3.95
338.274	20.37
338.487	27.46
338.7	24.77
338.913	29.59
339.125	32.08
339.338	24.91
339.551	21.16
339.763	29.26
339.976	32.8
340.189	17.61
340.402	27.21
340.614	34.26
340.827	22.6
341.039	15.63
341.252	30.42
341.465	27.11
341.677	21.54
341.89	28.85
342.102	25.81
342.315	33.76
342.527	35
342.74	35.41
342.952	35.68
343.165	36.99
343.377	25.74
343.59	14.19
343.802	20.32
344.015	28.55
344.227	28.31
344.44	37.7
344.652	47.16
344.864	41.13
345.077	21.39
345.289	35.02
345.502	26.9
345.714	20.64
345.926	18.4
346.139	24.56
346.351	10.36
346.563	18.69
346.775	24.71
346.988	19.77
347.2	17.86
347.412	24.66
347.624	31.35
347.837	31.59
348.049	37.74
348.261	41.2
348.473	48.92
348.685	42.15
348.897	34.83
349.11	36.15
349.322	42.62
349.534	29.9
349.746	30.73
349.958	41.09
350.17	44.61
350.382	30.87
350.594	39.14
350.806	42.21
351.018	34.45
351.23	28.04
351.442	34.41
351.654	19.34
351.866	6.86
352.078	12.19
352.29	9.41
352.502	16.95
352.714	22.56
352.926	27.69
353.138	27.64
353.35	25.97
353.561	21.71
353.773	27.54
353.985	19.15
354.197	15.66
354.409	21.22
354.621	28.58
354.832	25.14
355.044	39.79
355.256	37.12
355.468	31.63
355.679	24.36
355.891	28.24
356.103	28.95
356.314	19.59
356.526	41.34
356.738	41.67
356.949	45.34
357.161	46
357.373	51.67
357.584	40.09
357.796	50.61
358.008	44.37
358.219	40.21
358.431	60.73
358.642	63.54
358.854	55.83
359.065	50.6
359.277	43.5
359.488	29.54
359.7	24.9
359.911	22.13
360.123	23.35
360.334	22.37
360.546	13.89
360.757	23.91
360.969	22.07
361.18	21.71
361.391	24.24
361.603	33.45
361.814	24.87
362.025	33.69
362.237	33.73
362.448	34.92
362.659	29.2
362.871	27.88
363.082	19.22
363.293	30.07
363.504	28.54
363.716	27.5
363.927	26.68
364.138	26.62
364.349	14.98
364.56	9.14
364.772	3.32
364.983	14.14
365.194	16.74
365.405	11.73
365.616	13.16
365.827	19
366.038	17.34
366.25	18.61
366.461	23.03
366.672	28.74
366.883	30.99
367.094	35.45
367.305	35.25
367.516	40.9
367.727	40.69
367.938	38.81
368.149	33.58
368.36	38.51
368.571	34.67
368.781	31.1
368.992	27.31
369.203	13.72
369.414	-3.1
369.625	2.65
369.836	15.18
370.047	22.41
370.258	27.29
370.468	31.4
370.679	28.44
370.89	20.66
371.101	18.29
371.312	21.27
371.522	25.04
371.733	23.5
371.944	17.41
372.155	19.07
372.365	17.18
372.576	17.61
372.787	13.82
372.997	26.35
373.208	16.08
373.419	27.47
373.629	24.81
373.84	30.34
374.05	27.9
374.261	31.34
374.472	20.29
374.682	22.08
374.893	19.1
375.103	21.04
375.314	32.57
375.524	34.24
375.735	26.28
375.945	36.35
376.156	39.38
376.366	21.84
376.577	16.51
376.787	22.7
376.997	9.58
377.208	5.29
377.418	11.76
377.629	23.91
377.839	28.07
378.049	38.38
378.26	29.26
378.47	33.23
378.68	39.26
378.89	36.59
379.101	37.35
379.311	43.49
379.521	37.35
379.732	31.1
379.942	22.21
380.152	16.82
380.362	10.63
380.572	4.4
380.783	7.03
380.993	21.26
381.203	16.65
381.413	21.87
381.623	24.44
381.833	17.55
382.043	17.19
382.253	17.57
382.463	14.13
382.674	22.09
382.884	29.95
383.094	29.72
383.304	38.11
383.514	39.8
383.724	42.59
383.934	38.04
384.144	30.1
384.353	14.13
384.563	11.41
384.773	7.21
384.983	18.36
385.193	18.85
385.403	21.69
385.613	26.54
385.823	22.33
386.033	16.61
386.242	15.83
386.452	16.56
386.662	9.77
386.872	11.71
387.082	5.38
387.291	5.5
387.501	7.56
387.711	7.98
387.921	8.61
388.13	13.01
388.34	15.53
388.55	17.34
388.759	16.24
388.969	15.54
389.179	17.85
389.388	19.53
389.598	16.02
389.807	18.25
390.017	17.5
390.227	14.51
390.436	10.97
390.646	10.05
390.855	6.98
391.065	9.09
391.274	9.52
391.484	11.52
391.693	13.41
391.903	13.7
392.112	11.91
392.322	10.64
392.531	11.05
392.74	9.59
392.95	9.18
393.159	8.49
393.369	9.63
393.578	8.48
393.787	7.75
393.997	7.85
394.206	8.46
394.415	8.04
394.625	8.09
394.834	8.64
395.043	9.17
395.252	9.31
395.462	8.81
395.671	7.76
395.88	7.72
396.089	6.09
396.298	5.62
396.508	7.11
396.717	7.99
396.926	7.54
397.135	7.6
397.344	7.33
397.553	6.55
397.762	5.96
397.971	5.27
398.181	5.54
398.39	5.29
398.599	4.24
398.808	3.97
399.017	4.81
399.226	5.14
399.435	5.38
399.644	5.57
399.853	6.27
400.062	6.26
400.27	6.04
400.479	5.55
400.688	6.08
400.897	5.72
401.106	5.55
401.315	5.57
401.524	5.79
401.733	5.49
401.941	5.6
402.15	5.56
402.359	5.55
402.568	5.87
402.777	5.67
402.985	5.73
403.194	5.64
403.403	5.71
403.612	5.33
403.82	5.23
404.029	4.95
404.238	5.04
404.446	5.04
404.655	4.95
404.864	5.04
405.072	5.12
405.281	5.11
405.489	5.13
405.698	5.2
405.906	5.27
406.115	5.16
406.324	5.03
406.532	4.82
406.741	4.81
406.949	4.78
407.158	4.85
407.366	4.86
407.574	4.94
407.783	4.92
407.991	4.86
408.2	4.89
408.408	4.95
408.617	4.82
408.825	4.86
409.033	4.93
409.242	4.71
409.45	4.81
409.658	4.76
409.867	4.72
410.075	4.71
410.283	4.79
410.491	4.65
410.7	4.63
410.908	4.64
411.116	4.52
411.324	4.49
411.533	4.47
411.741	4.63
411.949	4.65
412.157	4.78
412.365	4.8
412.573	4.88
412.781	4.7
412.99	4.64
413.198	4.52
413.406	4.41
413.614	4.17
413.822	4.19
414.03	4.18
414.238	4.14
414.446	4.18
414.654	4.23
414.862	4.24
415.07	4.24
415.278	4.21
415.486	4.23
415.694	4.21
415.902	4.27
416.109	4.3
416.317	4.31
416.525	4.25
416.733	4.3
416.941	4.28
417.149	4.24
417.357	4.36
417.564	4.3
417.772	4.28
417.98	4.15
418.188	4.04
418.395	3.93
418.603	3.86
418.811	3.99
419.019	4.14
419.226	4.29
419.434	4.26
419.642	4.39
419.849	4.28
420.057	4.13
420.265	3.96
420.472	3.94
420.68	4.04
420.887	3.85
421.095	3.94
421.302	4.04
421.51	4.08
421.717	3.9
421.925	3.97
422.132	3.86
422.34	3.83
422.547	3.78
422.755	3.79
422.962	3.94
423.17	3.97
423.377	3.92
423.585	3.84
423.792	3.84
423.999	3.71
424.207	3.73
424.414	3.86
424.621	3.95
424.829	3.84
425.036	3.96
425.243	3.87
425.451	3.87
425.658	3.79
425.865	4.03
426.072	3.97
426.28	3.98
426.487	4
426.694	4.03
426.901	3.78
427.108	3.78
427.315	3.66
427.523	3.67
427.73	3.73
427.937	3.92
428.144	3.82
428.351	4.08
428.558	3.99
428.765	4.03
428.972	3.89
429.179	3.93
429.386	3.94
429.593	4.1
429.8	4
430.007	4.07
430.214	4.16
430.421	4.08
430.628	3.84
430.835	3.85
431.042	3.79
431.249	3.81
431.456	3.76
431.662	3.75
431.869	3.83
432.076	3.88
432.283	3.75
432.49	3.85
432.697	3.85
432.903	3.74
433.11	3.71
433.317	3.78
433.524	3.73
433.73	3.77
433.937	3.8
434.144	3.8
434.35	3.83
434.557	3.86
434.764	3.9
434.97	3.92
435.177	3.92
435.384	3.93
435.59	3.84
435.797	3.94
436.003	3.9
436.21	3.88
436.416	3.9
436.623	4.02
436.829	3.92
437.036	3.96
437.242	3.96
437.449	3.89
437.655	3.86
437.862	3.91
438.068	3.94
438.275	4.01
438.481	4.13
438.687	4.1
438.894	4.12
439.1	4.17
439.307	4.19
439.513	4.1
439.719	4.14
439.926	4.15
440.132	4.15
440.338	4.17
440.544	4.26
440.751	4.22
440.957	4.24
441.163	4.23
441.369	4.27
441.575	4.11
441.782	4.27
441.988	4.23
442.194	4.18
442.4	4.13
442.606	4.16
442.812	4.18
443.018	4.18
443.224	4.23
443.431	4.33
443.637	4.36
443.843	4.28
444.049	4.29
444.255	4.32
444.461	4.25
444.667	4.25
444.873	4.29
445.079	4.37
445.284	4.39
445.49	4.42
445.696	4.45
445.902	4.37
446.108	4.41
446.314	4.34
446.52	4.33
446.726	4.42
446.931	4.41
447.137	4.4
447.343	4.49
447.549	4.49
447.755	4.47
447.96	4.56
448.166	4.45
448.372	4.41
448.578	4.51
448.783	4.47
448.989	4.49
449.195	4.52
449.4	4.55
449.606	4.46
449.812	4.53
450.017	4.51
450.223	4.58
450.428	4.62
450.634	4.58
450.84	4.49
451.045	4.55
451.251	4.46
451.456	4.44
451.662	4.46
451.867	4.54
452.073	4.46
452.278	4.52
452.483	4.51
452.689	4.64
452.894	4.46
453.1	4.46
453.305	4.47
453.51	4.48
453.716	4.39
453.921	4.51
454.127	4.52
454.332	4.53
454.537	4.47
454.742	4.49
454.948	4.6
455.153	4.61
455.358	4.62
455.563	4.59
455.769	4.65
455.974	4.59
456.179	4.59
456.384	4.56
456.589	4.57
456.795	4.49
457	4.53
457.205	4.47
457.41	4.51
457.615	4.59
457.82	4.61
458.025	4.61
458.23	4.59
458.435	4.58
458.64	4.52
458.845	4.58
459.05	4.49
459.255	4.51
459.46	4.56
459.665	4.57
459.87	4.59
460.075	4.69
460.28	4.69
460.485	4.61
460.69	4.66
460.895	4.65
461.099	4.56
461.304	4.64
461.509	4.7
461.714	4.72
461.919	4.7
462.123	4.78
462.328	4.8
462.533	4.84
462.738	4.87
462.942	4.77
463.147	4.78
463.352	4.69
463.556	4.65
463.761	4.56
463.966	4.65
464.17	4.65
464.375	4.72
464.58	4.81
464.784	4.87
464.989	4.87
465.193	4.89
465.398	4.91
465.602	4.84
465.807	4.84
466.011	4.83
466.216	4.84
466.42	4.88
466.625	4.93
466.829	4.97
467.034	4.98
467.238	5
467.443	5.01
467.647	5.03
467.851	5.06
468.056	5.08
468.26	5.1
468.464	5.07
468.669	5.06
468.873	5.13
469.077	5.1
469.282	5.11
469.486	5.1
469.69	5.14
469.894	5.1
470.099	5.18
470.303	5.22
470.507	5.19
470.711	5.19
470.915	5.26
471.119	5.24
471.324	5.18
471.528	5.34
471.732	5.36
471.936	5.34
472.14	5.38
472.344	5.47
472.548	5.46
472.752	5.49
472.956	5.55
473.16	5.55
473.364	5.45
473.568	5.44
473.772	5.42
473.976	5.37
474.18	5.44
474.384	5.57
474.588	5.49
474.792	5.49
474.995	5.53
475.199	5.46
475.403	5.41
475.607	5.5
475.811	5.57
476.015	5.62
476.218	5.64
476.422	5.7
476.626	5.71
476.83	5.69
477.033	5.64
477.237	5.74
477.441	5.68
477.644	5.66
477.848	5.66
478.052	5.69
478.255	5.67
478.459	5.73
478.663	5.77
478.866	5.77
479.07	5.8
479.273	5.71
479.477	5.75
479.681	5.77
479.884	5.79
480.088	5.76
480.291	5.85
480.495	5.77
480.698	5.76
480.901	5.82
481.105	5.86
481.308	5.89
481.512	5.92
481.715	6
481.919	6.02
482.122	6.03
482.325	6.03
482.529	6.13
482.732	6.07
482.935	6.03
483.138	5.96
483.342	5.89
483.545	5.83
483.748	5.86
483.952	5.87
484.155	5.9
484.358	5.95
484.561	5.94
484.764	5.97
484.967	5.99
485.171	6.01
485.374	6.02
485.577	6.05
485.78	6.04
485.983	6.08
486.186	6.09
486.389	6.09
486.592	6.07
486.795	6.06
486.998	5.97
487.201	6.01
487.404	6
487.607	6.03
487.81	6.08
488.013	6.15
488.216	6.09
488.419	6.07
488.622	6.01
488.825	5.92
489.028	5.86
489.231	5.92
489.433	5.93
489.636	5.99
489.839	6.12
490.042	6.12
490.245	6.1
490.447	6.13
490.65	6.13
490.853	6.07
491.056	6.07
491.258	6.05
491.461	6.1
491.664	6.07
491.866	6.04
492.069	6.09
492.272	6.1
492.474	5.99
492.677	6.06
492.879	6.11
493.082	6.13
493.285	6.17
493.487	6.22
493.69	6.23
493.892	6.2
494.095	6.2
494.297	6.18
494.5	6.21
494.702	6.18
494.905	6.21
495.107	6.19
495.309	6.24
495.512	6.19
495.714	6.2
495.917	6.22
496.119	6.25
496.321	6.24
496.524	6.36
496.726	6.31
496.928	6.33
497.13	6.35
497.333	6.36
497.535	6.31
497.737	6.4
497.939	6.43
498.142	6.45
498.344	6.45
498.546	6.49
498.748	6.52
498.95	6.48
499.152	6.54
499.355	6.57
499.557	6.54
499.759	6.61
499.961	6.73
500.163	6.71
500.365	6.79
500.567	6.88
500.769	6.78
500.971	6.66
501.173	6.67
501.375	6.66
501.577	6.66
501.779	6.76
501.981	6.8
502.183	6.83
502.385	6.84
502.587	6.8
502.788	6.81
502.99	6.86
503.192	6.9
503.394	6.97
503.596	6.99
503.798	7.06
503.999	7.11
504.201	7.19
504.403	7.19
504.605	7.24
504.806	7.21
505.008	7.25
505.21	7.26
505.411	7.25
505.613	7.32
505.815	7.41
506.016	7.45
506.218	7.45
506.42	7.47
506.621	7.4
506.823	7.43
507.024	7.44
507.226	7.48
507.427	7.51
507.629	7.57
507.83	7.6
508.032	7.6
508.233	7.6
508.435	7.68
508.636	7.71
508.838	7.72
509.039	7.73
509.24	7.78
509.442	7.8
509.643	7.83
509.845	7.9
510.046	7.94
510.247	7.92
510.448	7.97
510.65	7.99
510.851	7.99
511.052	8.01
511.254	8.06
511.455	8.09
511.656	8.11
511.857	8.15
512.058	8.19
512.26	8.22
512.461	8.23
512.662	8.28
512.863	8.26
513.064	8.29
513.265	8.28
513.466	8.29
513.667	8.32
513.868	8.34
514.069	8.34
514.27	8.38
514.471	8.41
514.672	8.41
514.873	8.44
515.074	8.48
515.275	8.47
515.476	8.45
515.677	8.45
515.878	8.44
516.079	8.48
516.28	8.58
516.481	8.67
516.682	8.71
516.882	8.78
517.083	8.79
517.284	8.76
517.485	8.76
517.686	8.81
517.886	8.78
518.087	8.83
518.288	8.89
518.488	8.88
518.689	8.87
518.89	8.93
519.091	8.9
519.291	8.91
519.492	8.94
519.692	9
519.893	9.01
520.094	9.04
520.294	9.13
520.495	9.15
520.695	9.17
520.896	9.25
521.096	9.28
521.297	9.27
521.497	9.29
521.698	9.31
521.898	9.28
522.099	9.32
522.299	9.32
522.499	9.35
522.7	9.33
522.9	9.36
523.101	9.34
523.301	9.35
523.501	9.42
523.702	9.45
523.902	9.47
524.102	9.5
524.302	9.51
524.503	9.46
524.703	9.54
524.903	9.51
525.103	9.51
525.304	9.53
525.504	9.55
525.704	9.5
525.904	9.59
526.104	9.62
526.304	9.67
526.504	9.74
526.705	9.81
526.905	9.83
527.105	9.87
527.305	9.86
527.505	9.85
527.705	9.88
527.905	9.91
528.105	9.93
528.305	9.98
528.505	10.03
528.705	10.05
528.905	10.09
529.105	10.14
529.304	10.17
529.504	10.19
529.704	10.18
529.904	10.17
530.104	10.26
530.304	10.28
530.503	10.25
530.703	10.25
530.903	10.3
531.103	10.28
531.303	10.36
531.502	10.44
531.702	10.52
531.902	10.53
532.101	10.56
532.301	10.59
532.501	10.66
532.7	10.71
532.9	10.77
533.1	10.85
533.299	10.89
533.499	10.88
533.698	10.89
533.898	10.97
534.097	10.96
534.297	10.95
534.496	11.01
534.696	11.05
534.895	11.02
535.095	11.05
535.294	11.12
535.494	11.16
535.693	11.21
535.892	11.25
536.092	11.29
536.291	11.32
536.491	11.41
536.69	11.47
536.889	11.51
537.088	11.54
537.288	11.57
537.487	11.55
537.686	11.55
537.886	11.6
538.085	11.65
538.284	11.68
538.483	11.73
538.682	11.77
538.882	11.82
539.081	11.83
539.28	11.87
539.479	11.93
539.678	11.99
539.877	12.05
540.076	12.13
540.275	12.18
540.474	12.24
540.673	12.26
540.872	12.3
541.071	12.36
541.27	12.44
541.469	12.4
541.668	12.49
541.867	12.53
542.066	12.55
542.265	12.56
542.464	12.68
542.663	12.75
542.862	12.78
543.06	12.85
543.259	12.92
543.458	12.97
543.657	13.01
543.856	13.09
544.054	13.14
544.253	13.25
544.452	13.36
544.651	13.45
544.849	13.49
545.048	13.61
545.247	13.64
545.445	13.69
545.644	13.8
545.843	13.89
546.041	13.95
546.24	14.06
546.438	14.16
546.637	14.18
546.836	14.33
547.034	14.4
547.233	14.46
547.431	14.52
547.63	14.56
547.828	14.56
548.027	14.66
548.225	14.72
548.423	14.72
548.622	14.84
548.82	14.95
549.019	15.01
549.217	15.12
549.415	15.27
549.614	15.34
549.812	15.43
550.01	15.52
550.209	15.62
550.407	15.68
550.605	15.76
550.803	15.84
551.002	16.01
551.2	16.08
551.398	16.28
551.596	16.4
551.794	16.52
551.993	16.58
552.191	16.73
552.389	16.83
552.587	16.93
552.785	17.02
552.983	17.15
553.181	17.21
553.379	17.31
553.577	17.45
553.775	17.6
553.973	17.72
554.171	17.87
554.369	18.02
554.567	18.15
554.765	18.21
554.963	18.29
555.161	18.4
555.359	18.49
555.557	18.58
555.755	18.72
555.952	18.86
556.15	18.98
556.348	19.2
556.546	19.29
556.744	19.45
556.941	19.51
557.139	19.62
557.337	19.61
557.535	19.82
557.732	19.96
557.93	20.09
558.128	20.27
558.325	20.37
558.523	20.49
558.721	20.56
558.918	20.75
559.116	20.85
559.313	21.04
559.511	21.17
559.708	21.35
559.906	21.48
560.104	21.65
560.301	21.79
560.498	21.95
560.696	22.1
560.893	22.24
561.091	22.28
561.288	22.44
561.486	22.54
561.683	22.61
561.88	22.72
562.078	22.95
562.275	23.01
562.473	23.15
562.67	23.24
562.867	23.42
563.064	23.55
563.262	23.72
563.459	23.9
563.656	24.11
563.853	24.28
564.051	24.33
564.248	24.46
564.445	24.53
564.642	24.65
564.839	24.75
565.036	24.95
565.234	25.01
565.431	25.09
565.628	25.16
565.825	25.25
566.022	25.4
566.219	25.56
566.416	25.71
566.613	25.97
566.81	26.09
567.007	26.25
567.204	26.34
567.401	26.42
567.598	26.29
567.795	26.42
567.991	26.44
568.188	26.57
568.385	26.67
568.582	26.84
568.779	26.91
568.976	26.93
569.172	27.02
569.369	27.07
569.566	27.15
569.763	27.29
569.96	27.44
570.156	27.53
570.353	27.62
570.55	27.73
570.746	27.68
570.943	27.73
571.14	27.79
571.336	27.84
571.533	27.9
571.729	28.02
571.926	28.04
572.123	28.15
572.319	28.27
572.516	28.39
572.712	28.41
572.909	28.54
573.105	28.46
573.302	28.45
573.498	28.44
573.695	28.61
573.891	28.6
574.087	28.69
574.284	28.77
574.48	28.78
574.677	28.66
574.873	28.72
575.069	28.73
575.266	28.77
575.462	28.85
575.658	28.91
575.854	28.91
576.051	28.99
576.247	28.96
576.443	28.92
576.639	28.99
576.835	29.07
577.032	29
577.228	29.02
577.424	29.09
577.62	29.03
577.816	29
578.012	29.06
578.208	29.04
578.404	28.93
578.6	28.94
578.796	28.83
578.993	28.77
579.189	28.81
579.384	28.84
579.58	28.94
579.776	29
579.972	29.02
580.168	29.09
580.364	29.11
580.56	29.14
580.756	29.18
580.952	29.13
581.148	29.02
581.343	29.02
581.539	28.94
581.735	28.91
581.931	28.95
582.127	28.97
582.322	28.97
582.518	28.81
582.714	28.74
582.909	28.79
583.105	28.77
583.301	28.7
583.496	28.73
583.692	28.68
583.888	28.53
584.083	28.52
584.279	28.46
584.474	28.4
584.67	28.4
584.866	28.41
585.061	28.34
585.257	28.37
585.452	28.48
585.648	28.43
585.843	28.39
586.039	28.38
586.234	28.33
586.429	28.25
586.625	28.33
586.82	28.33
587.015	28.33
587.211	28.33
587.406	28.31
587.601	28.22
587.797	28.27
587.992	28.28
588.187	28.37
588.383	28.42
588.578	28.34
588.773	28.29
588.968	28.33
589.163	28.25
589.359	28.15
589.554	28.32
589.749	28.32
589.944	28.3
590.139	28.35
590.334	28.49
590.529	28.52
590.724	28.57
590.919	28.58
591.114	28.66
591.309	28.7
591.504	28.7
591.699	28.8
591.894	28.79
592.089	28.8
592.284	28.83
592.479	28.9
592.674	28.96
592.869	29.02
593.064	29.05
593.259	29.12
593.454	29.13
593.648	29.12
593.843	29.25
594.038	29.36
594.233	29.52
594.428	29.71
594.622	29.93
594.817	30.03
595.012	30.14
595.206	30.1
595.401	30.09
595.596	30.01
595.79	30.12
595.985	30.17
596.18	30.26
596.374	30.44
596.569	30.67
596.763	30.72
596.958	30.87
597.153	31.03
597.347	30.93
597.542	30.93
597.736	31.14
597.931	31.2
598.125	31.23
598.319	31.45
598.514	31.52
598.708	31.55
598.903	31.64
599.097	31.71
599.291	31.8
599.486	31.91
599.68	31.94
599.874	31.92
600.069	31.99
600.263	32.04
600.457	32.15
600.651	32.23
600.846	32.36
601.04	32.49
601.234	32.47
601.428	32.38
601.622	32.39
601.817	32.43
602.011	32.4
602.205	32.49
602.399	32.58
602.593	32.61
602.787	32.59
602.981	32.52
603.175	32.52
603.369	32.61
603.563	32.66
603.757	32.66
603.951	32.73
604.145	32.8
604.339	32.67
604.533	32.68
604.727	32.62
604.921	32.62
605.115	32.44
605.309	32.53
605.502	32.46
605.696	32.42
605.89	32.34
606.084	32.41
606.278	32.23
606.471	32.19
606.665	32.13
606.859	32.15
607.053	32.01
607.246	32.03
607.44	31.82
607.634	31.8
607.827	31.64
608.021	31.54
608.214	31.43
608.408	31.45
608.602	31.35
608.795	31.34
608.989	31.3
609.182	31.16
609.376	30.98
609.569	30.84
609.763	30.74
609.956	30.66
610.15	30.61
610.343	30.6
610.537	30.57
610.73	30.51
610.923	30.49
611.117	30.41
611.31	30.31
611.504	30.25
611.697	30.1
611.89	29.96
612.083	29.86
612.277	29.77
612.47	29.58
612.663	29.52
612.856	29.36
613.05	29.35
613.243	29.32
613.436	29.24
613.629	29.09
613.822	28.99
614.015	28.89
614.209	28.71
614.402	28.65
614.595	28.57
614.788	28.53
614.981	28.4
615.174	28.35
615.367	28.26
615.56	28.22
615.753	28.11
615.946	27.98
616.139	27.92
616.332	27.87
616.525	27.82
616.718	27.74
616.911	27.65
617.103	27.61
617.296	27.51
617.489	27.27
617.682	27.3
617.875	27.27
618.067	27.2
618.26	27.16
618.453	27.32
618.646	27.17
618.838	27.1
619.031	27.01
619.224	26.91
619.417	26.81
619.609	26.79
619.802	26.7
619.994	26.61
620.187	26.61
620.38	26.51
620.572	26.46
620.765	26.53
620.957	26.53
621.15	26.5
621.342	26.37
621.535	26.29
621.727	26.13
621.92	26.02
622.112	26.03
622.305	26.1
622.497	26.19
622.69	26.21
622.882	26.18
623.074	26.1
623.267	26.04
623.459	25.95
623.651	25.91
623.844	25.88
624.036	25.82
624.228	25.79
624.42	25.8
624.613	25.79
624.805	25.77
624.997	25.7
625.189	25.59
625.381	25.51
625.574	25.44
625.766	25.41
625.958	25.44
626.15	25.46
626.342	25.42
626.534	25.49
626.726	25.44
626.918	25.36
627.11	25.3
627.302	25.22
627.494	25.09
627.686	25.06
627.878	25.13
628.07	25.1
628.262	25.02
628.454	24.96
628.646	24.89
628.838	24.75
629.029	24.65
629.221	24.61
629.413	24.56
629.605	24.45
629.797	24.4
629.989	24.39
630.18	24.36
630.372	24.29
630.564	24.39
630.755	24.38
630.947	24.3
631.139	24.31
631.33	24.22
631.522	24.16
631.714	24.14
631.905	24.16
632.097	24.15
632.289	24.18
632.48	24.12
632.672	24.01
632.863	23.98
633.055	23.9
633.246	23.83
633.438	23.8
633.629	23.85
633.821	23.8
634.012	23.89
634.203	23.93
634.395	23.87
634.586	23.88
634.777	23.78
634.969	23.61
635.16	23.57
635.351	23.63
635.543	23.54
635.734	23.62
635.925	23.6
636.117	23.62
636.308	23.55
636.499	23.55
636.69	23.51
636.881	23.51
637.073	23.54
637.264	23.58
637.455	23.52
637.646	23.55
637.837	23.57
638.028	23.53
638.219	23.41
638.41	23.42
638.601	23.38
638.792	23.37
638.983	23.34
639.174	23.38
639.365	23.33
639.556	23.3
639.747	23.23
639.938	23.2
640.129	23.23
640.32	23.15
640.511	23.06
640.701	23.05
640.892	23
641.083	22.99
641.274	23.08
641.465	23.12
641.655	23.13
641.846	23.05
642.037	22.88
642.228	22.83
642.418	22.83
642.609	22.78
642.8	22.75
642.99	22.8
643.181	22.76
643.372	22.63
643.562	22.6
643.753	22.57
643.943	22.44
644.134	22.4
644.324	22.42
644.515	22.41
644.705	22.46
644.896	22.53
645.086	22.49
645.277	22.49
645.467	22.43
645.658	22.44
645.848	22.35
646.038	22.34
646.229	22.25
646.419	22.2
646.61	22.17
646.8	22.2
646.99	22.11
647.18	22.08
647.371	22.02
647.561	21.85
647.751	21.75
647.941	21.72
648.132	21.71
648.322	21.79
648.512	21.9
648.702	21.97
648.892	22
649.082	22.04
649.272	21.89
649.462	21.85
649.653	21.71
649.843	21.61
650.033	21.55
650.223	21.53
650.413	21.43
650.603	21.51
650.793	21.46
650.983	21.4
651.172	21.34
651.362	21.21
651.552	21.06
651.742	21.02
651.932	20.9
652.122	20.92
652.312	20.83
652.502	20.7
652.691	20.62
652.881	20.48
653.071	20.31
653.261	20.25
653.45	20.24
653.64	20.19
653.83	20.1
654.019	19.96
654.209	19.89
654.399	19.71
654.588	19.52
654.778	19.35
654.968	19.2
655.157	19.04
655.347	18.84
655.536	18.68
655.726	18.4
655.915	18.28
656.105	18.07
656.294	17.85
656.484	17.72
656.673	17.81
656.863	17.67
657.052	17.48
657.241	17.39
657.431	17.04
657.62	16.74
657.809	16.31
657.999	16.07
658.188	15.78
658.377	15.59
658.567	15.31
658.756	15.17
658.945	14.94
659.134	14.75
659.324	14.61
659.513	14.37
659.702	14.12
659.891	13.93
660.08	13.67
660.269	13.41
660.458	13.19
660.648	13.12
660.837	12.82
661.026	12.62
661.215	12.42
661.404	12.19
661.593	11.83
661.782	11.63
661.971	11.44
662.16	11.29
662.349	11.09
662.538	11.03
662.726	10.95
662.915	10.82
663.104	10.61
663.293	10.54
663.482	10.36
663.671	10.12
663.86	9.96
664.048	9.84
664.237	9.65
664.426	9.46
664.615	9.26
664.803	9.08
664.992	8.92
665.181	8.96
665.369	8.94
665.558	8.91
665.747	8.83
665.935	8.73
666.124	8.52
666.312	8.4
666.501	8.28
666.69	8.21
666.878	8.13
667.067	8.04
667.255	7.94
667.444	7.96
667.632	7.94
667.82	7.85
668.009	7.82
668.197	7.75
668.386	7.69
668.574	7.62
668.762	7.59
668.951	7.58
669.139	7.53
669.327	7.41
669.516	7.4
669.704	7.39
669.892	7.34
670.08	7.31
670.269	7.35
670.457	7.28
670.645	7.18
670.833	7.11
671.021	7.13
671.21	7.13
671.398	7.19
671.586	7.27
671.774	7.37
671.962	7.34
672.15	7.36
672.338	7.4
672.526	7.33
672.714	7.27
672.902	7.33
673.09	7.36
673.278	7.37
673.466	7.51
673.654	7.64
673.842	7.6
674.03	7.62
674.218	7.67
674.405	7.54
674.593	7.6
674.781	7.63
674.969	7.66
675.157	7.69
675.344	7.83
675.532	7.69
675.72	7.8
675.908	7.83
676.095	7.83
676.283	7.91
676.471	8.03
676.658	8.11
676.846	8.19
677.033	8.17
677.221	8.19
677.409	8.19
677.596	8.29
677.784	8.33
677.971	8.39
678.159	8.49
678.346	8.62
678.534	8.66
678.721	8.75
678.909	8.99
679.096	9.18
679.283	9.25
679.471	9.37
679.658	9.46
679.846	9.46
680.033	9.5
680.22	9.68
680.408	9.76
680.595	9.98
680.782	10.18
680.969	10.24
681.157	10.35
681.344	10.47
681.531	10.59
681.718	10.68
681.905	10.97
682.093	11.25
682.28	11.47
682.467	11.69
682.654	11.97
682.841	12.15
683.028	12.32
683.215	12.52
683.402	12.56
683.589	12.76
683.776	12.94
683.963	13.19
684.15	13.56
684.337	13.9
684.524	14.26
684.711	14.51
684.898	14.73
685.085	15.07
685.271	15.33
685.458	15.67
685.645	16.15
685.832	16.5
686.019	16.78
686.205	17.25
686.392	17.53
686.579	17.95
686.766	18.38
686.952	18.68
687.139	19.23
687.326	19.72
687.512	20.09
687.699	20.61
687.886	21.19
688.072	21.64
688.259	22.28
688.445	22.77
688.632	23.41
688.818	24.23
689.005	24.85
689.191	25.33
689.378	26.17
689.564	26.86
689.751	27.31
689.937	28
690.124	28.61
690.31	29.33
690.496	29.82
690.683	30.57
690.869	31.28
691.055	32.09
691.242	32.66
691.428	33.39
691.614	34.13
691.8	34.67
691.987	35.41
692.173	36.07
692.359	37.01
692.545	37.79
692.731	38.71
692.918	39.51
693.104	40.46
693.29	41.1
693.476	41.9
693.662	42.42
693.848	43.07
694.034	43.64
694.22	44.5
694.406	45.35
694.592	46.25
694.778	47.1
694.964	48.08
695.15	48.94
695.336	49.58
695.522	50.4
695.708	51.3
695.894	51.84
696.08	52.43
696.265	53.02
696.451	53.81
696.637	54.43
696.823	55.15
697.009	55.81
697.194	56.66
697.38	57.2
697.566	57.64
697.751	58.2
697.937	58.79
698.123	59.21
698.308	60.02
698.494	60.66
698.68	61.49
698.865	62.14
699.051	62.88
699.236	63.41
699.422	64.13
699.607	64.66
699.793	65.55
699.978	66.14
700.164	66.82
700.349	67.51
700.535	68.37
700.72	68.55
700.906	69.07
701.091	69.55
701.276	69.71
701.462	70.11
701.647	70.55
701.832	70.88
702.018	71.16
702.203	71.9
702.388	72.24
702.573	72.59
702.759	72.95
702.944	73.16
703.129	73.63
703.314	73.9
703.499	74.77
703.684	75.24
703.87	75.79
704.055	75.79
704.24	75.83
704.425	75.64
704.61	76.29
704.795	76.4
704.98	77.25
705.165	77.98
705.35	78.42
705.535	78.68
705.72	79.22
705.905	78.97
706.09	78.77
706.275	79.37
706.459	79.32
706.644	79.43
706.829	79.66
707.014	80.32
707.199	80.57
707.384	80.63
707.568	81.1
707.753	81.42
707.938	81.35
708.123	81.36
708.307	81.76
708.492	81.99
708.677	82.55
708.861	82.85
709.046	83.18
709.231	83.28
709.415	83.59
709.6	83.5
709.784	84.18
709.969	84.14
710.153	84.52
710.338	84.71
710.522	85.03
710.707	85.03
710.891	85.28
711.076	85.29
711.26	85.48
711.445	85.46
711.629	85.22
711.813	85.09
711.998	85.72
712.182	85.99
712.366	86.12
712.551	86.99
712.735	87.82
712.919	87.63
713.103	87.44
713.288	87.48
713.472	86.94
713.656	86.68
713.84	86.57
714.024	86.56
714.208	86.51
714.393	86.67
714.577	86.58
714.761	86.47
714.945	86.75
715.129	87.43
715.313	87.33
715.497	87.25
715.681	87.88
715.865	87.94
716.049	87.72
716.233	88.03
716.417	88.32
716.601	88.21
716.785	88.3
716.968	88.42
717.152	88.69
717.336	89.31
717.52	89.63
717.704	89.72
717.888	89.54
718.071	89.18
718.255	88.43
718.439	88.36
718.622	88.55
718.806	88.92
718.99	88.97
719.174	89.46
719.357	89.42
719.541	89.47
719.724	89.63
719.908	89.69
720.092	89.51
720.275	89.47
720.459	89.13
720.642	89.42
720.826	89.89
721.009	89.84
721.193	89.87
721.376	89.9
721.559	89.56
721.743	89.33
721.926	89.54
722.11	88.95
722.293	89.11
722.476	89.37
722.66	89.52
722.843	89.73
723.026	90.08
723.21	89.91
723.393	89.62
723.576	90.34
723.759	90.13
723.942	90.42
724.126	90.89
724.309	91.07
724.492	90.6
724.675	91.51
724.858	91.97
725.041	91.57
725.224	91.73
725.407	92.01
725.59	91.12
725.774	90.73
725.957	91.57
726.14	91.53
726.322	91.56
726.505	92.4
726.688	93.04
726.871	93.25
727.054	93.36
727.237	93.04
727.42	92.95
727.603	92.85
727.786	92.02
727.968	92.17
728.151	92.02
728.334	91.55
728.517	91.47
728.699	91.98
728.882	92.19
729.065	92.26
729.248	92.62
729.43	92.93
729.613	93.14
729.796	93.31
729.978	93.51
730.161	93.5
730.343	93.24
730.526	93.01
730.708	91.74
730.891	91.83
731.073	91.57
731.256	91.67
731.438	91.98
731.621	92.94
731.803	92.91
731.986	92.85
732.168	93
732.35	92.56
732.533	92.61
732.715	92.74
732.898	93.24
733.08	93.16
733.262	93.12
733.444	93.6
733.627	93.35
733.809	93.23
733.991	93.36
734.173	93.69
734.355	92.71
734.538	92.62
734.72	92.54
734.902	92.14
735.084	92.57
735.266	92.64
735.448	93.51
735.63	93.3
735.812	94.02
735.994	92.98
736.176	93.45
736.358	93.63
736.54	94.25
736.722	93.9
736.904	94.39
737.086	94.28
737.268	93.39
737.45	93.04
737.632	93.18
737.814	92.98
737.995	92.54
738.177	92.67
738.359	92.72
738.541	92.28
738.723	91.97
738.904	92.24
739.086	92.71
739.268	93.6
739.449	93.69
739.631	94.35
739.813	94.98
739.994	94.04
740.176	92.57
740.358	93.5
740.539	93.91
740.721	93.36
740.902	94.15
741.084	94.62
741.265	94.54
741.447	93.48
741.628	93.7
741.81	93.72
741.991	94.31
742.172	94.14
742.354	94.51
742.535	95.52
742.717	95.42
742.898	95.51
743.079	94.94
743.261	94.67
743.442	92.68
743.623	93.39
743.804	92.96
743.986	91.97
744.167	93.26
744.348	94.57
744.529	92.88
744.71	92.58
744.891	94.06
745.073	93.97
745.254	94.01
745.435	94.65
745.616	94.41
745.797	93.92
745.978	93.36
746.159	93.14
746.34	94.02
746.521	94.16
746.702	93.82
746.883	93.81
747.064	93.91
747.245	93
747.426	92.63
747.606	93.07
747.787	93.67
747.968	93.39
748.149	93.01
748.33	94.1
748.51	94.25
748.691	93.66
748.872	93.17
749.053	94.36
749.233	94.11
749.414	93.27
749.595	93.6
749.775	93.98
749.956	92.65
750.137	92.26
750.317	93.62
750.498	92.69
750.678	92.77
750.859	93.91
751.04	93.93
751.22	94.29
751.4	95.49
751.581	96.09
751.761	96.77
751.942	97.89
752.122	97.82
752.303	96.67
752.483	96.38
752.663	95.6
752.844	95.14
753.024	94.55
753.204	95.18
753.385	95.77
753.565	94.22
753.745	94.37
753.925	93.6
754.106	93.98
754.286	94.07
754.466	94.63
754.646	93.28
754.826	92.99
755.006	91.61
755.187	91.13
755.367	90.84
755.547	91.2
755.727	91.91
755.907	92.65
756.087	90.93
756.267	93.08
756.447	93.95
756.627	93.4
756.807	92.96
756.987	93.99
757.167	92.12
757.346	92.49
757.526	92.16
757.706	93.92
757.886	93.53
758.066	93.38
758.246	91.88
758.425	91.61
758.605	89.51
758.785	89.81
758.965	90.32
759.144	90.56
759.324	90.9
759.504	92.48
759.683	93.14
759.863	93.06
760.043	94.35
760.222	94.02
760.402	91.99
760.581	91.12
760.761	91.9
760.94	90.39
761.12	89.78
761.299	90.5
761.479	91.6
761.658	91.18
761.838	92.19
762.017	93.15
762.197	92.72
762.376	92.97
762.555	92.06
762.735	90.22
762.914	90.68
763.093	92.03
763.273	90.23
763.452	90.59
763.631	91.71
763.81	91.44
763.99	89.79
764.169	89.67
764.348	89.02
764.527	87.96
764.706	88
764.885	89.84
765.064	89.75
765.243	90.24
765.423	91.41
765.602	91.08
765.781	90.6
765.96	91.38
766.139	91.46
766.318	91.09
766.497	90.31
766.676	90.38
766.854	90.6
767.033	91.56
767.212	92.36
767.391	92.66
767.57	92.04
767.749	92.6
767.928	90.94
768.106	90.09
768.285	89.71
768.464	88.72
768.643	88.75
768.821	89.32
769	88.94
769.179	89.56
769.357	90.21
769.536	89.24
769.715	89.63
769.893	90.48
770.072	89.36
770.25	88.55
770.429	88.87
770.607	88.73
770.786	86.61
770.964	86.04
771.143	87.56
771.321	86.39
771.5	87.79
771.678	89.2
771.857	92.07
772.035	89.71
772.213	90.09
772.392	87.88
772.57	88.53
772.748	87.62
772.927	89.65
773.105	91.49
773.283	92.92
773.461	92.62
773.64	90.67
773.818	90.69
773.996	88.56
774.174	86.69
774.352	84.45
774.531	86.4
774.709	84.74
774.887	84.69
775.065	85.34
775.243	87.64
775.421	86.11
775.599	86.92
775.777	86.36
775.955	85.35
776.133	85.88
776.311	87.98
776.489	86.92
776.667	88.13
776.844	91.24
777.022	89.88
777.2	88.97
777.378	89.38
777.556	88.38
777.734	86.32
777.911	86.08
778.089	88.67
778.267	89.09
778.445	90.33
778.622	91.02
778.8	90.76
778.978	87
779.155	88.32
779.333	87.05
779.511	85.8
779.688	85.35
779.866	87.14
780.043	85.62
780.221	88.76
780.398	88.24
780.576	89.19
780.753	87.34
780.931	90.5
781.108	90.04
781.286	90.63
781.463	91.06
781.64	90.95
781.818	88.66
781.995	84.57
782.172	83.01
782.35	83.52
782.527	83.48
782.704	82.31
782.882	83.63
783.059	84.81
783.236	84.86
783.413	84.37
783.59	86.14
783.768	86.39
783.945	85.5
784.122	83.52
784.299	83.71
784.476	80.39
784.653	80.55
784.83	83.16
785.007	83.4
785.184	80.51
785.361	80.16
785.538	81
785.715	78.89
785.892	80.94
786.069	84.21
786.246	88.69
786.423	88.18
786.6	89.88
786.776	87.35
786.953	88.42
787.13	87.33
787.307	85.85
787.484	83.55
787.66	83.12
787.837	82.83
788.014	82.48
788.191	82.03
788.367	83.24
788.544	84.8
788.721	83.79
788.897	81.75
789.074	81.73
789.25	79.96
789.427	79.8
789.603	82.3
789.78	82.79
789.956	84.22
790.133	85.98
790.309	88.61
790.486	86
790.662	89.29
790.839	88.58
791.015	88.08
791.192	85.21
791.368	84.55
791.544	83.49
791.721	84.46
791.897	83.53
792.073	77.91
792.249	81.87
792.426	77.55
792.602	80.26
792.778	79.97
792.954	86.07
793.13	82.57
793.307	84.89
793.483	83.55
793.659	83.61
793.835	85.85
794.011	85.97
794.187	84.81
794.363	80.63
794.539	84.32
794.715	83.87
794.891	83.94
795.067	85.34
795.243	90.07
795.419	88.44
795.595	88.76
795.771	89.26
795.947	93.14
796.122	87.92
796.298	86.48
796.474	83.63
796.65	86.6
796.826	84.56
797.001	85.96
797.177	87.29
797.353	82.92
797.529	78.63
797.704	80.43
797.88	85.55
798.056	82.54
798.231	88.8
798.407	93.41
798.582	89.18
798.758	82.43
798.934	86.22
799.109	89.35
799.285	88.87
799.46	87
799.636	88.89
799.811	88.6
799.986	81.85
800.162	76.81
800.337	80.37
800.513	78.43
800.688	77.06
800.863	79.72
801.039	83.5
801.214	81.77
801.389	86.29
801.565	85.98
801.74	84.6
801.915	81.39
802.09	79.9
802.265	73.12
802.441	75.66
802.616	76.22
802.791	81.89
802.966	85.23
803.141	88.64
803.316	86.92
803.491	89.87
803.666	83.24
803.841	77
804.016	76.25
804.191	75.01
804.366	74.74
804.541	76.22
804.716	79.97
804.891	82.4
805.066	84.42
805.241	80.6
805.416	79.16
805.591	76.87
805.765	74.78
805.94	70.71
806.115	70.54
806.29	75.84
806.464	82.7
806.639	77.59
806.814	79.87
806.989	81.41
807.163	74.74
807.338	69.29
807.512	71.54
807.687	70.34
807.862	72.21
808.036	75.08
808.211	78.46
808.385	79.07
808.56	80.79
808.734	79.3
808.909	80.33
809.083	80.03
809.258	83.34
809.432	86.21
809.606	82.24
809.781	85.81
809.955	84.39
810.13	85.75
810.304	77.23
810.478	77.04
810.652	68.1
810.827	69.05
811.001	66.36
811.175	74.06
811.349	71.04
811.524	76.47
811.698	73.86
811.872	76.72
812.046	76.4
812.22	87.15
812.394	83.36
812.568	95.88
812.742	92.6
812.916	82.48
813.09	75.61
813.264	81.53
813.438	73.24
813.612	72.58
813.786	79.98
813.96	82.72
814.134	81.46
814.308	82.98
814.482	77.83
814.656	82.02
814.83	78.71
815.003	78.95
815.177	78.06
815.351	87.02
815.525	79.25
815.698	84.17
815.872	93.13
816.046	84.86
816.219	80.92
816.393	87.37
816.567	84.4
816.74	73.3
816.914	78.07
817.088	75.04
817.261	63.91
817.435	61.31
817.608	65.79
817.782	66.82
817.955	67.66
818.129	77.26
818.302	83.89
818.475	75.45
818.649	77.11
818.822	73.24
818.996	77.46
819.169	77.28
819.342	81.12
819.516	79.48
819.689	79.73
819.862	70.91
820.035	65.99
820.209	62.07
820.382	69.17
820.555	71.2
820.728	75.09
820.901	73.94
821.075	80.23
821.248	72.33
821.421	73.27
821.594	67.83
821.767	67.46
821.94	63.99
822.113	66.4
822.286	77.58
822.459	81.28
822.632	81.21
822.805	77.55
822.978	72.88
823.151	61.69
823.324	75.26
823.496	74.95
823.669	77.33
823.842	83.8
824.015	83.46
824.188	76.81
824.361	81.68
824.533	78.54
824.706	74.25
824.879	68.13
825.051	70.41
825.224	61.74
825.397	66.91
825.569	63.03
825.742	76.29
825.915	72.65
826.087	81.6
826.26	79.77
826.432	73.71
826.605	66.3
826.777	72.18
826.95	71.44
827.122	72.91
827.295	71.98
827.467	73.4
827.64	57.77
827.812	63.92
827.984	71.72
828.157	77.06
828.329	77.57
828.501	74.87
828.674	73.98
828.846	63.96
829.018	74.6
829.19	70.61
829.363	76.43
829.535	61.8
829.707	59.8
829.879	58.48
830.051	59.03
830.223	59.26
830.395	76.37
830.568	77.47
830.74	71.99
830.912	77.41
831.084	85.5
831.256	74.59
831.428	78.25
831.6	81.27
831.772	78.74
831.943	75.03
832.115	80.62
832.287	82.08
832.459	71.45
832.631	71.61
832.803	63.6
832.975	63.13
833.146	56.96
833.318	59.06
833.49	65.48
833.662	77.19
833.833	72.85
834.005	57.5
834.177	54.09
834.348	40.3
834.52	37.46
834.692	47.86
834.863	53.13
835.035	65.4
835.206	71.91
835.378	73.42
835.549	70.87
835.721	89.72
835.892	87.57
836.064	91.68
836.235	82.12
836.407	90.71
836.578	84.55
836.749	80.98
836.921	62.17
837.092	75.18
837.264	61.47
837.435	61.4
837.606	64.57
837.777	89.43
837.949	84.44
838.12	75.33
838.291	64.31
838.462	64.45
838.633	48.71
838.805	52.01
838.976	54.82
839.147	59.29
839.318	51.49
839.489	55.77
839.66	57.08
839.831	62.2
840.002	54.05
840.173	55.74
840.344	56.1
840.515	31.3
840.686	19.65
840.857	49.15
841.028	49.56
841.199	47.15
841.369	69.45
841.54	67.22
841.711	62.95
841.882	56.84
842.053	63.76
842.223	72.48
842.394	81.89
842.565	66.67
842.736	87.37
842.906	94.96
843.077	99.98
843.248	80.06
843.418	80.67
843.589	71.59
843.759	55.78
843.93	44.14
844.101	54.63
844.271	55.17
844.442	54.42
844.612	54.25
844.783	51.61
844.953	42.96
845.123	56.69
845.294	64.31
845.464	85.62
845.635	110.77
845.805	101.2
845.975	88.97
846.146	73.98
846.316	73.03
846.486	50.15
846.656	55.19
846.827	59.94
846.997	68.88
847.167	53.38
847.337	62.54
847.507	58.56
847.677	51.71
847.848	46.04
848.018	51.33
848.188	60.41
848.358	68.31
848.528	83.33
848.698	83.42
848.868	77.57
849.038	71.95
849.208	63.47
849.378	53.93
849.548	38.61
849.718	47.98
849.887	54.78
850.057	66.9
850.227	79.99
850.397	86.98
850.567	92.7
850.737	77.86
850.906	72.12
851.076	70.98
851.246	80.59
851.415	63.64
851.585	50.7
851.755	70.37
851.924	45.95
852.094	53.27
852.264	55.54
852.433	63.69
852.603	52.39
852.772	59.33
852.942	52.06
853.111	61.11
853.281	79.54
853.45	89.84
853.62	89.9
853.789	90.5
853.959	98.25
854.128	75.75
854.297	62.56
854.467	55.97
854.636	61.08
854.805	61.96
854.975	54.47
855.144	52.83
855.313	54.82
855.482	37.77
855.652	14.06
855.821	25.51
855.99	31.87
856.159	45.25
856.328	66.72
856.497	58.97
856.667	65.04
856.836	56.15
857.005	35.31
857.174	33.28
857.343	59.93
857.512	57.51
857.681	66.31
857.85	76.98
858.019	61.73
858.188	58.23
858.356	54.64
858.525	53.4
858.694	37.93
858.863	66.67
859.032	96.77
859.201	86.39
859.369	96.72
859.538	103.72
859.707	99.74
859.876	68.69
860.044	76.52
860.213	78.96
860.382	53.22
860.55	55.67
860.719	48.98
860.888	53.74
861.056	36.77
861.225	52.16
861.393	61.17
861.562	45.72
861.73	34.28
861.899	22.77
862.067	44.23
862.236	31.95
862.404	40.28
862.572	46.06
862.741	53.38
862.909	68.22
863.078	72.15
863.246	69.67
863.414	68.59
863.582	54.32
863.751	38.94
863.919	23.96
864.087	51.55
864.255	53.74
864.424	105.78
864.592	92.29
864.76	148.82
864.928	191.62
865.096	126.63
865.264	167.88
865.432	224.5
865.6	113.25
865.768	70.59
865.936	98.6
866.104	85.95
866.272	68.9
866.44	52.18
866.608	58.12
866.776	27.84
866.944	23.46
867.112	12.18
867.28	-1.11
867.448	4.79
867.615	26.42
867.783	35.19
867.951	27
868.119	34.01
868.286	21.59
868.454	25.02
868.622	10.01
868.789	16.92
868.957	27.99
869.125	26.76
869.292	11.74
869.46	21.54
869.627	38.4
869.795	30.07
869.963	51.82
870.13	50.51
870.298	46.01
870.465	64.27
870.632	69.47
870.8	65.77
870.967	74.22
871.135	68.81
871.302	68.38
871.469	91.22
871.637	102.84
871.804	113.27
871.971	86.22
872.139	64.13
872.306	33.54
872.473	4.39
872.64	32.91
872.807	41.44
872.975	32.51
873.142	32.56
873.309	42.35
873.476	48.68
873.643	55.57
873.81	97.01
873.977	116.73
874.144	84.24
874.311	66.76
874.478	57.86
874.645	51.19
874.812	29.07
874.979	66.39
875.146	88.21
875.313	116.39
875.48	104.5
875.647	93.05
875.813	94.65
875.98	73.5
876.147	65.74
876.314	73.79
876.481	73.36
876.647	59.61
876.814	42.26
876.981	29.77
877.147	35.79
877.314	29.61
877.481	37.45
877.647	48.28
877.814	34.7
877.98	11.88
878.147	40.09
878.314	37.84
878.48	56.05
878.647	67.17
878.813	74.17
878.979	42.18
879.146	36.32
879.312	47.22
879.479	36.39
879.645	30.55
879.811	57.67
879.978	73.37
880.144	42.41
880.31	43.92
880.477	65.17
880.643	57.47
880.809	41.97
880.975	68.33
881.142	68.35
881.308	36.26
881.474	36.88
881.64	46.29
881.806	37.17
881.972	41.89
882.138	46.68
882.304	77.72
882.47	57.25
882.636	22.22
882.802	-49.4
882.968	55.14
883.134	24.85
883.3	99.94
883.466	90.38
883.632	103.03
883.798	60.44
883.964	47.35
884.129	42.7
884.295	46.85
884.461	39.27
884.627	43.13
884.793	56.93
884.958	46.8
885.124	53.54
885.29	69.39
885.455	58.71
885.621	19.35
885.787	-2.91
885.952	-10.24
886.118	-31.32
886.283	-21.61
886.449	14.74
886.614	38.55
886.78	40.12
886.945	52.11
887.111	55.41
887.276	45.65
887.442	33.56
887.607	55.11
887.773	48.44
887.938	48.32
888.103	52.29
888.269	90.78
888.434	56.93
888.599	88.57
888.764	95.51
888.93	102.05
889.095	99.98
889.26	115.2
889.425	69.02
889.59	54.38
889.756	37.49
889.921	26.59
890.086	18.09
890.251	23.3
890.416	16.47
890.581	32.87
890.746	31.55
890.911	83.1
891.076	95.72
891.241	77.59
891.406	72.54
891.571	140.97
891.736	135.06
891.901	85.75
892.065	46.22
892.23	55.93
892.395	55.78
892.56	29.29
892.725	55.62
892.889	80.5
893.054	79.41
893.219	35.66
893.384	52.13
893.548	41.79
893.713	50.83
893.878	47.07
