Data from Ofra_PS_Phys_1GT42_Reflection_3.txt Node
Date: Tue Jul 20 17:51:58 EDT 2021
User: USUARIO
Spectrometer: FLMT01687
Trigger mode: 0
Integration Time (sec): 1.042999E0
Scans to average: 2
Electric dark correction enabled: true
Nonlinearity correction enabled: false
Boxcar width: 2
XAxis mode: Wavelengths
Number of Pixels in Spectrum: 3648
>>>>>Begin Spectral Data<<<<<
179.494	47.78
179.716	50.38
179.937	24.32
180.158	-277.99
180.38	-251.79
180.601	213.35
180.823	171.35
181.044	102.84
181.265	-368.02
181.486	10.12
181.708	-0.45
181.929	2.08
182.15	22.46
182.372	7.39
182.593	46.95
182.814	52.06
183.035	58.5
183.257	83.82
183.478	116.48
183.699	90.6
183.92	56.28
184.141	58.74
184.363	35.1
184.584	37.19
184.805	42.87
185.026	73.47
185.247	70.25
185.468	67.34
185.689	65.53
185.91	82.66
186.132	72.89
186.353	93.67
186.574	103.47
186.795	119.4
187.016	88.77
187.237	85.31
187.458	60.39
187.679	-11
187.9	25.72
188.121	54.64
188.342	14.72
188.563	26.03
188.784	82.43
189.005	46.42
189.226	19.18
189.447	16.94
189.667	23.03
189.888	6.9
190.109	29.21
190.33	38.98
190.551	36.05
190.772	12.48
190.993	7.31
191.214	7.39
191.434	11.55
191.655	22.15
191.876	50.54
192.097	61.26
192.318	70.56
192.538	102.97
192.759	84.45
192.98	29.22
193.201	51.8
193.421	30.06
193.642	31.15
193.863	14.65
194.083	59.52
194.304	48.23
194.525	48.87
194.745	43.36
194.966	54.02
195.187	31.96
195.407	-11.42
195.628	34.86
195.848	33.82
196.069	48.08
196.29	45.24
196.51	59.82
196.731	26.14
196.951	49.86
197.172	37.46
197.392	68.12
197.613	56.62
197.833	80.74
198.054	3.48
198.274	7.27
198.495	1.78
198.715	33.71
198.936	19.27
199.156	21.41
199.377	20.95
199.597	28.42
199.817	-12.67
200.038	5.98
200.258	29.7
200.479	49.27
200.699	43.55
200.919	45.99
201.14	35.07
201.36	56.14
201.58	18.48
201.801	54.63
202.021	88.23
202.241	72.58
202.461	25.09
202.682	52.62
202.902	1.49
203.122	16.6
203.342	26.57
203.563	38.2
203.783	38.23
204.003	22.28
204.223	-8.5
204.443	-91.71
204.663	-81.32
204.884	-34.61
205.104	2.89
205.324	28.5
205.544	37.63
205.764	42.34
205.984	27.28
206.204	21.42
206.424	-2.24
206.644	-2.44
206.864	5.83
207.084	18.18
207.304	32.81
207.525	49.62
207.745	37.09
207.964	29.22
208.184	26.55
208.404	22.28
208.624	15.39
208.844	24.39
209.064	25.9
209.284	30.54
209.504	29.84
209.724	27.03
209.944	30.65
210.164	43.34
210.384	55.05
210.604	87.25
210.823	96.46
211.043	64.1
211.263	45.58
211.483	39.45
211.703	20.09
211.922	28.49
212.142	46.52
212.362	66.66
212.582	51.68
212.801	39.4
213.021	35.34
213.241	14.83
213.461	43.12
213.68	48.36
213.9	-11.2
214.12	5.86
214.339	-9.34
214.559	-94.73
214.779	-50.18
214.998	23.21
215.218	35.79
215.438	38.75
215.657	62.59
215.877	60.09
216.096	63.73
216.316	48.98
216.535	48.82
216.755	41.81
216.974	33.11
217.194	19.92
217.413	13.43
217.633	3.02
217.852	3.84
218.072	8.27
218.291	13.75
218.511	18.91
218.73	11.3
218.95	-1.41
219.169	5.14
219.389	2.76
219.608	-16.57
219.827	8.89
220.047	49.15
220.266	64.26
220.485	49.75
220.705	63.14
220.924	59.58
221.143	25.36
221.363	15
221.582	24.23
221.801	29.55
222.021	36.58
222.24	36.85
222.459	23.78
222.678	14.37
222.897	44.13
223.117	54.51
223.336	63.51
223.555	73.94
223.774	77.21
223.993	66.38
224.213	56.1
224.432	45.07
224.651	14.27
224.87	28.93
225.089	7.8
225.308	-9.94
225.527	7.93
225.746	1.31
225.965	-12.34
226.184	13.52
226.404	25.69
226.623	13.2
226.842	9.06
227.061	15.57
227.28	-2.54
227.499	-17.38
227.718	-18.5
227.936	-3.9
228.155	1.56
228.374	-27.59
228.593	-21.92
228.812	-18.69
229.031	-8.51
229.25	-21.88
229.469	7.83
229.688	3.13
229.907	2.37
230.125	13.42
230.344	19.82
230.563	19.71
230.782	23.12
231.001	19.22
231.22	13.9
231.438	23.57
231.657	23.21
231.876	41.79
232.095	29.83
232.313	22.92
232.532	18.71
232.751	14.48
232.969	1.06
233.188	19.14
233.407	25.3
233.625	35.32
233.844	43.95
234.063	49.89
234.281	37.95
234.5	42.64
234.719	29.8
234.937	19.84
235.156	31.38
235.374	9.56
235.593	-5.43
235.811	-23.55
236.03	-35.86
236.249	-162.67
236.467	-67.36
236.686	-41.82
236.904	-24.61
237.123	-3.26
237.341	25.94
237.559	39.39
237.778	38.85
237.996	43.08
238.215	43.35
238.433	34.24
238.652	20.84
238.87	20.43
239.088	24.7
239.307	30.32
239.525	30.95
239.743	41
239.962	43.97
240.18	26.54
240.398	25.37
240.617	34.3
240.835	23.7
241.053	20.74
241.271	32.75
241.49	29.67
241.708	11.18
241.926	21.09
242.144	18.99
242.363	-6.74
242.581	-12.33
242.799	2.74
243.017	11.55
243.235	7.91
243.453	12.89
243.672	26.27
243.89	17.43
244.108	12.55
244.326	15.89
244.544	22.76
244.762	7.25
244.98	14.71
245.198	7.21
245.416	13.88
245.634	16.43
245.852	32.31
246.07	42.18
246.288	45.15
246.506	49.54
246.724	59.28
246.942	62.26
247.16	59
247.378	56.97
247.596	54.63
247.814	50.63
248.032	16.71
248.25	2.15
248.468	14.2
248.685	8.21
248.903	5.59
249.121	9.49
249.339	5.18
249.557	3.75
249.775	-0.33
249.992	14.9
250.21	-11.49
250.428	-43.88
250.646	-49.55
250.863	-0.07
251.081	-29.63
251.299	-44.95
251.517	-15.6
251.734	-26.5
251.952	-88.77
252.17	-34.91
252.387	14.71
252.605	2.94
252.823	30.19
253.04	45.09
253.258	47.06
253.475	42.6
253.693	62.67
253.911	59.02
254.128	54.78
254.346	43.21
254.563	51.09
254.781	32.73
254.998	17.48
255.216	19.09
255.433	13.51
255.651	8.73
255.868	15.98
256.086	34.62
256.303	26.97
256.521	30.8
256.738	37.2
256.956	41.64
257.173	20.73
257.39	20.53
257.608	16.66
257.825	40.12
258.043	39.97
258.26	58.1
258.477	54.11
258.695	53.47
258.912	32.73
259.129	43.2
259.346	30.49
259.564	28.2
259.781	37.16
259.998	44.65
260.216	52.07
260.433	42.57
260.65	62.33
260.867	59.11
261.084	63.86
261.302	37.34
261.519	54.83
261.736	35.98
261.953	35.24
262.17	30.8
262.387	55.27
262.604	88.11
262.822	35.26
263.039	10.67
263.256	-2.46
263.473	-46.96
263.69	-24.29
263.907	15.03
264.124	14.27
264.341	41.05
264.558	63.73
264.775	46.28
264.992	31.94
265.209	40.01
265.426	15.43
265.643	7.81
265.86	31.38
266.077	26.39
266.294	23.92
266.51	29.51
266.727	19.75
266.944	17.41
267.161	22.02
267.378	5.13
267.595	12.21
267.812	19.64
268.028	18.95
268.245	18.49
268.462	44.33
268.679	38.74
268.896	39.32
269.112	30.38
269.329	29.58
269.546	-10.91
269.763	-2.21
269.979	28.23
270.196	30.81
270.413	33.64
270.629	16.62
270.846	15.32
271.063	-9.91
271.279	-11.75
271.496	-17.98
271.712	5.61
271.929	18.41
272.146	24.31
272.362	39
272.579	36.93
272.795	30.99
273.012	13.61
273.228	20.19
273.445	5.25
273.661	5.47
273.878	2.8
274.094	10.79
274.311	-0.27
274.527	15.19
274.744	0.32
274.96	5.98
275.177	-14.26
275.393	-8.9
275.609	-12.99
275.826	2.36
276.042	-3.5
276.259	13.89
276.475	20.69
276.691	27.26
276.908	17.21
277.124	25.14
277.34	16.55
277.557	13.06
277.773	-5.61
277.989	2.59
278.205	-1.84
278.422	27.17
278.638	50.58
278.854	66.37
279.07	82.09
279.286	77.25
279.503	51.23
279.719	31.44
279.935	27.41
280.151	35.59
280.367	21.36
280.583	38.41
280.799	51.65
281.016	37.53
281.232	31.32
281.448	41.99
281.664	34.44
281.88	27.48
282.096	33.51
282.312	31.18
282.528	32.17
282.744	27.63
282.96	17.71
283.176	25.39
283.392	20.41
283.608	19.39
283.824	14.83
284.04	11.97
284.256	11.41
284.471	9.97
284.687	20.1
284.903	27.64
285.119	44.13
285.335	9.23
285.551	27.22
285.767	29.66
285.982	27.36
286.198	30.86
286.414	53.89
286.63	39.44
286.846	22.67
287.061	29.36
287.277	31.14
287.493	22.81
287.709	14.45
287.924	26.8
288.14	25.15
288.356	36.67
288.571	38.64
288.787	40.15
289.003	29.16
289.218	33.7
289.434	16.46
289.65	8.99
289.865	7.5
290.081	36.11
290.296	37
290.512	33.09
290.727	25.23
290.943	25.3
291.159	20.24
291.374	-34.05
291.59	-23.01
291.805	-8.67
292.021	-30.11
292.236	-7.71
292.451	17.04
292.667	34.98
292.882	31.22
293.098	47.85
293.313	26.66
293.529	30.53
293.744	19.26
293.959	4.62
294.175	-4.48
294.39	-49
294.605	-47.18
294.821	-86.47
295.036	-70.61
295.251	-47.3
295.467	-23.73
295.682	-13.29
295.897	7.67
296.112	-7.34
296.328	0.18
296.543	18.66
296.758	31.65
296.973	25.54
297.188	25.28
297.404	11.29
297.619	-3.09
297.834	-83.49
298.049	-44.68
298.264	13.63
298.479	4.9
298.694	9.17
298.909	10.09
299.125	26.93
299.34	7.52
299.555	27.23
299.77	-11.97
299.985	-19.16
300.2	-82.03
300.415	-72.37
300.63	-82.35
300.845	-16.47
301.06	6.54
301.275	29.47
301.49	32.11
301.704	40.58
301.919	30.04
302.134	9.4
302.349	9.44
302.564	33.68
302.779	16.32
302.994	27.75
303.209	37.85
303.423	30.73
303.638	18.33
303.853	15.31
304.068	20.57
304.283	7.63
304.497	12.98
304.712	29.64
304.927	42.68
305.142	25.97
305.356	31.64
305.571	31.8
305.786	19.27
306	15.99
306.215	26.34
306.43	22.29
306.644	25.09
306.859	28.18
307.074	17.96
307.288	27.47
307.503	23.95
307.717	24.27
307.932	3.24
308.147	9.83
308.361	0.88
308.576	7.61
308.79	1.21
309.005	23.48
309.219	35.84
309.434	30.77
309.648	8.26
309.863	7.65
310.077	32.93
310.292	40.06
310.506	37.68
310.72	47.08
310.935	47.36
311.149	20.11
311.364	14.19
311.578	22.88
311.792	32.11
312.007	36.02
312.221	39.4
312.435	33.92
312.649	25.78
312.864	33.19
313.078	37.79
313.292	44.34
313.507	54.55
313.721	56.06
313.935	48.59
314.149	49.28
314.363	41.46
314.578	36.03
314.792	29.55
315.006	10.15
315.22	6.57
315.434	17.86
315.648	11.51
315.862	-4.93
316.077	1.05
316.291	-1.46
316.505	-12.76
316.719	-10.68
316.933	1.1
317.147	8.07
317.361	16.04
317.575	21.26
317.789	31.78
318.003	34.41
318.217	36.37
318.431	26.77
318.645	29.56
318.859	32.83
319.073	42.84
319.287	46.56
319.5	58.26
319.714	45.71
319.928	51.89
320.142	40.6
320.356	23.72
320.57	11.07
320.784	21.2
320.997	0.73
321.211	2.59
321.425	23.76
321.639	21.61
321.853	31.74
322.066	33.92
322.28	53.07
322.494	46.51
322.707	54.01
322.921	39
323.135	45.02
323.349	26.24
323.562	6.92
323.776	9.79
323.989	11.19
324.203	-11.57
324.417	-3.43
324.63	6.18
324.844	1.89
325.057	9.95
325.271	34.62
325.485	26.44
325.698	18.76
325.912	36.18
326.125	29.22
326.339	22.91
326.552	18.68
326.766	21.6
326.979	7.91
327.193	20.16
327.406	9.3
327.619	30.15
327.833	43.02
328.046	35.45
328.26	24.24
328.473	41.68
328.686	20.19
328.9	7.62
329.113	31.64
329.326	39.98
329.54	36.58
329.753	33.43
329.966	28.48
330.179	33.49
330.393	24.86
330.606	12.54
330.819	21.12
331.032	26.82
331.246	23.61
331.459	20.79
331.672	33.55
331.885	15.91
332.098	9.3
332.311	-0.05
332.525	4.47
332.738	-10.35
332.951	21.17
333.164	27.06
333.377	23.39
333.59	30.48
333.803	45
334.016	40.7
334.229	31.2
334.442	32.59
334.655	25.15
334.868	28.36
335.081	30.46
335.294	44.29
335.507	48.24
335.72	39.43
335.933	17.02
336.146	20
336.359	24.37
336.572	-2.16
336.785	23.77
336.997	21.72
337.21	25.44
337.423	-2.27
337.636	10.86
337.849	-2.82
338.062	8.89
338.274	12.83
338.487	13.79
338.7	5.7
338.913	0.21
339.125	-1.74
339.338	-37.73
339.551	-14.06
339.763	-4.43
339.976	6.79
340.189	10.76
340.402	15.3
340.614	14.86
340.827	25.47
341.039	26.99
341.252	16.58
341.465	16.07
341.677	6.65
341.89	-14.23
342.102	-1.5
342.315	-14.61
342.527	-16.69
342.74	13.25
342.952	21.58
343.165	22.84
343.377	36.94
343.59	40.78
343.802	31.16
344.015	39.09
344.227	29.3
344.44	29.77
344.652	32.19
344.864	26.83
345.077	7.43
345.289	10.71
345.502	7.98
345.714	-1.64
345.926	12.26
346.139	5.95
346.351	6.64
346.563	25.7
346.775	43.74
346.988	5.61
347.2	-1.7
347.412	-6.72
347.624	-6.81
347.837	-2.38
348.049	11.28
348.261	19.4
348.473	35.82
348.685	43.7
348.897	55.26
349.11	47.5
349.322	44.23
349.534	34.77
349.746	30.56
349.958	19.77
350.17	21.23
350.382	28.1
350.594	18.35
350.806	19.12
351.018	17
351.23	19.05
351.442	13.78
351.654	7.76
351.866	-6.36
352.078	-7
352.29	-13.86
352.502	-10.04
352.714	-2.91
352.926	-14.74
353.138	-3.62
353.35	-6.97
353.561	-20.72
353.773	-8.15
353.985	0.27
354.197	-12.84
354.409	9.68
354.621	15.76
354.832	3.57
355.044	10.61
355.256	10.15
355.468	-2.44
355.679	8.42
355.891	28.54
356.103	28.65
356.314	27.32
356.526	24.57
356.738	11.82
356.949	0.51
357.161	6.9
357.373	12.46
357.584	9.54
357.796	15.44
358.008	29.64
358.219	26.01
358.431	23.98
358.642	27.05
358.854	28.5
359.065	18.56
359.277	4.39
359.488	11.68
359.7	11.61
359.911	9.01
360.123	14.63
360.334	23.26
360.546	15.67
360.757	11.47
360.969	-1.78
361.18	12.7
361.391	15.48
361.603	14.68
361.814	33.52
362.025	37.4
362.237	20.86
362.448	16.7
362.659	12.4
362.871	0.45
363.082	0.43
363.293	10.82
363.504	6.61
363.716	10.95
363.927	0.56
364.138	-8.54
364.349	-33.08
364.56	-35.31
364.772	-28.38
364.983	-12.03
365.194	11.37
365.405	-4.51
365.616	-5.03
365.827	3.22
366.038	7.93
366.25	-3.23
366.461	27.31
366.672	43.09
366.883	32.47
367.094	23.93
367.305	24.57
367.516	15.28
367.727	1.51
367.938	2.67
368.149	2.89
368.36	2.7
368.571	19.1
368.781	22.36
368.992	32.21
369.203	40.96
369.414	34.78
369.625	35.65
369.836	37.44
370.047	29.36
370.258	15.82
370.468	15.1
370.679	8.99
370.89	10.2
371.101	14.9
371.312	10.13
371.522	13.24
371.733	16.57
371.944	30.67
372.155	22.15
372.365	24.82
372.576	23.51
372.787	14.2
372.997	-17.15
373.208	-1.51
373.419	21.32
373.629	16.09
373.84	22.71
374.05	27.4
374.261	19.49
374.472	-3.09
374.682	7
374.893	9.6
375.103	15.98
375.314	26.35
375.524	24.74
375.735	33.71
375.945	29.15
376.156	31.87
376.366	29.83
376.577	45.07
376.787	34.24
376.997	35
377.208	35.31
377.418	24.71
377.629	13.65
377.839	6.51
378.049	10.23
378.26	9.01
378.47	18.33
378.68	14.99
378.89	24.76
379.101	25.01
379.311	9.66
379.521	3.91
379.732	13.68
379.942	12.51
380.152	18.05
380.362	27.99
380.572	30.27
380.783	28.26
380.993	32.38
381.203	22.75
381.413	10.32
381.623	-0.17
381.833	-2.8
382.043	-16.69
382.253	-27.47
382.463	-10.01
382.674	-6.87
382.884	-7.26
383.094	2.89
383.304	8.08
383.514	6.25
383.724	14.74
383.934	12.24
384.144	10.5
384.353	14.48
384.563	11.07
384.773	2.48
384.983	4.2
385.193	-1.6
385.403	-3.06
385.613	14.95
385.823	19.52
386.033	12.71
386.242	18.07
386.452	18.08
386.662	7.09
386.872	5.19
387.082	9.47
387.291	5.62
387.501	7.48
387.711	9.97
387.921	11.33
388.13	6.08
388.34	14.12
388.55	16.35
388.759	12.22
388.969	16.23
389.179	20.16
389.388	17.11
389.598	12.5
389.807	15.45
390.017	10.63
390.227	9.4
390.436	5.38
390.646	5.53
390.855	5.48
391.065	4.72
391.274	5.36
391.484	8.67
391.693	9.14
391.903	9.97
392.112	11.44
392.322	9.58
392.531	5.72
392.74	4.92
392.95	4.99
393.159	3.05
393.369	4.41
393.578	5.23
393.787	4.78
393.997	3.71
394.206	2.77
394.415	4.78
394.625	7.31
394.834	7.81
395.043	7.78
395.252	9.94
395.462	9.44
395.671	7.64
395.88	7.31
396.089	7.32
396.298	6.3
396.508	5.63
396.717	6.19
396.926	6.87
397.135	6.45
397.344	5.51
397.553	5.62
397.762	6
397.971	5.32
398.181	5.36
398.39	5.9
398.599	4.94
398.808	4.11
399.017	4.84
399.226	5.2
399.435	5.23
399.644	5.44
399.853	5.67
400.062	5.02
400.27	4.84
400.479	4.93
400.688	5.13
400.897	5.17
401.106	5.49
401.315	5.29
401.524	5.34
401.733	5.66
401.941	5.69
402.15	5.59
402.359	5.51
402.568	5.31
402.777	5.35
402.985	5.02
403.194	4.91
403.403	5.15
403.612	5.34
403.82	5.04
404.029	5.27
404.238	5.45
404.446	5.26
404.655	5.33
404.864	5.38
405.072	5.34
405.281	5.24
405.489	5.3
405.698	5.17
405.906	5.14
406.115	5.14
406.324	4.98
406.532	4.85
406.741	4.89
406.949	4.86
407.158	4.97
407.366	5.02
407.574	4.9
407.783	4.72
407.991	4.6
408.2	4.43
408.408	4.39
408.617	4.47
408.825	4.53
409.033	4.63
409.242	4.7
409.45	4.57
409.658	4.59
409.867	4.74
410.075	4.68
410.283	4.59
410.491	4.51
410.7	4.54
410.908	4.44
411.116	4.37
411.324	4.34
411.533	4.55
411.741	4.67
411.949	4.71
412.157	4.83
412.365	4.8
412.573	4.61
412.781	4.54
412.99	4.44
413.198	4.36
413.406	4.43
413.614	4.56
413.822	4.55
414.03	4.5
414.238	4.49
414.446	4.38
414.654	4.37
414.862	4.34
415.07	4.25
415.278	4.29
415.486	4.22
415.694	4.21
415.902	4.18
416.109	4.14
416.317	4.27
416.525	4.22
416.733	4.15
416.941	4.14
417.149	4.29
417.357	4.16
417.564	4.36
417.772	4.44
417.98	4.26
418.188	4.21
418.395	4.11
418.603	4.05
418.811	3.84
419.019	3.91
419.226	4.04
419.434	3.97
419.642	3.94
419.849	4.03
420.057	4.05
420.265	3.92
420.472	4.03
420.68	4.06
420.887	4.04
421.095	4.06
421.302	4.09
421.51	4.01
421.717	3.88
421.925	3.95
422.132	3.81
422.34	3.69
422.547	3.61
422.755	3.59
422.962	3.38
423.17	3.48
423.377	3.5
423.585	3.59
423.792	3.69
423.999	3.83
424.207	3.8
424.414	3.73
424.621	3.8
424.829	3.64
425.036	3.6
425.243	3.66
425.451	3.88
425.658	3.75
425.865	3.99
426.072	3.94
426.28	3.93
426.487	3.76
426.694	3.81
426.901	3.79
427.108	3.88
427.315	3.91
427.523	3.93
427.73	4.17
427.937	4.16
428.144	4.08
428.351	4
428.558	3.95
428.765	3.66
428.972	3.61
429.179	3.67
429.386	3.74
429.593	3.75
429.8	3.76
430.007	3.79
430.214	3.78
430.421	3.6
430.628	3.71
430.835	3.8
431.042	3.73
431.249	3.86
431.456	4
431.662	3.99
431.869	4
432.076	4.13
432.283	4.15
432.49	4.28
432.697	4.22
432.903	4.18
433.11	4.08
433.317	3.96
433.524	3.99
433.73	3.97
433.937	4.07
434.144	4.1
434.35	4.23
434.557	4.08
434.764	4.12
434.97	4.01
435.177	4.07
435.384	3.93
435.59	4.01
435.797	4.18
436.003	4.22
436.21	4.25
436.416	4.29
436.623	4.18
436.829	4.16
437.036	4.27
437.242	4.36
437.449	4.29
437.655	4.35
437.862	4.32
438.068	4.18
438.275	4.08
438.481	4.14
438.687	4.19
438.894	4.25
439.1	4.43
439.307	4.43
439.513	4.54
439.719	4.57
439.926	4.5
440.132	4.47
440.338	4.52
440.544	4.48
440.751	4.51
440.957	4.53
441.163	4.51
441.369	4.65
441.575	4.71
441.782	4.75
441.988	4.87
442.194	4.86
442.4	4.78
442.606	4.73
442.812	4.64
443.018	4.54
443.224	4.66
443.431	4.77
443.637	4.86
443.843	4.95
444.049	4.95
444.255	4.89
444.461	4.83
444.667	4.79
444.873	4.78
445.079	4.89
445.284	4.83
445.49	4.81
445.696	4.83
445.902	4.78
446.108	4.79
446.314	4.78
446.52	4.81
446.726	4.98
446.931	5.07
447.137	5
447.343	5.04
447.549	5.14
447.755	5.03
447.96	5.11
448.166	5.28
448.372	5.43
448.578	5.39
448.783	5.41
448.989	5.31
449.195	5.19
449.4	5.13
449.606	5.14
449.812	5.12
450.017	5.28
450.223	5.27
450.428	5.31
450.634	5.27
450.84	5.26
451.045	5.23
451.251	5.31
451.456	5.27
451.662	5.24
451.867	5.36
452.073	5.3
452.278	5.19
452.483	5.24
452.689	5.23
452.894	5.09
453.1	5.12
453.305	5.17
453.51	5.17
453.716	5.22
453.921	5.26
454.127	5.31
454.332	5.42
454.537	5.43
454.742	5.41
454.948	5.45
455.153	5.38
455.358	5.3
455.563	5.29
455.769	5.31
455.974	5.33
456.179	5.36
456.384	5.31
456.589	5.32
456.795	5.32
457	5.29
457.205	5.26
457.41	5.32
457.615	5.39
457.82	5.4
458.025	5.44
458.23	5.35
458.435	5.39
458.64	5.39
458.845	5.45
459.05	5.37
459.255	5.54
459.46	5.57
459.665	5.53
459.87	5.5
460.075	5.56
460.28	5.47
460.485	5.44
460.69	5.41
460.895	5.35
461.099	5.37
461.304	5.53
461.509	5.55
461.714	5.62
461.919	5.72
462.123	5.77
462.328	5.66
462.533	5.72
462.738	5.78
462.942	5.84
463.147	5.79
463.352	5.96
463.556	6.04
463.761	5.98
463.966	5.87
464.17	6.06
464.375	5.94
464.58	5.88
464.784	5.95
464.989	5.97
465.193	5.87
465.398	5.85
465.602	5.89
465.807	5.85
466.011	5.9
466.216	5.91
466.42	6.01
466.625	5.98
466.829	5.99
467.034	6
467.238	6.08
467.443	6.03
467.647	6.07
467.851	6.05
468.056	6.08
468.26	6.04
468.464	6.12
468.669	6.05
468.873	6.2
469.077	6.18
469.282	6.15
469.486	6.11
469.69	6.26
469.894	6.19
470.099	6.35
470.303	6.47
470.507	6.48
470.711	6.42
470.915	6.51
471.119	6.37
471.324	6.34
471.528	6.38
471.732	6.38
471.936	6.3
472.14	6.36
472.344	6.36
472.548	6.43
472.752	6.48
472.956	6.62
473.16	6.63
473.364	6.71
473.568	6.71
473.772	6.71
473.976	6.64
474.18	6.64
474.384	6.62
474.588	6.66
474.792	6.71
474.995	6.77
475.199	6.91
475.403	6.92
475.607	6.87
475.811	6.84
476.015	6.85
476.218	6.79
476.422	6.84
476.626	6.91
476.83	6.89
477.033	6.95
477.237	7
477.441	6.9
477.644	6.87
477.848	6.97
478.052	6.93
478.255	6.95
478.459	6.99
478.663	7.11
478.866	7.19
479.07	7.2
479.273	7.18
479.477	7.19
479.681	7.14
479.884	7.05
480.088	7.14
480.291	7.13
480.495	7.24
480.698	7.27
480.901	7.31
481.105	7.26
481.308	7.31
481.512	7.26
481.715	7.23
481.919	7.27
482.122	7.23
482.325	7.25
482.529	7.27
482.732	7.3
482.935	7.27
483.138	7.34
483.342	7.37
483.545	7.41
483.748	7.4
483.952	7.46
484.155	7.45
484.358	7.38
484.561	7.34
484.764	7.31
484.967	7.28
485.171	7.31
485.374	7.4
485.577	7.48
485.78	7.56
485.983	7.61
486.186	7.54
486.389	7.52
486.592	7.52
486.795	7.55
486.998	7.54
487.201	7.65
487.404	7.64
487.607	7.69
487.81	7.63
488.013	7.61
488.216	7.57
488.419	7.58
488.622	7.51
488.825	7.56
489.028	7.57
489.231	7.58
489.433	7.56
489.636	7.58
489.839	7.56
490.042	7.58
490.245	7.54
490.447	7.53
490.65	7.48
490.853	7.44
491.056	7.4
491.258	7.41
491.461	7.45
491.664	7.48
491.866	7.54
492.069	7.61
492.272	7.59
492.474	7.56
492.677	7.51
492.879	7.44
493.082	7.4
493.285	7.43
493.487	7.45
493.69	7.46
493.892	7.44
494.095	7.47
494.297	7.46
494.5	7.5
494.702	7.63
494.905	7.68
495.107	7.66
495.309	7.7
495.512	7.66
495.714	7.64
495.917	7.74
496.119	7.71
496.321	7.76
496.524	7.83
496.726	7.8
496.928	7.68
497.13	7.74
497.333	7.69
497.535	7.61
497.737	7.63
497.939	7.72
498.142	7.73
498.344	7.8
498.546	7.9
498.748	7.87
498.95	7.9
499.152	7.93
499.355	7.91
499.557	7.89
499.759	8.04
499.961	7.99
500.163	8.01
500.365	8.04
500.567	8.08
500.769	8.04
500.971	8.12
501.173	8.06
501.375	8.01
501.577	8.05
501.779	8.06
501.981	8.05
502.183	8.14
502.385	8.26
502.587	8.23
502.788	8.26
502.99	8.32
503.192	8.35
503.394	8.31
503.596	8.39
503.798	8.33
503.999	8.29
504.201	8.28
504.403	8.3
504.605	8.32
504.806	8.4
505.008	8.43
505.21	8.48
505.411	8.48
505.613	8.47
505.815	8.52
506.016	8.63
506.218	8.67
506.42	8.75
506.621	8.83
506.823	8.86
507.024	8.84
507.226	8.82
507.427	8.83
507.629	8.85
507.83	8.84
508.032	8.83
508.233	8.87
508.435	8.96
508.636	8.98
508.838	9.04
509.039	9.13
509.24	9.16
509.442	9.08
509.643	9.03
509.845	9.05
510.046	9.05
510.247	9.09
510.448	9.22
510.65	9.36
510.851	9.41
511.052	9.44
511.254	9.42
511.455	9.34
511.656	9.26
511.857	9.18
512.058	9.26
512.26	9.26
512.461	9.33
512.662	9.4
512.863	9.46
513.064	9.42
513.265	9.47
513.466	9.44
513.667	9.46
513.868	9.5
514.069	9.56
514.27	9.66
514.471	9.75
514.672	9.74
514.873	9.72
515.074	9.74
515.275	9.64
515.476	9.64
515.677	9.65
515.878	9.65
516.079	9.65
516.28	9.72
516.481	9.73
516.682	9.74
516.882	9.73
517.083	9.65
517.284	9.62
517.485	9.59
517.686	9.59
517.886	9.61
518.087	9.62
518.288	9.7
518.488	9.76
518.689	9.81
518.89	9.92
519.091	10.01
519.291	9.99
519.492	9.98
519.692	10.01
519.893	10
520.094	10.03
520.294	10.1
520.495	10.12
520.695	10.14
520.896	10.1
521.096	10.16
521.297	10.09
521.497	10.09
521.698	10.06
521.898	10.08
522.099	9.99
522.299	10
522.499	10.03
522.7	10.07
522.9	10.14
523.101	10.15
523.301	10.18
523.501	10.19
523.702	10.21
523.902	10.18
524.102	10.25
524.302	10.28
524.503	10.28
524.703	10.27
524.903	10.29
525.103	10.26
525.304	10.31
525.504	10.4
525.704	10.4
525.904	10.37
526.104	10.44
526.304	10.43
526.504	10.43
526.705	10.4
526.905	10.49
527.105	10.46
527.305	10.43
527.505	10.43
527.705	10.47
527.905	10.46
528.105	10.41
528.305	10.43
528.505	10.42
528.705	10.46
528.905	10.51
529.105	10.64
529.304	10.71
529.504	10.75
529.704	10.75
529.904	10.74
530.104	10.69
530.304	10.71
530.503	10.72
530.703	10.71
530.903	10.71
531.103	10.77
531.303	10.74
531.502	10.69
531.702	10.72
531.902	10.71
532.101	10.73
532.301	10.81
532.501	10.86
532.7	10.98
532.9	11.06
533.1	11.07
533.299	11.08
533.499	11.08
533.698	11.01
533.898	11.05
534.097	11.04
534.297	11.02
534.496	11.05
534.696	11.04
534.895	11.01
535.095	11.08
535.294	11.16
535.494	11.21
535.693	11.27
535.892	11.31
536.092	11.3
536.291	11.24
536.491	11.23
536.69	11.36
536.889	11.41
537.088	11.41
537.288	11.48
537.487	11.55
537.686	11.44
537.886	11.43
538.085	11.49
538.284	11.48
538.483	11.5
538.682	11.55
538.882	11.62
539.081	11.68
539.28	11.78
539.479	11.85
539.678	11.91
539.877	11.88
540.076	11.92
540.275	11.9
540.474	11.9
540.673	11.91
540.872	11.96
541.071	11.92
541.27	11.96
541.469	11.96
541.668	12.01
541.867	12.06
542.066	12.09
542.265	12.17
542.464	12.23
542.663	12.3
542.862	12.36
543.06	12.46
543.259	12.51
543.458	12.56
543.657	12.6
543.856	12.59
544.054	12.63
544.253	12.62
544.452	12.7
544.651	12.71
544.849	12.69
545.048	12.71
545.247	12.79
545.445	12.82
545.644	12.87
545.843	13.02
546.041	13.05
546.24	13.14
546.438	13.2
546.637	13.31
546.836	13.34
547.034	13.48
547.233	13.51
547.431	13.55
547.63	13.57
547.828	13.61
548.027	13.59
548.225	13.6
548.423	13.69
548.622	13.73
548.82	13.78
549.019	13.89
549.217	13.99
549.415	14.04
549.614	14.13
549.812	14.19
550.01	14.2
550.209	14.24
550.407	14.28
550.605	14.29
550.803	14.4
551.002	14.54
551.2	14.6
551.398	14.76
551.596	14.91
551.794	15.01
551.993	15.01
552.191	15.12
552.389	15.17
552.587	15.23
552.785	15.19
552.983	15.4
553.181	15.46
553.379	15.54
553.577	15.64
553.775	15.76
553.973	15.7
554.171	15.76
554.369	15.9
554.567	15.98
554.765	16.05
554.963	16.2
555.161	16.32
555.359	16.31
555.557	16.42
555.755	16.57
555.952	16.65
556.15	16.79
556.348	16.82
556.546	16.95
556.744	17.08
556.941	17.18
557.139	17.24
557.337	17.42
557.535	17.47
557.732	17.55
557.93	17.61
558.128	17.69
558.325	17.8
558.523	17.91
558.721	17.98
558.918	18.19
559.116	18.31
559.313	18.44
559.511	18.57
559.708	18.67
559.906	18.68
560.104	18.85
560.301	18.93
560.498	19.02
560.696	19.11
560.893	19.22
561.091	19.25
561.288	19.35
561.486	19.4
561.683	19.54
561.88	19.75
562.078	19.91
562.275	19.86
562.473	19.97
562.67	20.12
562.867	20.08
563.064	20.15
563.262	20.29
563.459	20.37
563.656	20.36
563.853	20.54
564.051	20.63
564.248	20.84
564.445	20.98
564.642	21.11
564.839	21.15
565.036	21.24
565.234	21.32
565.431	21.46
565.628	21.52
565.825	21.69
566.022	21.79
566.219	21.84
566.416	21.83
566.613	21.96
566.81	22.01
567.007	22.06
567.204	22.1
567.401	22.2
567.598	22.32
567.795	22.3
567.991	22.34
568.188	22.49
568.385	22.59
568.582	22.65
568.779	22.71
568.976	22.87
569.172	22.93
569.369	22.97
569.566	22.96
569.763	23.04
569.96	23.12
570.156	23.17
570.353	23.22
570.55	23.32
570.746	23.41
570.943	23.33
571.14	23.36
571.336	23.39
571.533	23.41
571.729	23.49
571.926	23.57
572.123	23.58
572.319	23.74
572.516	23.74
572.712	23.81
572.909	23.87
573.105	23.95
573.302	23.9
573.498	24.01
573.695	23.93
573.891	23.96
574.087	23.98
574.284	23.99
574.48	23.95
574.677	23.98
574.873	23.99
575.069	23.93
575.266	23.92
575.462	23.99
575.658	23.95
575.854	23.89
576.051	23.9
576.247	23.9
576.443	23.86
576.639	24.03
576.835	24.05
577.032	24.11
577.228	24.2
577.424	24.22
577.62	24.13
577.816	24.24
578.012	24.27
578.208	24.18
578.404	24.15
578.6	24.12
578.796	24.1
578.993	24.1
579.189	24.08
579.384	24.13
579.58	24.16
579.776	24.15
579.972	24.07
580.168	24.1
580.364	24.12
580.56	24.15
580.756	24.04
580.952	24.15
581.148	24.12
581.343	24.06
581.539	24.04
581.735	24.11
581.931	23.97
582.127	23.95
582.322	23.91
582.518	23.85
582.714	23.74
582.909	23.77
583.105	23.78
583.301	23.77
583.496	23.68
583.692	23.66
583.888	23.59
584.083	23.6
584.279	23.58
584.474	23.6
584.67	23.67
584.866	23.69
585.061	23.64
585.257	23.53
585.452	23.57
585.648	23.49
585.843	23.43
586.039	23.49
586.234	23.57
586.429	23.5
586.625	23.56
586.82	23.66
587.015	23.62
587.211	23.71
587.406	23.66
587.601	23.67
587.797	23.58
587.992	23.49
588.187	23.52
588.383	23.65
588.578	23.68
588.773	23.71
588.968	23.83
589.163	23.75
589.359	23.72
589.554	23.66
589.749	23.64
589.944	23.65
590.139	23.77
590.334	23.78
590.529	23.89
590.724	24.04
590.919	24.1
591.114	24.02
591.309	24.04
591.504	24
591.699	23.94
591.894	23.97
592.089	24.03
592.284	24.08
592.479	24.13
592.674	24.19
592.869	24.2
593.064	24.28
593.259	24.45
593.454	24.59
593.648	24.67
593.843	24.71
594.038	24.77
594.233	24.72
594.428	24.71
594.622	24.85
594.817	24.94
595.012	24.95
595.206	24.99
595.401	25.11
595.596	25.09
595.79	25.12
595.985	25.26
596.18	25.33
596.374	25.35
596.569	25.46
596.763	25.52
596.958	25.52
597.153	25.62
597.347	25.73
597.542	25.81
597.736	25.92
597.931	26.01
598.125	26.06
598.319	26.11
598.514	26.16
598.708	26.21
598.903	26.15
599.097	26.22
599.291	26.18
599.486	26.21
599.68	26.24
599.874	26.37
600.069	26.36
600.263	26.49
600.457	26.47
600.651	26.5
600.846	26.58
601.04	26.67
601.234	26.72
601.428	26.86
601.622	26.88
601.817	26.91
602.011	27.05
602.205	27.07
602.399	27.02
602.593	27.09
602.787	27.03
602.981	26.95
603.175	26.94
603.369	27.01
603.563	27.07
603.757	27.1
603.951	27.13
604.145	27.09
604.339	27.02
604.533	26.89
604.727	26.9
604.921	26.81
605.115	26.66
605.309	26.68
605.502	26.73
605.696	26.69
605.89	26.66
606.084	26.76
606.278	26.69
606.471	26.69
606.665	26.64
606.859	26.6
607.053	26.53
607.246	26.48
607.44	26.45
607.634	26.43
607.827	26.36
608.021	26.36
608.214	26.31
608.408	26.15
608.602	26.1
608.795	26.11
608.989	26.02
609.182	25.97
609.376	25.9
609.569	25.87
609.763	25.77
609.956	25.76
610.15	25.66
610.343	25.64
610.537	25.49
610.73	25.42
610.923	25.3
611.117	25.32
611.31	25.28
611.504	25.31
611.697	25.27
611.89	25.19
612.083	25.05
612.277	24.86
612.47	24.67
612.663	24.63
612.856	24.67
613.05	24.58
613.243	24.55
613.436	24.58
613.629	24.43
613.822	24.33
614.015	24.33
614.209	24.32
614.402	24.18
614.595	24.14
614.788	24.01
614.981	23.94
615.174	23.85
615.367	23.8
615.56	23.72
615.753	23.66
615.946	23.46
616.139	23.47
616.332	23.46
616.525	23.41
616.718	23.35
616.911	23.44
617.103	23.36
617.296	23.32
617.489	23.26
617.682	23.09
617.875	23.04
618.067	22.93
618.26	22.75
618.453	22.74
618.646	22.87
618.838	22.72
619.031	22.71
619.224	22.76
619.417	22.69
619.609	22.57
619.802	22.53
619.994	22.49
620.187	22.46
620.38	22.48
620.572	22.49
620.765	22.54
620.957	22.54
621.15	22.55
621.342	22.47
621.535	22.37
621.727	22.31
621.92	22.19
622.112	22.06
622.305	22.13
622.497	22.13
622.69	22.06
622.882	22
623.074	22.04
623.267	21.9
623.459	21.86
623.651	21.8
623.844	21.85
624.036	21.78
624.228	21.75
624.42	21.82
624.613	21.91
624.805	21.89
624.997	21.86
625.189	21.84
625.381	21.81
625.574	21.68
625.766	21.67
625.958	21.68
626.15	21.69
626.342	21.63
626.534	21.69
626.726	21.62
626.918	21.61
627.11	21.55
627.302	21.47
627.494	21.4
627.686	21.42
627.878	21.33
628.07	21.26
628.262	21.2
628.454	21.15
628.646	21.1
628.838	21.08
629.029	21.08
629.221	21.03
629.413	21.01
629.605	20.89
629.797	20.87
629.989	20.88
630.18	20.81
630.372	20.78
630.564	20.76
630.755	20.7
630.947	20.65
631.139	20.72
631.33	20.7
631.522	20.75
631.714	20.68
631.905	20.58
632.097	20.5
632.289	20.5
632.48	20.44
632.672	20.44
632.863	20.48
633.055	20.47
633.246	20.36
633.438	20.31
633.629	20.34
633.821	20.31
634.012	20.29
634.203	20.21
634.395	20.25
634.586	20.18
634.777	20.09
634.969	20.02
635.16	20
635.351	19.93
635.543	19.86
635.734	19.91
635.925	19.96
636.117	20.04
636.308	20.03
636.499	19.99
636.69	19.95
636.881	19.92
637.073	19.96
637.264	19.98
637.455	20.02
637.646	20.04
637.837	20.03
638.028	19.85
638.219	19.78
638.41	19.71
638.601	19.66
638.792	19.6
638.983	19.64
639.174	19.55
639.365	19.63
639.556	19.56
639.747	19.58
639.938	19.5
640.129	19.54
640.32	19.5
640.511	19.44
640.701	19.36
640.892	19.34
641.083	19.28
641.274	19.18
641.465	19.18
641.655	19.1
641.846	19.12
642.037	19.09
642.228	19.1
642.418	19.05
642.609	19.03
642.8	19
642.99	18.97
643.181	18.92
643.372	18.95
643.562	18.93
643.753	18.83
643.943	18.8
644.134	18.82
644.324	18.84
644.515	18.88
644.705	18.9
644.896	18.97
645.086	18.83
645.277	18.73
645.467	18.73
645.658	18.62
645.848	18.51
646.038	18.55
646.229	18.58
646.419	18.46
646.61	18.55
646.8	18.56
646.99	18.62
647.18	18.64
647.371	18.7
647.561	18.62
647.751	18.62
647.941	18.52
648.132	18.32
648.322	18.23
648.512	18.23
648.702	18.27
648.892	18.28
649.082	18.39
649.272	18.38
649.462	18.38
649.653	18.29
649.843	18.2
650.033	18.13
650.223	18.11
650.413	18.03
650.603	17.96
650.793	17.96
650.983	17.97
651.172	17.99
651.362	17.98
651.552	17.93
651.742	17.8
651.932	17.76
652.122	17.72
652.312	17.69
652.502	17.64
652.691	17.63
652.881	17.54
653.071	17.39
653.261	17.28
653.45	17.26
653.64	17.2
653.83	17.15
654.019	17.03
654.209	16.84
654.399	16.68
654.588	16.55
654.778	16.45
654.968	16.44
655.157	16.43
655.347	16.36
655.536	16.34
655.726	16.18
655.915	16.04
656.105	15.91
656.294	15.76
656.484	15.55
656.673	15.51
656.863	15.37
657.052	15.24
657.241	15.05
657.431	14.92
657.62	14.68
657.809	14.47
657.999	14.39
658.188	14.2
658.377	13.96
658.567	13.87
658.756	13.75
658.945	13.59
659.134	13.53
659.324	13.48
659.513	13.23
659.702	13.17
659.891	12.95
660.08	12.77
660.269	12.54
660.458	12.51
660.648	12.31
660.837	12.17
661.026	11.99
661.215	11.82
661.404	11.59
661.593	11.48
661.782	11.39
661.971	11.3
662.16	11.23
662.349	11.23
662.538	11.03
662.726	10.85
662.915	10.66
663.104	10.57
663.293	10.34
663.482	10.23
663.671	10.16
663.86	10.01
664.048	9.88
664.237	9.79
664.426	9.73
664.615	9.59
664.803	9.61
664.992	9.45
665.181	9.41
665.369	9.24
665.558	9.13
665.747	8.92
665.935	8.9
666.124	8.74
666.312	8.69
666.501	8.59
666.69	8.62
666.878	8.68
667.067	8.63
667.255	8.63
667.444	8.68
667.632	8.64
667.82	8.44
668.009	8.52
668.197	8.46
668.386	8.35
668.574	8.32
668.762	8.34
668.951	8.24
669.139	8.14
669.327	8.11
669.516	8.12
669.704	8.06
669.892	8.05
670.08	8.12
670.269	8.11
670.457	8.11
670.645	8.14
670.833	8.09
671.021	8.14
671.21	8.17
671.398	8.19
671.586	8.2
671.774	8.22
671.962	8.18
672.15	8.21
672.338	8.15
672.526	8.06
672.714	8.03
672.902	8.02
673.09	7.95
673.278	7.99
673.466	8.19
673.654	8.31
673.842	8.31
674.03	8.37
674.218	8.39
674.405	8.38
674.593	8.38
674.781	8.32
674.969	8.37
675.157	8.41
675.344	8.42
675.532	8.38
675.72	8.55
675.908	8.57
676.095	8.55
676.283	8.59
676.471	8.76
676.658	8.78
676.846	8.94
677.033	9.22
677.221	9.26
677.409	9.17
677.596	9.28
677.784	9.23
677.971	9.21
678.159	9.31
678.346	9.43
678.534	9.45
678.721	9.54
678.909	9.61
679.096	9.67
679.283	9.79
679.471	9.85
679.658	10.04
679.846	10.05
680.033	10.23
680.22	10.29
680.408	10.36
680.595	10.34
680.782	10.51
680.969	10.53
681.157	10.75
681.344	10.9
681.531	11.06
681.718	11.21
681.905	11.41
682.093	11.46
682.28	11.53
682.467	11.72
682.654	11.96
682.841	12.08
683.028	12.15
683.215	12.4
683.402	12.62
683.589	12.58
683.776	12.74
683.963	12.98
684.15	13.14
684.337	13.23
684.524	13.55
684.711	13.82
684.898	14.09
685.085	14.49
685.271	14.86
685.458	14.97
685.645	15.14
685.832	15.42
686.019	15.64
686.205	15.99
686.392	16.49
686.579	16.88
686.766	17.13
686.952	17.35
687.139	17.51
687.326	17.85
687.512	18.33
687.699	18.87
687.886	19.4
688.072	19.87
688.259	20.3
688.445	20.67
688.632	21.15
688.818	21.54
689.005	21.86
689.191	22.25
689.378	22.64
689.564	22.98
689.751	23.47
689.937	24.16
690.124	24.61
690.31	25.22
690.496	25.71
690.683	26.36
690.869	26.85
691.055	27.41
691.242	28.02
691.428	28.62
691.614	29.13
691.8	29.72
691.987	30.41
692.173	30.76
692.359	31.46
692.545	32.11
692.731	32.66
692.918	33.32
693.104	33.89
693.29	34.28
693.476	34.74
693.662	35.52
693.848	36.09
694.034	36.95
694.22	37.66
694.406	38.39
694.592	39.01
694.778	39.62
694.964	40.11
695.15	40.78
695.336	41.43
695.522	41.93
695.708	42.65
695.894	43.4
696.08	43.97
696.265	44.41
696.451	45.34
696.637	45.92
696.823	46.42
697.009	47.36
697.194	48.12
697.38	48.46
697.566	49.14
697.751	49.67
697.937	49.89
698.123	50.47
698.308	51.03
698.494	51.31
698.68	51.8
698.865	52.44
699.051	53.13
699.236	53.64
699.422	54.28
699.607	54.93
699.793	55.51
699.978	55.72
700.164	56.33
700.349	57.12
700.535	57.7
700.72	58.25
700.906	58.66
701.091	59.06
701.276	59.25
701.462	59.78
701.647	60.28
701.832	60.91
702.018	61.29
702.203	61.79
702.388	62.21
702.573	62.59
702.759	63.03
702.944	63.72
703.129	64.16
703.314	64.42
703.499	64.65
703.684	65.3
703.87	65.44
704.055	65.28
704.24	65.53
704.425	65.81
704.61	65.7
704.795	66.15
704.98	66.84
705.165	67.15
705.35	67.51
705.535	68.14
705.72	68.42
705.905	68.74
706.09	69.09
706.275	69.49
706.459	69.43
706.644	69.65
706.829	70.05
707.014	70.62
707.199	70.85
707.384	71.2
707.568	71.31
707.753	71.7
707.938	72.14
708.123	72.38
708.307	72.73
708.492	73.18
708.677	73.16
708.861	72.86
709.046	73.54
709.231	73.97
709.415	73.9
709.6	74.23
709.784	74.88
709.969	74.77
710.153	75.24
710.338	75.72
710.522	76.01
710.707	75.94
710.891	76.25
711.076	76.25
711.26	76.22
711.445	76.02
711.629	76.64
711.813	76.4
711.998	76.61
712.182	76.51
712.366	76.92
712.551	76.6
712.735	76.43
712.919	76.54
713.103	77.14
713.288	77.08
713.472	77.53
713.656	78
713.84	77.93
714.024	78.39
714.208	79.12
714.393	79.12
714.577	79.36
714.761	79.42
714.945	79.46
715.129	79.26
715.313	79.32
715.497	79.86
715.681	79.84
715.865	80.15
716.049	80.25
716.233	80.3
716.417	80.25
716.601	80.53
716.785	80.5
716.968	80.95
717.152	81.46
717.336	81.85
717.52	81.91
717.704	81.93
717.888	81.57
718.071	81.24
718.255	81.42
718.439	81.88
718.622	81.52
718.806	81.68
718.99	82.44
719.174	81.97
719.357	82.06
719.541	82.75
719.724	83.1
719.908	82.87
720.092	83.43
720.275	83.52
720.459	83.83
720.642	83.81
720.826	84.09
721.009	83.94
721.193	83.97
721.376	83.21
721.559	83.19
721.743	82.56
721.926	82.83
722.11	82.62
722.293	82.88
722.476	83.36
722.66	83.8
722.843	83.47
723.026	83.51
723.21	83.52
723.393	83.74
723.576	83.79
723.759	84.62
723.942	85.45
724.126	85.6
724.309	85.49
724.492	85.75
724.675	85.34
724.858	84.57
725.041	85.06
725.224	85.33
725.407	85.01
725.59	85.27
725.774	85.38
725.957	85.74
726.14	85.09
726.322	84.57
726.505	84.31
726.688	84.38
726.871	83.96
727.054	84.09
727.237	85.18
727.42	85.53
727.603	86.13
727.786	85.82
727.968	86.39
728.151	85.74
728.334	85.7
728.517	85.6
728.699	86.1
728.882	86.23
729.065	87.14
729.248	88.08
729.43	87.56
729.613	87.68
729.796	87.31
729.978	86.77
730.161	86.12
730.343	86.3
730.526	86.51
730.708	86.73
730.891	86.93
731.073	87.06
731.256	88.11
731.438	87.82
731.621	87.74
731.803	87.85
731.986	87.3
732.168	86.65
732.35	86.94
732.533	87.14
732.715	86.69
732.898	87.57
733.08	87.74
733.262	88.69
733.444	89.06
733.627	89.91
733.809	89.55
733.991	89.75
734.173	88.67
734.355	88.65
734.538	88.36
734.72	88.41
734.902	87.76
735.084	88.06
735.266	87.74
735.448	87.99
735.63	88.27
735.812	89.43
735.994	89.7
736.176	90.4
736.358	90.62
736.54	91.16
736.722	91.67
736.904	91.25
737.086	90.5
737.268	90.07
737.45	88.69
737.632	88.93
737.814	88.92
737.995	89.52
738.177	89.87
738.359	90.63
738.541	90.12
738.723	90.99
738.904	90.38
739.086	90.8
739.268	90.82
739.449	90.42
739.631	89.87
739.813	89.57
739.994	89.18
740.176	89.22
740.358	89.35
740.539	89.47
740.721	90.38
740.902	90.97
741.084	90.36
741.265	89.88
741.447	90.33
741.628	90.34
741.81	89.8
741.991	90.25
742.172	90.24
742.354	90.22
742.535	90.43
742.717	90.04
742.898	90.27
743.079	90.67
743.261	90.73
743.442	89.93
743.623	90.57
743.804	89.99
743.986	90.21
744.167	89.51
744.348	89.24
744.529	88.4
744.71	88.53
744.891	88.4
745.073	88.97
745.254	89.24
745.435	89.12
745.616	88.93
745.797	88.64
745.978	87.41
746.159	88.52
746.34	88.61
746.521	90.06
746.702	89.63
746.883	90.4
747.064	89.74
747.245	89.87
747.426	88.07
747.606	88.1
747.787	87.84
747.968	88.71
748.149	89.94
748.33	90.13
748.51	90.19
748.691	90.96
748.872	90.22
749.053	90.42
749.233	91.87
749.414	93.13
749.595	92.02
749.775	91.93
749.956	91.68
750.137	90.93
750.317	89.13
750.498	90.32
750.678	90.57
750.859	90.38
751.04	89.25
751.22	90.51
751.4	89.21
751.581	89.08
751.761	88.76
751.942	88.27
752.122	88.26
752.303	86.67
752.483	86.91
752.663	87.46
752.844	88.69
753.024	88.85
753.204	90.4
753.385	89.64
753.565	89.35
753.745	88.78
753.925	87.71
754.106	88.4
754.286	89.66
754.466	88.68
754.646	89.2
754.826	90.27
755.006	90.79
755.187	89.34
755.367	89.79
755.547	91.91
755.727	91.5
755.907	89.67
756.087	90.34
756.267	90.17
756.447	87.66
756.627	88.04
756.807	89.12
756.987	88.26
757.167	88.58
757.346	89.18
757.526	89.1
757.706	88.86
757.886	90.44
758.066	90.32
758.246	89.9
758.425	88.69
758.605	89.1
758.785	87.9
758.965	87.39
759.144	87.68
759.324	89.16
759.504	88.25
759.683	88.88
759.863	89.66
760.043	88.67
760.222	88.76
760.402	88.99
760.581	88.4
760.761	88.3
760.94	89
761.12	89.1
761.299	90.51
761.479	90.84
761.658	91.31
761.838	91.87
762.017	91.07
762.197	89.8
762.376	89.29
762.555	88.63
762.735	88.53
762.914	87.54
763.093	87.79
763.273	87.22
763.452	87.3
763.631	86.89
763.81	87.52
763.99	86.83
764.169	87
764.348	86.66
764.527	87.1
764.706	88.05
764.885	88.37
765.064	87.87
765.243	88.69
765.423	87.08
765.602	86.07
765.781	85.52
765.96	86.29
766.139	85.95
766.318	87.97
766.497	87.92
766.676	87.81
766.854	86.1
767.033	85.72
767.212	84.98
767.391	84.87
767.57	86.16
767.749	87.01
767.928	88.25
768.106	88.54
768.285	88.17
768.464	86.64
768.643	87.6
768.821	88.09
769	88.39
769.179	89.17
769.357	90.71
769.536	91.16
769.715	88.88
769.893	87.13
770.072	87.73
770.25	87.84
770.429	88.08
770.607	89.44
770.786	92.05
770.964	91.84
771.143	91.97
771.321	92.21
771.5	92.64
771.678	90.51
771.857	89.74
772.035	88.65
772.213	87.99
772.392	87.07
772.57	88.04
772.748	88.58
772.927	90
773.105	90.97
773.283	89.46
773.461	87.32
773.64	86.63
773.818	87.11
773.996	86.62
774.174	87.95
774.352	91.15
774.531	90.65
774.709	90.02
774.887	88.83
775.065	87.85
775.243	86.96
775.421	88.32
775.599	85.86
775.777	85.28
775.955	84.23
776.133	84.68
776.311	83.69
776.489	85.39
776.667	86.34
776.844	87.12
777.022	85.59
777.2	84.63
777.378	84.29
777.556	84.98
777.734	87.19
777.911	87.6
778.089	88.11
778.267	88.86
778.445	87.42
778.622	84.02
778.8	82.93
778.978	84.45
779.155	84.39
779.333	82.95
779.511	86.22
779.688	86.01
779.866	86.37
780.043	85.21
780.221	87.12
780.398	84.75
780.576	87.59
780.753	83.51
780.931	82.67
781.108	82.47
781.286	80.98
781.463	79.39
781.64	80.43
781.818	82.9
781.995	81.17
782.172	83.92
782.35	84.78
782.527	84.5
782.704	82.33
782.882	84.63
783.059	82.36
783.236	81.6
783.413	84.56
783.59	84.93
783.768	83.86
783.945	86.03
784.122	84.76
784.299	81.03
784.476	81.57
784.653	82.5
784.83	83.23
785.007	85.09
785.184	85.18
785.361	85.04
785.538	83.78
785.715	83
785.892	81.41
786.069	82.15
786.246	84.15
786.423	82.74
786.6	82.4
786.776	83.18
786.953	83
787.13	79.85
787.307	79.75
787.484	77.24
787.66	77.72
787.837	79.1
788.014	81.33
788.191	82.77
788.367	82.35
788.544	83.78
788.721	83.48
788.897	81.09
789.074	79.27
789.25	81.96
789.427	79.21
789.603	79.61
789.78	83.61
789.956	82.87
790.133	83
790.309	81.91
790.486	82.68
790.662	76.59
790.839	78.35
791.015	82.04
791.192	82.25
791.368	79.5
791.544	86.81
791.721	90.19
791.897	86.45
792.073	88.16
792.249	89.5
792.426	84.83
792.602	84.18
792.778	80.86
792.954	82.72
793.13	83.51
793.307	81.27
793.483	81.25
793.659	83.37
793.835	81.82
794.011	79.96
794.187	80.96
794.363	80.22
794.539	78.47
794.715	79.75
794.891	81.32
795.067	83.39
795.243	83.98
795.419	89.89
795.595	88.98
795.771	89.22
795.947	89.09
796.122	87.74
796.298	84.31
796.474	83.87
796.65	82.42
796.826	80.08
797.001	77.24
797.177	75.58
797.353	78.6
797.529	78.5
797.704	77.79
797.88	82.12
798.056	84.48
798.231	78.31
798.407	80.18
798.582	83.08
798.758	84.01
798.934	84.48
799.109	88.29
799.285	85.39
799.46	86.55
799.636	82.15
799.811	80.01
799.986	81.25
800.162	82.35
800.337	81.21
800.513	82.51
800.688	81.28
800.863	81.19
801.039	81.98
801.214	79.42
801.389	77.33
801.565	81.51
801.74	75.52
801.915	73.34
802.09	72.65
802.265	72.6
802.441	68.98
802.616	74.25
802.791	71.87
802.966	72.8
803.141	72.11
803.316	72.77
803.491	70.05
803.666	66.52
803.841	62.97
804.016	65.52
804.191	66.03
804.366	69.23
804.541	77.93
804.716	79.52
804.891	80.72
805.066	80.54
805.241	83.63
805.416	77.83
805.591	83.79
805.765	85.29
805.94	83.06
806.115	77.32
806.29	78.97
806.464	74.79
806.639	68.38
806.814	70.53
806.989	70.05
807.163	70.52
807.338	70.81
807.512	75.67
807.687	73.35
807.862	83.25
808.036	81.09
808.211	81.62
808.385	75.5
808.56	72.06
808.734	68.54
808.909	69.11
809.083	70.79
809.258	78.55
809.432	89.07
809.606	85.49
809.781	90.37
809.955	92.05
810.13	88.23
810.304	77.4
810.478	82.71
810.652	78.97
810.827	73.1
811.001	74.6
811.175	82.49
811.349	80.71
811.524	83.04
811.698	90.71
811.872	95.11
812.046	89.11
812.22	81.77
812.394	85.37
812.568	80.89
812.742	76.97
812.916	74.8
813.09	80.9
813.264	76.08
813.438	75.43
813.612	73.86
813.786	71.65
813.96	68.93
814.134	67.17
814.308	71.58
814.482	80.23
814.656	82.54
814.83	76.45
815.003	80.58
815.177	82.98
815.351	76.25
815.525	72.55
815.698	82.81
815.872	88.88
816.046	89.13
816.219	89.85
816.393	86.25
816.567	80.76
816.74	70.2
816.914	64.28
817.088	65.8
817.261	62.38
817.435	61.1
817.608	69.95
817.782	66.97
817.955	71.1
818.129	84.37
818.302	89.13
818.475	80.78
818.649	90.28
818.822	82.08
818.996	89.05
819.169	86.3
819.342	90.84
819.516	78.18
819.689	80.2
819.862	66.05
820.035	65.74
820.209	65.17
820.382	65.54
820.555	51.91
820.728	56.7
820.901	56.2
821.075	58.75
821.248	70.09
821.421	79.93
821.594	78.32
821.767	80.78
821.94	79.27
822.113	84.82
822.286	87.05
822.459	92.36
822.632	75
822.805	77
822.978	77.68
823.151	75.19
823.324	70.4
823.496	90.04
823.669	85.05
823.842	83.6
824.015	85.32
824.188	62.82
824.361	59.12
824.533	56.3
824.706	44.48
824.879	55.72
825.051	76.53
825.224	68.92
825.397	68.53
825.569	74.52
825.742	64.55
825.915	78.88
826.087	95.08
826.26	101.32
826.432	104.08
826.605	102.81
826.777	88.29
826.95	77.65
827.122	72.9
827.295	82.06
827.467	86.88
827.64	88.93
827.812	82.86
827.984	87.3
828.157	81.1
828.329	74.03
828.501	77.64
828.674	111.55
828.846	98.77
829.018	88.98
829.19	89.87
829.363	79.13
829.535	52.6
829.707	48.72
829.879	52.78
830.051	36.19
830.223	39.59
830.395	40.42
830.568	45.73
830.74	31.61
830.912	48.35
831.084	45.17
831.256	44.87
831.428	56.32
831.6	67.62
831.772	67.15
831.943	60.72
832.115	48.99
832.287	49.07
832.459	52.11
832.631	43.52
832.803	47.38
832.975	67.09
833.146	65.02
833.318	77.86
833.49	94.2
833.662	101.31
833.833	92.27
834.005	92.23
834.177	82.04
834.348	70.57
834.52	73.41
834.692	78.88
834.863	85.65
835.035	77
835.206	75.1
835.378	84.84
835.549	79.84
835.721	66.53
835.892	93.3
836.064	84
836.235	66.99
836.407	103.66
836.578	92.53
836.749	72.15
836.921	75.25
837.092	78.57
837.264	32.34
837.435	26.14
837.606	42.39
837.777	43.65
837.949	44.92
838.12	57.93
838.291	67.08
838.462	85.55
838.633	90.52
838.805	88.42
838.976	72.2
839.147	73.82
839.318	51.83
839.489	44.38
839.66	50.25
839.831	60.52
840.002	58
840.173	74.76
840.344	105.7
840.515	95.24
840.686	98.17
840.857	89.77
841.028	78.14
841.199	64.58
841.369	71.19
841.54	70.89
841.711	71.92
841.882	80.98
842.053	101.49
842.223	105.19
842.394	100.55
842.565	112.22
842.736	116.66
842.906	88.09
843.077	89.61
843.248	153.75
843.418	147.45
843.589	89.87
843.759	79.8
843.93	49.97
844.101	41.15
844.271	30.88
844.442	54.07
844.612	96.29
844.783	114.98
844.953	380.53
845.123	-54525
845.294	179.58
845.464	134.12
845.635	178.3
845.805	91.33
845.975	67.78
846.146	46.68
846.316	32.99
846.486	20.73
846.656	25.31
846.827	53.18
846.997	59.29
847.167	58.52
847.337	73.41
847.507	69.23
847.677	38.56
847.848	52.46
848.018	87.76
848.188	63.24
848.358	107.05
848.528	130.95
848.698	132.92
848.868	149.64
849.038	201.51
849.208	179.26
849.378	147.43
849.548	148.88
849.718	58.93
849.887	32.34
850.057	34.51
850.227	25.15
850.397	18.26
850.567	38.6
850.737	55.42
850.906	67.68
851.076	78.04
851.246	88.35
851.415	75.24
851.585	72.16
851.755	53.79
851.924	53.17
852.094	19.53
852.264	36.43
852.433	12.33
852.603	47.62
852.772	33.4
852.942	42.32
853.111	63.03
853.281	83.28
853.45	86.71
853.62	95.69
853.789	94.43
853.959	84.86
854.128	58.89
854.297	30.49
854.467	7.53
854.636	-21.63
854.805	-37.97
854.975	74.36
855.144	57.43
855.313	63.94
855.482	61.85
855.652	45.99
855.821	23.18
855.99	41.49
856.159	36.18
856.328	12.46
856.497	31.48
856.667	74.38
856.836	43.42
857.005	70.12
857.174	120.23
857.343	98.22
857.512	64.39
857.681	103.54
857.85	304.3
858.019	67.48
858.188	82.82
858.356	63.97
858.525	37.98
858.694	39.2
858.863	27.76
859.032	14.02
859.201	-68.96
859.369	-71.93
859.538	-96.36
859.707	-105.85
859.876	-39.41
860.044	-26.96
860.213	-0.1
860.382	49.97
860.55	62.42
860.719	77.28
860.888	84.14
861.056	84.71
861.225	64.09
861.393	80.52
861.562	76.15
861.73	63.23
861.899	62.47
862.067	64.95
862.236	28.46
862.404	38.27
862.572	65.69
862.741	54.63
862.909	37.56
863.078	18.66
863.246	35.78
863.414	13.44
863.582	23.18
863.751	-10.45
863.919	64.94
864.087	156.29
864.255	-118.15
864.424	88.09
864.592	97.65
864.76	42.42
864.928	13.31
865.096	51.33
865.264	48.88
865.432	35.06
865.6	58.52
865.768	70.11
865.936	61.31
866.104	56.35
866.272	64.19
866.44	26.44
866.608	21.97
866.776	15.11
866.944	-28.52
867.112	7.49
867.28	33.27
867.448	60.83
867.615	28.91
867.783	38.81
867.951	21.26
868.119	41.28
868.286	39.53
868.454	67.52
868.622	73.84
868.789	94.47
868.957	88.23
869.125	98.25
869.292	69.76
869.46	57.21
869.627	15.8
869.795	-195.22
869.963	573.58
870.13	379.92
870.298	64.48
870.465	25.08
870.632	-11.4
870.8	32.97
870.967	25.78
871.135	29.64
871.302	48.23
871.469	53.41
871.637	57.77
871.804	12.85
871.971	23
872.139	12.13
872.306	31.55
872.473	36.98
872.64	62.09
872.807	-3.35
872.975	15.52
873.142	18.92
873.309	18.63
873.476	-35.09
873.643	37.56
873.81	16.97
873.977	14.75
874.144	-45
874.311	21.53
874.478	13.39
874.645	49.1
874.812	51.64
874.979	47.89
875.146	23.22
875.313	40.61
875.48	17.81
875.647	-6.4
875.813	20.74
875.98	51.27
876.147	34.93
876.314	30.1
876.481	34.93
876.647	-3.75
876.814	-38.79
876.981	-66.85
877.147	-15637.5
877.314	182.65
877.481	1176.14
877.647	1107.95
877.814	-56.65
877.98	-34.9
878.147	3.34
878.314	56.37
878.48	72.03
878.647	97.8
878.813	107.36
878.979	110.79
879.146	94.91
879.312	83.6
879.479	111.65
879.645	105.22
879.811	103.48
879.978	130.74
880.144	77.49
880.31	58.22
880.477	44.33
880.643	63.84
880.809	47.36
880.975	93.9
881.142	169.86
881.308	1111.36
881.474	101.86
881.64	67.06
881.806	225.23
881.972	179.79
882.138	416.1
882.304	-14.65
882.47	29.72
882.636	3.39
882.802	-45.69
882.968	-98.24
883.134	-21.11
883.3	33.12
883.466	55.79
883.632	57.52
883.798	48.91
883.964	62.61
884.129	-31.54
884.295	73.72
884.461	122.05
884.627	107.67
884.793	140.17
884.958	92.21
885.124	94.78
885.29	47.38
885.455	-40.76
885.621	-14.3
885.787	46.52
885.952	-131.02
886.118	36.64
886.283	81.05
886.449	41.95
886.614	6.73
886.78	20.17
886.945	30.99
887.111	3.56
887.276	27.19
887.442	44.09
887.607	74.12
887.773	63.7
887.938	81.5
888.103	160.74
888.269	155.21
888.434	156.1
888.599	305.63
888.764	187.64
888.93	183.89
889.095	152.3
889.26	178.3
889.425	113.33
889.59	81.45
889.756	34.78
889.921	32.52
890.086	39.68
890.251	49.79
890.416	36.95
890.581	71.42
890.746	42.21
890.911	-5.22
891.076	-41.5
891.241	37.17
891.406	68.43
891.571	102.34
891.736	110.53
891.901	113.85
892.065	96.84
892.23	82.59
892.395	67.78
892.56	27.53
892.725	-1.47
892.889	4.02
893.054	41.54
893.219	17.69
893.384	6.82
893.548	50.32
893.713	-125.81
893.878	102.97
