Data from Ofra_PS_Phys_2GT41_Reflection_1.txt Node
Date: Tue Jul 20 20:41:54 EDT 2021
User: USUARIO
Spectrometer: FLMT01687
Trigger mode: 0
Integration Time (sec): 1.042999E0
Scans to average: 2
Electric dark correction enabled: true
Nonlinearity correction enabled: false
Boxcar width: 2
XAxis mode: Wavelengths
Number of Pixels in Spectrum: 3648
>>>>>Begin Spectral Data<<<<<
179.494	109.39
179.716	124.89
179.937	161.09
180.158	82.58
180.38	71.77
180.601	72.54
180.823	87.28
181.044	32.79
181.265	-117.23
181.486	34.59
181.708	31.3
181.929	78.36
182.15	201.65
182.372	72.3
182.593	33.52
182.814	6.93
183.035	51.69
183.257	16.2
183.478	-117.24
183.699	-76.34
183.92	46.07
184.141	7.37
184.363	44.68
184.584	41.07
184.805	69.14
185.026	50.09
185.247	60.37
185.468	47.92
185.689	57.24
185.91	31.15
186.132	0.27
186.353	-41.17
186.574	-32.77
186.795	-51.16
187.016	-4.14
187.237	13.02
187.458	57.93
187.679	48.01
187.9	52.05
188.121	7.55
188.342	33.57
188.563	24.12
188.784	22.32
189.005	43.98
189.226	62.98
189.447	53.11
189.667	48.32
189.888	33.65
190.109	24.34
190.33	21.65
190.551	36.09
190.772	39.56
190.993	20.43
191.214	23.02
191.434	29.91
191.655	14.98
191.876	22.57
192.097	47.54
192.318	52.91
192.538	49.46
192.759	61.07
192.98	51.16
193.201	35.07
193.421	35.02
193.642	31.23
193.863	26.74
194.083	34.53
194.304	42.42
194.525	35.81
194.745	52.3
194.966	43.79
195.187	35.44
195.407	26.4
195.628	17.48
195.848	-15.21
196.069	10.33
196.29	16.68
196.51	8.46
196.731	16.3
196.951	29.3
197.172	16.02
197.392	33.13
197.613	44.29
197.833	41.54
198.054	55.19
198.274	67.76
198.495	57.27
198.715	59.18
198.936	57.16
199.156	32.87
199.377	25.43
199.597	21.55
199.817	28.82
200.038	34.56
200.258	38.49
200.479	23.84
200.699	34.24
200.919	38.28
201.14	39.07
201.36	27.57
201.58	155.85
201.801	90.37
202.021	18.93
202.241	14.93
202.461	20.56
202.682	-2.42
202.902	-1.41
203.122	39.13
203.342	30.82
203.563	13.11
203.783	28.57
204.003	-9.99
204.223	1.22
204.443	2.27
204.663	12.6
204.884	10.38
205.104	32.11
205.324	36.31
205.544	31.34
205.764	30.25
205.984	32.24
206.204	11.33
206.424	-4.54
206.644	14.38
206.864	14.35
207.084	13.46
207.304	44.04
207.525	53.79
207.745	42.15
207.964	39.42
208.184	41.09
208.404	23.28
208.624	22.36
208.844	28.31
209.064	22.83
209.284	2.95
209.504	3.02
209.724	24.17
209.944	-8.29
210.164	-0.31
210.384	30.46
210.604	51.1
210.823	31.6
211.043	44.03
211.263	42.25
211.483	45.13
211.703	21.92
211.922	18.84
212.142	40.64
212.362	65.07
212.582	33.44
212.801	32.17
213.021	18.9
213.241	4.88
213.461	5.69
213.68	8.48
213.9	6.13
214.12	29.61
214.339	11.85
214.559	19.38
214.779	16.55
214.998	36.73
215.218	31.96
215.438	33.98
215.657	43.55
215.877	38.6
216.096	43.46
216.316	38.2
216.535	51.57
216.755	19.28
216.974	40.63
217.194	3.9
217.413	25.29
217.633	2.26
217.852	5.03
218.072	3.6
218.291	4.75
218.511	14.59
218.73	13.26
218.95	29.95
219.169	18.33
219.389	25.14
219.608	15.21
219.827	37.33
220.047	31.25
220.266	25.71
220.485	32.39
220.705	31.92
220.924	0.48
221.143	6.36
221.363	12.43
221.582	13.49
221.801	-2.26
222.021	33.88
222.24	38.79
222.459	24.55
222.678	9.16
222.897	14.97
223.117	-5.09
223.336	-2.35
223.555	21.62
223.774	34.45
223.993	58.84
224.213	54.97
224.432	53.76
224.651	53.05
224.87	43.69
225.089	5.93
225.308	2.84
225.527	-5.13
225.746	-11.87
225.965	13.46
226.184	30.68
226.404	34.41
226.623	13.91
226.842	7.86
227.061	15.5
227.28	1.99
227.499	-3.99
227.718	14.09
227.936	30.62
228.155	13.41
228.374	10.48
228.593	13.05
228.812	1.16
229.031	7.23
229.25	5.26
229.469	7.4
229.688	5.11
229.907	28.25
230.125	13.64
230.344	19
230.563	30.39
230.782	28.35
231.001	28.9
231.22	52.54
231.438	61.28
231.657	60.6
231.876	67.53
232.095	47.87
232.313	13.3
232.532	21.03
232.751	36.86
232.969	22.83
233.188	29.33
233.407	46.06
233.625	40.5
233.844	34.57
234.063	32.77
234.281	29.68
234.5	23.22
234.719	26.13
234.937	25.36
235.156	36.82
235.374	43.19
235.593	49.06
235.811	39.36
236.03	47.78
236.249	34.58
236.467	20.13
236.686	3.61
236.904	17.17
237.123	14.21
237.341	20.37
237.559	16.27
237.778	15.06
237.996	3.28
238.215	-7.24
238.433	6.48
238.652	21.97
238.87	10.68
239.088	3.81
239.307	22.39
239.525	21.05
239.743	13.72
239.962	49.16
240.18	61.59
240.398	54.86
240.617	53
240.835	46.35
241.053	32.37
241.271	42.64
241.49	33.1
241.708	34.14
241.926	45.57
242.144	44.6
242.363	18.75
242.581	32.12
242.799	22.83
243.017	15.08
243.235	17.02
243.453	19.3
243.672	13.56
243.89	15.16
244.108	12.91
244.326	28.81
244.544	30.42
244.762	33.83
244.98	30.37
245.198	40.67
245.416	25.4
245.634	24.07
245.852	15.52
246.07	15.97
246.288	5.08
246.506	2.65
246.724	-1.8
246.942	-2.24
247.16	-10.53
247.378	7.92
247.596	24.55
247.814	28.29
248.032	37.17
248.25	39.77
248.468	20.26
248.685	29.19
248.903	25.52
249.121	29.21
249.339	31.61
249.557	27.41
249.775	11.26
249.992	7.43
250.21	1.69
250.428	-7.97
250.646	33.38
250.863	25.64
251.081	-2.94
251.299	-4.58
251.517	-0.92
251.734	-29.8
251.952	-33.92
252.17	-8.95
252.387	-9.75
252.605	-6.27
252.823	16.48
253.04	34.43
253.258	29.92
253.475	31.36
253.693	51.17
253.911	57.59
254.128	22.21
254.346	70.24
254.563	62.23
254.781	29.21
254.998	32.98
255.216	51.05
255.433	11.7
255.651	38.35
255.868	104.39
256.086	67.5
256.303	51.81
256.521	49.84
256.738	35.8
256.956	11.73
257.173	13.6
257.39	19.53
257.608	28.86
257.825	34.46
258.043	43.84
258.26	46.47
258.477	57.77
258.695	51.8
258.912	44.28
259.129	38.35
259.346	34.31
259.564	8.6
259.781	26.2
259.998	40.46
260.216	33.18
260.433	47.06
260.65	56.83
260.867	46.55
261.084	38.2
261.302	28.75
261.519	20.77
261.736	14.43
261.953	27.22
262.17	4.77
262.387	37.19
262.604	36.35
262.822	44
263.039	33.95
263.256	42.8
263.473	34.41
263.69	18.07
263.907	20.35
264.124	-9.6
264.341	-17.89
264.558	-34.63
264.775	-42.3
264.992	-4.16
265.209	51.25
265.426	75.06
265.643	81.08
265.86	78.71
266.077	57.58
266.294	49.06
266.51	44.84
266.727	39.34
266.944	21.61
267.161	15.74
267.378	18.59
267.595	0.9
267.812	-8.22
268.028	-18.23
268.245	-8.64
268.462	-20.33
268.679	0.39
268.896	17.82
269.112	44.04
269.329	45.45
269.546	59.86
269.763	39.91
269.979	40.73
270.196	25.52
270.413	28.84
270.629	-0.01
270.846	17.01
271.063	18.28
271.279	14.74
271.496	20.6
271.712	49.27
271.929	36.51
272.146	18.31
272.362	27.57
272.579	15.44
272.795	6.55
273.012	-1.14
273.228	-4.47
273.445	-19.76
273.661	-38.08
273.878	-23.35
274.094	9.88
274.311	22.55
274.527	35.87
274.744	48.23
274.96	53.4
275.177	43.03
275.393	37.66
275.609	17.98
275.826	6.72
276.042	-26.95
276.259	-24.82
276.475	4.82
276.691	-0.26
276.908	6.75
277.124	28.97
277.34	47.06
277.557	34.72
277.773	34.67
277.989	29.28
278.205	37.47
278.422	27.62
278.638	34.04
278.854	33.98
279.07	33.69
279.286	14.02
279.503	17.97
279.719	-0.56
279.935	24.11
280.151	32.52
280.367	27.01
280.583	16.44
280.799	10.89
281.016	-15.39
281.232	-22.37
281.448	-8.67
281.664	3.65
281.88	11.55
282.096	10.17
282.312	15.12
282.528	23.51
282.744	14.9
282.96	24.09
283.176	25.72
283.392	12.98
283.608	2.03
283.824	9.96
284.04	7.39
284.256	19.83
284.471	26.6
284.687	41.69
284.903	42.24
285.119	51.14
285.335	58.09
285.551	49.67
285.767	37.15
285.982	36.5
286.198	25.9
286.414	24.08
286.63	27.02
286.846	18.46
287.061	-2.2
287.277	-8.88
287.493	0.64
287.709	-9.08
287.924	6.5
288.14	25.1
288.356	34.24
288.571	28.05
288.787	25.34
289.003	14.81
289.218	9.01
289.434	4.52
289.65	29.5
289.865	53.8
290.081	62.03
290.296	58.06
290.512	57.34
290.727	37.39
290.943	26.06
291.159	26.93
291.374	37.35
291.59	24.85
291.805	24.52
292.021	19.14
292.236	28.44
292.451	35.76
292.667	46.71
292.882	38.87
293.098	54.04
293.313	49.24
293.529	33.31
293.744	22.43
293.959	27.79
294.175	30.37
294.39	14.53
294.605	15.75
294.821	25.77
295.036	10.25
295.251	-8.87
295.467	-13.53
295.682	2.64
295.897	1.99
296.112	15.16
296.328	14.21
296.543	22.27
296.758	16.8
296.973	11.98
297.188	2.49
297.404	-1.29
297.619	-1.61
297.834	3.98
298.049	16.53
298.264	17.75
298.479	10.75
298.694	10.03
298.909	17.58
299.125	21.04
299.34	15.99
299.555	27.04
299.77	43.62
299.985	43.23
300.2	30.05
300.415	35.25
300.63	29.13
300.845	-3.3
301.06	12.36
301.275	22.22
301.49	15.58
301.704	38.03
301.919	53.55
302.134	37.72
302.349	26.54
302.564	29.86
302.779	26.42
302.994	5.49
303.209	-15.27
303.423	-1.16
303.638	13.89
303.853	24.55
304.068	43.56
304.283	49.18
304.497	30.11
304.712	26.8
304.927	6.6
305.142	8.26
305.356	14.78
305.571	31.74
305.786	23.5
306	39
306.215	16.36
306.43	17.57
306.644	28.08
306.859	40.81
307.074	44.67
307.288	53.75
307.503	56.81
307.717	42.87
307.932	32.55
308.147	20.85
308.361	21.08
308.576	17.09
308.79	19.98
309.005	14
309.219	20.4
309.434	13.88
309.648	20.77
309.863	15.18
310.077	23.53
310.292	35.82
310.506	46.48
310.72	46.09
310.935	44.98
311.149	36.05
311.364	20.78
311.578	40.15
311.792	29.1
312.007	26.2
312.221	37.96
312.435	38.03
312.649	8.87
312.864	37.27
313.078	43.31
313.292	36.69
313.507	33.71
313.721	35.57
313.935	13.73
314.149	20.68
314.363	15.46
314.578	4.78
314.792	9.29
315.006	18.74
315.22	2.16
315.434	1.47
315.648	26.16
315.862	37.91
316.077	45.54
316.291	43.57
316.505	44.94
316.719	42.51
316.933	27.74
317.147	11.21
317.361	8.87
317.575	9.68
317.789	-17.41
318.003	-22.46
318.217	-13.12
318.431	12.5
318.645	20.76
318.859	24.11
319.073	26.08
319.287	24.97
319.5	20.14
319.714	10.88
319.928	31.1
320.142	34.91
320.356	28.98
320.57	22.61
320.784	26.62
320.997	23.46
321.211	25.61
321.425	37.59
321.639	49.97
321.853	44.8
322.066	32.7
322.28	32.46
322.494	26.64
322.707	14.81
322.921	17.81
323.135	23.13
323.349	12.3
323.562	8.17
323.776	12.97
323.989	23.05
324.203	16.04
324.417	37.59
324.63	42.4
324.844	41.25
325.057	45.55
325.271	45.09
325.485	31.53
325.698	27.73
325.912	34.4
326.125	26.36
326.339	42.68
326.552	38.34
326.766	47.45
326.979	28.84
327.193	15.83
327.406	4.56
327.619	13.22
327.833	-11.65
328.046	3.47
328.26	-9.13
328.473	-4.99
328.686	-25.72
328.9	-24.28
329.113	-22.96
329.326	4.7
329.54	1.08
329.753	13.21
329.966	17.09
330.179	14.51
330.393	5.91
330.606	10.28
330.819	-2.23
331.032	2.85
331.246	20.1
331.459	22.48
331.672	-6.54
331.885	19.05
332.098	14.7
332.311	-6.95
332.525	19.4
332.738	35.67
332.951	26.99
333.164	39.9
333.377	46.31
333.59	22.36
333.803	22.25
334.016	25.63
334.229	10.15
334.442	-13.27
334.655	-0.02
334.868	-1.3
335.081	-6.45
335.294	12.86
335.507	24.31
335.72	25.7
335.933	24.22
336.146	31.38
336.359	17.84
336.572	27.38
336.785	16.42
336.997	18.18
337.21	18.86
337.423	41.21
337.636	30.8
337.849	50.32
338.062	60.32
338.274	71.61
338.487	67.78
338.7	70.24
338.913	56.31
339.125	49.13
339.338	31.38
339.551	26.6
339.763	28.24
339.976	27.18
340.189	24.83
340.402	29.18
340.614	17.73
340.827	11.84
341.039	23.03
341.252	26.64
341.465	27.63
341.677	34.38
341.89	-5.52
342.102	9.62
342.315	24.72
342.527	22.32
342.74	19.11
342.952	40.05
343.165	28.65
343.377	24.26
343.59	28.24
343.802	36.63
344.015	33.71
344.227	29.52
344.44	26.71
344.652	14.2
344.864	7.44
345.077	-7
345.289	-1.95
345.502	-10.65
345.714	-25.3
345.926	-27.28
346.139	-9.67
346.351	-16.32
346.563	-6.28
346.775	7.93
346.988	4.61
347.2	2.66
347.412	19.51
347.624	29.94
347.837	16.7
348.049	9.66
348.261	13.38
348.473	-27.68
348.685	-17.82
348.897	7.93
349.11	24.47
349.322	35.97
349.534	54.51
349.746	49.61
349.958	40.54
350.17	38.39
350.382	34.8
350.594	35.39
350.806	36.26
351.018	36.48
351.23	36.78
351.442	33.31
351.654	25.25
351.866	19.36
352.078	17.63
352.29	19.49
352.502	19.25
352.714	16.92
352.926	25.24
353.138	21.05
353.35	17.03
353.561	18.85
353.773	30.56
353.985	33.84
354.197	36.58
354.409	43.8
354.621	42.97
354.832	34.19
355.044	34.13
355.256	35.33
355.468	31.98
355.679	26.71
355.891	19.2
356.103	9.37
356.314	19.91
356.526	29.42
356.738	28.79
356.949	46.06
357.161	49.91
357.373	50.44
357.584	46.33
357.796	45.73
358.008	46.68
358.219	36.52
358.431	37
358.642	21.54
358.854	15.19
359.065	6.63
359.277	8.92
359.488	14.14
359.7	25.1
359.911	49.18
360.123	40
360.334	35.29
360.546	30.41
360.757	29.86
360.969	17.86
361.18	23.05
361.391	26.25
361.603	26.5
361.814	22.67
362.025	20.26
362.237	-0.01
362.448	-0.93
362.659	-13.11
362.871	-1.26
363.082	-1.15
363.293	15.49
363.504	17.93
363.716	23.91
363.927	12.11
364.138	21.58
364.349	17.33
364.56	2.25
364.772	-3.97
364.983	0.16
365.194	-7.55
365.405	-23.19
365.616	-5.74
365.827	7.7
366.038	0.39
366.25	5
366.461	17.44
366.672	8.79
366.883	-13.18
367.094	-2.24
367.305	-6.16
367.516	-16.17
367.727	1.7
367.938	23.7
368.149	16.39
368.36	17.62
368.571	24.4
368.781	12.92
368.992	4.69
369.203	14.93
369.414	5.67
369.625	-0.18
369.836	2.81
370.047	-3.52
370.258	-4.22
370.468	11.97
370.679	19.14
370.89	12.19
371.101	21.88
371.312	22.27
371.522	14.37
371.733	13.71
371.944	21.14
372.155	25.16
372.365	20.77
372.576	17.1
372.787	6.31
372.997	13.22
373.208	4.43
373.419	6.53
373.629	7.04
373.84	9.31
374.05	-2.07
374.261	-2.08
374.472	0.82
374.682	9.75
374.893	7.99
375.103	0.11
375.314	5.38
375.524	13.52
375.735	7.02
375.945	14.9
376.156	21.32
376.366	22.26
376.577	9.72
376.787	8.94
376.997	9.85
377.208	18.63
377.418	10.8
377.629	12.67
377.839	21.19
378.049	28.04
378.26	22.68
378.47	22.09
378.68	33.85
378.89	26.68
379.101	15.29
379.311	24.72
379.521	30.7
379.732	8.24
379.942	13.96
380.152	16.83
380.362	13.35
380.572	19.23
380.783	22.73
380.993	22.73
381.203	17.21
381.413	-2.63
381.623	-0.12
381.833	3.11
382.043	7.19
382.253	10.88
382.463	25.22
382.674	20.88
382.884	19.15
383.094	10.76
383.304	16.18
383.514	18.9
383.724	9.51
383.934	11.01
384.144	14.79
384.353	10.13
384.563	5.31
384.773	15.77
384.983	10.91
385.193	3.49
385.403	4.2
385.613	11.26
385.823	1.95
386.033	1.48
386.242	0.67
386.452	9.1
386.662	6.24
386.872	10.11
387.082	11.82
387.291	15.18
387.501	13.04
387.711	10.52
387.921	10.37
388.13	12.55
388.34	11.22
388.55	8.01
388.759	6.75
388.969	3.44
389.179	7.96
389.388	7.65
389.598	7.48
389.807	12.59
390.017	15.02
390.227	8.16
390.436	10.83
390.646	10.71
390.855	9.16
391.065	8.93
391.274	9.25
391.484	8.39
391.693	10.78
391.903	10.52
392.112	8.5
392.322	8.15
392.531	7.04
392.74	4.63
392.95	1.99
393.159	1.59
393.369	3.85
393.578	5.04
393.787	4.37
393.997	6.39
394.206	7.93
394.415	7.35
394.625	7.49
394.834	7.52
395.043	6.68
395.252	6.61
395.462	6.1
395.671	5.72
395.88	6.88
396.089	5.78
396.298	5.54
396.508	5.62
396.717	5.39
396.926	4.73
397.135	5.76
397.344	6.07
397.553	6.39
397.762	7.16
397.971	6.64
398.181	5.82
398.39	5.18
398.599	4.92
398.808	3.43
399.017	4.07
399.226	5.33
399.435	5.38
399.644	5.49
399.853	6.34
400.062	5.56
400.27	5.26
400.479	5.55
400.688	5.79
400.897	5.47
401.106	5.78
401.315	5.39
401.524	5.35
401.733	4.91
401.941	4.74
402.15	4.55
402.359	4.69
402.568	5.14
402.777	5.12
402.985	4.84
403.194	4.95
403.403	4.91
403.612	4.48
403.82	4.44
404.029	4.88
404.238	4.9
404.446	4.78
404.655	4.57
404.864	4.75
405.072	4.65
405.281	4.83
405.489	4.76
405.698	4.91
405.906	4.94
406.115	4.87
406.324	4.6
406.532	4.53
406.741	4.41
406.949	4.51
407.158	4.62
407.366	4.66
407.574	4.55
407.783	4.62
407.991	4.44
408.2	4.48
408.408	4.52
408.617	4.65
408.825	4.68
409.033	4.75
409.242	4.57
409.45	4.55
409.658	4.62
409.867	4.5
410.075	4.56
410.283	4.52
410.491	4.51
410.7	4.67
410.908	4.68
411.116	4.76
411.324	4.88
411.533	4.94
411.741	4.87
411.949	5
412.157	4.79
412.365	4.81
412.573	4.59
412.781	4.39
412.99	4.27
413.198	4.34
413.406	4.21
413.614	4.34
413.822	4.47
414.03	4.57
414.238	4.5
414.446	4.58
414.654	4.6
414.862	4.53
415.07	4.52
415.278	4.53
415.486	4.45
415.694	4.6
415.902	4.56
416.109	4.37
416.317	4.4
416.525	4.46
416.733	4.19
416.941	4.3
417.149	4.29
417.357	4.2
417.564	4.1
417.772	4.08
417.98	4.19
418.188	4.22
418.395	4.23
418.603	4.31
418.811	4.53
419.019	4.25
419.226	4.38
419.434	4.29
419.642	4.15
419.849	3.92
420.057	3.99
420.265	3.97
420.472	4
420.68	4.19
420.887	4.38
421.095	4.41
421.302	4.2
421.51	4.03
421.717	3.87
421.925	3.95
422.132	3.9
422.34	3.94
422.547	3.98
422.755	4.09
422.962	3.86
423.17	3.74
423.377	3.91
423.585	4.05
423.792	3.85
423.999	4.09
424.207	4.16
424.414	4.09
424.621	4.05
424.829	3.97
425.036	3.62
425.243	3.83
425.451	3.81
425.658	3.62
425.865	3.93
426.072	4.11
426.28	3.96
426.487	4.05
426.694	4.02
426.901	3.87
427.108	3.76
427.315	3.76
427.523	3.75
427.73	3.86
427.937	3.86
428.144	3.79
428.351	3.77
428.558	3.77
428.765	3.82
428.972	3.8
429.179	3.89
429.386	3.92
429.593	3.85
429.8	3.8
430.007	3.83
430.214	3.96
430.421	3.92
430.628	3.86
430.835	3.91
431.042	3.78
431.249	3.66
431.456	3.76
431.662	3.77
431.869	3.82
432.076	3.92
432.283	3.81
432.49	3.73
432.697	3.66
432.903	3.56
433.11	3.54
433.317	3.66
433.524	3.71
433.73	3.66
433.937	3.84
434.144	3.84
434.35	3.86
434.557	3.73
434.764	3.81
434.97	3.68
435.177	3.64
435.384	3.55
435.59	3.71
435.797	3.73
436.003	3.8
436.21	3.85
436.416	3.69
436.623	3.57
436.829	3.55
437.036	3.52
437.242	3.57
437.449	3.86
437.655	3.87
437.862	3.83
438.068	3.87
438.275	3.8
438.481	3.75
438.687	3.61
438.894	3.57
439.1	3.41
439.307	3.45
439.513	3.53
439.719	3.68
439.926	3.8
440.132	3.84
440.338	3.78
440.544	3.53
440.751	3.48
440.957	3.46
441.163	3.44
441.369	3.59
441.575	3.71
441.782	3.64
441.988	3.61
442.194	3.58
442.4	3.51
442.606	3.61
442.812	3.71
443.018	3.64
443.224	3.59
443.431	3.56
443.637	3.46
443.843	3.47
444.049	3.53
444.255	3.68
444.461	3.66
444.667	3.7
444.873	3.71
445.079	3.75
445.284	3.61
445.49	3.59
445.696	3.46
445.902	3.46
446.108	3.49
446.314	3.61
446.52	3.55
446.726	3.69
446.931	3.66
447.137	3.62
447.343	3.64
447.549	3.71
447.755	3.62
447.96	3.68
448.166	3.65
448.372	3.65
448.578	3.72
448.783	3.64
448.989	3.62
449.195	3.54
449.4	3.46
449.606	3.34
449.812	3.48
450.017	3.41
450.223	3.44
450.428	3.5
450.634	3.56
450.84	3.58
451.045	3.65
451.251	3.7
451.456	3.66
451.662	3.67
451.867	3.79
452.073	3.78
452.278	3.81
452.483	3.78
452.689	3.76
452.894	3.72
453.1	3.65
453.305	3.59
453.51	3.67
453.716	3.74
453.921	3.62
454.127	3.74
454.332	3.7
454.537	3.62
454.742	3.55
454.948	3.58
455.153	3.48
455.358	3.58
455.563	3.63
455.769	3.57
455.974	3.55
456.179	3.59
456.384	3.54
456.589	3.5
456.795	3.58
457	3.58
457.205	3.61
457.41	3.66
457.615	3.63
457.82	3.62
458.025	3.56
458.23	3.49
458.435	3.42
458.64	3.42
458.845	3.46
459.05	3.47
459.255	3.56
459.46	3.62
459.665	3.68
459.87	3.61
460.075	3.62
460.28	3.62
460.485	3.56
460.69	3.62
460.895	3.69
461.099	3.76
461.304	3.67
461.509	3.67
461.714	3.6
461.919	3.59
462.123	3.59
462.328	3.61
462.533	3.77
462.738	3.8
462.942	3.76
463.147	3.7
463.352	3.68
463.556	3.56
463.761	3.5
463.966	3.49
464.17	3.58
464.375	3.66
464.58	3.73
464.784	3.8
464.989	3.83
465.193	3.85
465.398	3.92
465.602	3.89
465.807	3.88
466.011	3.92
466.216	3.79
466.42	3.75
466.625	3.85
466.829	3.79
467.034	3.83
467.238	3.93
467.443	3.89
467.647	3.76
467.851	3.65
468.056	3.54
468.26	3.56
468.464	3.55
468.669	3.61
468.873	3.75
469.077	3.71
469.282	3.62
469.486	3.66
469.69	3.65
469.894	3.64
470.099	3.84
470.303	3.96
470.507	4
470.711	3.93
470.915	4
471.119	3.96
471.324	3.9
471.528	3.86
471.732	3.89
471.936	3.9
472.14	3.87
472.344	3.97
472.548	3.97
472.752	4.09
472.956	4.01
473.16	4.02
473.364	3.89
473.568	3.94
473.772	3.94
473.976	3.99
474.18	3.99
474.384	4
474.588	3.99
474.792	3.99
474.995	4.04
475.199	4.06
475.403	4.07
475.607	4.05
475.811	4.01
476.015	3.97
476.218	4.03
476.422	4.08
476.626	4.06
476.83	4.05
477.033	4.09
477.237	4.02
477.441	3.99
477.644	4
477.848	4.04
478.052	4.06
478.255	4.08
478.459	4.09
478.663	4.15
478.866	4.16
479.07	4.12
479.273	4.13
479.477	4.21
479.681	4.18
479.884	4.11
480.088	4.07
480.291	4.08
480.495	4.01
480.698	4
480.901	4.05
481.105	4.09
481.308	4.02
481.512	4.04
481.715	4.1
481.919	4.18
482.122	4.2
482.325	4.26
482.529	4.27
482.732	4.2
482.935	4.15
483.138	4.12
483.342	4.06
483.545	4.12
483.748	4.14
483.952	4.21
484.155	4.24
484.358	4.29
484.561	4.32
484.764	4.32
484.967	4.3
485.171	4.31
485.374	4.36
485.577	4.28
485.78	4.25
485.983	4.3
486.186	4.3
486.389	4.27
486.592	4.28
486.795	4.38
486.998	4.32
487.201	4.34
487.404	4.32
487.607	4.37
487.81	4.35
488.013	4.36
488.216	4.33
488.419	4.3
488.622	4.31
488.825	4.29
489.028	4.26
489.231	4.25
489.433	4.31
489.636	4.29
489.839	4.28
490.042	4.25
490.245	4.29
490.447	4.3
490.65	4.33
490.853	4.34
491.056	4.37
491.258	4.32
491.461	4.33
491.664	4.29
491.866	4.26
492.069	4.21
492.272	4.29
492.474	4.23
492.677	4.23
492.879	4.28
493.082	4.35
493.285	4.33
493.487	4.35
493.69	4.41
493.892	4.4
494.095	4.42
494.297	4.4
494.5	4.43
494.702	4.4
494.905	4.41
495.107	4.36
495.309	4.43
495.512	4.49
495.714	4.48
495.917	4.55
496.119	4.58
496.321	4.58
496.524	4.56
496.726	4.56
496.928	4.52
497.13	4.62
497.333	4.62
497.535	4.69
497.737	4.75
497.939	4.79
498.142	4.76
498.344	4.78
498.546	4.74
498.748	4.76
498.95	4.79
499.152	4.78
499.355	4.77
499.557	4.8
499.759	4.83
499.961	4.81
500.163	4.85
500.365	4.87
500.567	4.82
500.769	4.8
500.971	4.85
501.173	4.86
501.375	4.9
501.577	4.92
501.779	4.96
501.981	5
502.183	4.99
502.385	4.99
502.587	5.04
502.788	5.02
502.99	4.95
503.192	4.97
503.394	4.95
503.596	4.98
503.798	4.93
503.999	5.05
504.201	5.04
504.403	5.09
504.605	5.06
504.806	5.17
505.008	5.11
505.21	5.15
505.411	5.16
505.613	5.19
505.815	5.13
506.016	5.16
506.218	5.15
506.42	5.13
506.621	5.09
506.823	5.15
507.024	5.11
507.226	5.13
507.427	5.22
507.629	5.27
507.83	5.31
508.032	5.34
508.233	5.33
508.435	5.26
508.636	5.28
508.838	5.19
509.039	5.21
509.24	5.25
509.442	5.29
509.643	5.32
509.845	5.33
510.046	5.29
510.247	5.22
510.448	5.24
510.65	5.21
510.851	5.28
511.052	5.37
511.254	5.45
511.455	5.49
511.656	5.43
511.857	5.44
512.058	5.4
512.26	5.38
512.461	5.39
512.662	5.43
512.863	5.43
513.064	5.44
513.265	5.46
513.466	5.42
513.667	5.45
513.868	5.38
514.069	5.39
514.27	5.37
514.471	5.38
514.672	5.35
514.873	5.32
515.074	5.35
515.275	5.33
515.476	5.34
515.677	5.36
515.878	5.41
516.079	5.4
516.28	5.46
516.481	5.47
516.682	5.5
516.882	5.58
517.083	5.52
517.284	5.52
517.485	5.52
517.686	5.5
517.886	5.49
518.087	5.49
518.288	5.48
518.488	5.48
518.689	5.46
518.89	5.44
519.091	5.49
519.291	5.48
519.492	5.46
519.692	5.53
519.893	5.57
520.094	5.56
520.294	5.59
520.495	5.64
520.695	5.64
520.896	5.66
521.096	5.75
521.297	5.77
521.497	5.78
521.698	5.77
521.898	5.73
522.099	5.68
522.299	5.69
522.499	5.68
522.7	5.73
522.9	5.78
523.101	5.78
523.301	5.77
523.501	5.77
523.702	5.73
523.902	5.75
524.102	5.78
524.302	5.81
524.503	5.83
524.703	5.88
524.903	5.87
525.103	5.9
525.304	5.86
525.504	5.87
525.704	5.88
525.904	5.9
526.104	5.87
526.304	5.9
526.504	5.92
526.705	5.89
526.905	5.87
527.105	5.91
527.305	5.93
527.505	5.89
527.705	5.92
527.905	5.94
528.105	5.97
528.305	5.98
528.505	6
528.705	6.01
528.905	6.04
529.105	6.03
529.304	6.02
529.504	6.06
529.704	6.05
529.904	6.07
530.104	6.04
530.304	6.06
530.503	6.03
530.703	6.03
530.903	6.02
531.103	6.01
531.303	6.02
531.502	6.08
531.702	6.07
531.902	6.12
532.101	6.19
532.301	6.24
532.501	6.23
532.7	6.31
532.9	6.36
533.1	6.39
533.299	6.42
533.499	6.46
533.698	6.41
533.898	6.39
534.097	6.36
534.297	6.32
534.496	6.3
534.696	6.34
534.895	6.27
535.095	6.3
535.294	6.28
535.494	6.3
535.693	6.37
535.892	6.41
536.092	6.41
536.291	6.46
536.491	6.49
536.69	6.48
536.889	6.58
537.088	6.64
537.288	6.66
537.487	6.68
537.686	6.68
537.886	6.71
538.085	6.69
538.284	6.72
538.483	6.73
538.682	6.81
538.882	6.8
539.081	6.82
539.28	6.85
539.479	6.85
539.678	6.83
539.877	6.82
540.076	6.87
540.275	6.9
540.474	6.92
540.673	6.9
540.872	6.93
541.071	6.95
541.27	7
541.469	7.03
541.668	7.07
541.867	7.08
542.066	7.08
542.265	7.09
542.464	7.12
542.663	7.17
542.862	7.27
543.06	7.37
543.259	7.44
543.458	7.54
543.657	7.57
543.856	7.58
544.054	7.55
544.253	7.53
544.452	7.51
544.651	7.49
544.849	7.48
545.048	7.56
545.247	7.55
545.445	7.56
545.644	7.65
545.843	7.69
546.041	7.71
546.24	7.73
546.438	7.85
546.637	7.88
546.836	7.92
547.034	7.97
547.233	8.01
547.431	8.02
547.63	8.06
547.828	8.15
548.027	8.19
548.225	8.29
548.423	8.34
548.622	8.46
548.82	8.43
549.019	8.49
549.217	8.53
549.415	8.53
549.614	8.52
549.812	8.55
550.01	8.57
550.209	8.61
550.407	8.68
550.605	8.72
550.803	8.81
551.002	8.89
551.2	8.86
551.398	8.95
551.596	9.02
551.794	9.08
551.993	9.12
552.191	9.27
552.389	9.28
552.587	9.32
552.785	9.34
552.983	9.35
553.181	9.4
553.379	9.49
553.577	9.59
553.775	9.66
553.973	9.75
554.171	9.78
554.369	9.86
554.567	9.88
554.765	9.95
554.963	10.05
555.161	10.15
555.359	10.18
555.557	10.29
555.755	10.39
555.952	10.44
556.15	10.52
556.348	10.55
556.546	10.58
556.744	10.67
556.941	10.77
557.139	10.85
557.337	10.96
557.535	11.03
557.732	11.03
557.93	11.02
558.128	11.06
558.325	11.17
558.523	11.27
558.721	11.36
558.918	11.42
559.116	11.53
559.313	11.6
559.511	11.71
559.708	11.82
559.906	11.9
560.104	11.88
560.301	11.95
560.498	12
560.696	12.03
560.893	12.18
561.091	12.34
561.288	12.42
561.486	12.45
561.683	12.58
561.88	12.53
562.078	12.63
562.275	12.66
562.473	12.73
562.67	12.75
562.867	12.86
563.064	12.92
563.262	12.99
563.459	13.13
563.656	13.26
563.853	13.32
564.051	13.37
564.248	13.47
564.445	13.51
564.642	13.54
564.839	13.66
565.036	13.77
565.234	13.82
565.431	13.86
565.628	13.93
565.825	13.94
566.022	13.95
566.219	13.93
566.416	13.97
566.613	13.97
566.81	14.1
567.007	14.15
567.204	14.28
567.401	14.27
567.598	14.39
567.795	14.42
567.991	14.45
568.188	14.54
568.385	14.69
568.582	14.76
568.779	14.81
568.976	14.84
569.172	14.85
569.369	14.87
569.566	14.9
569.763	14.99
569.96	15.05
570.156	15.05
570.353	15.03
570.55	15.09
570.746	15.02
570.943	15.07
571.14	15.14
571.336	15.28
571.533	15.24
571.729	15.31
571.926	15.33
572.123	15.35
572.319	15.31
572.516	15.34
572.712	15.29
572.909	15.34
573.105	15.36
573.302	15.39
573.498	15.42
573.695	15.51
573.891	15.38
574.087	15.42
574.284	15.44
574.48	15.42
574.677	15.43
574.873	15.51
575.069	15.47
575.266	15.41
575.462	15.41
575.658	15.34
575.854	15.36
576.051	15.33
576.247	15.36
576.443	15.43
576.639	15.5
576.835	15.51
577.032	15.55
577.228	15.58
577.424	15.48
577.62	15.45
577.816	15.45
578.012	15.39
578.208	15.36
578.404	15.39
578.6	15.34
578.796	15.33
578.993	15.4
579.189	15.35
579.384	15.34
579.58	15.37
579.776	15.29
579.972	15.26
580.168	15.29
580.364	15.26
580.56	15.26
580.756	15.24
580.952	15.17
581.148	15.07
581.343	15.02
581.539	15.01
581.735	15.07
581.931	15.08
582.127	15.04
582.322	15.06
582.518	15.02
582.714	14.94
582.909	14.88
583.105	14.94
583.301	14.92
583.496	14.88
583.692	14.79
583.888	14.81
584.083	14.77
584.279	14.71
584.474	14.69
584.67	14.78
584.866	14.7
585.061	14.68
585.257	14.65
585.452	14.67
585.648	14.58
585.843	14.56
586.039	14.52
586.234	14.54
586.429	14.46
586.625	14.43
586.82	14.43
587.015	14.4
587.211	14.35
587.406	14.4
587.601	14.47
587.797	14.46
587.992	14.38
588.187	14.31
588.383	14.29
588.578	14.2
588.773	14.21
588.968	14.26
589.163	14.36
589.359	14.27
589.554	14.34
589.749	14.37
589.944	14.33
590.139	14.29
590.334	14.34
590.529	14.38
590.724	14.44
590.919	14.52
591.114	14.6
591.309	14.64
591.504	14.6
591.699	14.52
591.894	14.52
592.089	14.48
592.284	14.43
592.479	14.39
592.674	14.43
592.869	14.5
593.064	14.54
593.259	14.63
593.454	14.64
593.648	14.67
593.843	14.69
594.038	14.67
594.233	14.69
594.428	14.82
594.622	14.88
594.817	14.9
595.012	14.89
595.206	14.91
595.401	14.92
595.596	14.92
595.79	14.95
595.985	15.06
596.18	15.16
596.374	15.2
596.569	15.23
596.763	15.27
596.958	15.31
597.153	15.29
597.347	15.38
597.542	15.53
597.736	15.56
597.931	15.64
598.125	15.7
598.319	15.66
598.514	15.57
598.708	15.54
598.903	15.53
599.097	15.5
599.291	15.63
599.486	15.64
599.68	15.75
599.874	15.78
600.069	15.8
600.263	15.78
600.457	15.88
600.651	15.9
600.846	15.96
601.04	15.98
601.234	16.03
601.428	16
601.622	15.98
601.817	16.01
602.011	16.04
602.205	15.97
602.399	15.96
602.593	16.01
602.787	15.97
602.981	16
603.175	16.07
603.369	16.05
603.563	15.98
603.757	15.98
603.951	15.92
604.145	15.8
604.339	15.87
604.533	15.88
604.727	15.85
604.921	15.87
605.115	15.9
605.309	15.85
605.502	15.88
605.696	15.83
605.89	15.77
606.084	15.78
606.278	15.7
606.471	15.54
606.665	15.59
606.859	15.55
607.053	15.46
607.246	15.5
607.44	15.45
607.634	15.33
607.827	15.39
608.021	15.34
608.214	15.31
608.408	15.34
608.602	15.31
608.795	15.19
608.989	15.13
609.182	14.95
609.376	14.92
609.569	14.86
609.763	14.73
609.956	14.69
610.15	14.68
610.343	14.59
610.537	14.53
610.73	14.56
610.923	14.54
611.117	14.47
611.31	14.38
611.504	14.36
611.697	14.23
611.89	14.14
612.083	14.12
612.277	13.98
612.47	13.92
612.663	13.91
612.856	13.85
613.05	13.77
613.243	13.77
613.436	13.66
613.629	13.55
613.822	13.59
614.015	13.61
614.209	13.51
614.402	13.51
614.595	13.5
614.788	13.35
614.981	13.21
615.174	13.13
615.367	13.13
615.56	13.05
615.753	12.98
615.946	12.9
616.139	12.9
616.332	12.78
616.525	12.74
616.718	12.66
616.911	12.69
617.103	12.71
617.296	12.69
617.489	12.61
617.682	12.62
617.875	12.55
618.067	12.46
618.26	12.49
618.453	12.46
618.646	12.43
618.838	12.39
619.031	12.42
619.224	12.28
619.417	12.26
619.609	12.23
619.802	12.19
619.994	12.12
620.187	12.13
620.38	12.12
620.572	12.12
620.765	12.15
620.957	12.11
621.15	12.06
621.342	12
621.535	11.93
621.727	11.82
621.92	11.78
622.112	11.73
622.305	11.75
622.497	11.71
622.69	11.69
622.882	11.68
623.074	11.71
623.267	11.64
623.459	11.67
623.651	11.66
623.844	11.7
624.036	11.67
624.228	11.74
624.42	11.68
624.613	11.74
624.805	11.65
624.997	11.57
625.189	11.5
625.381	11.48
625.574	11.43
625.766	11.44
625.958	11.42
626.15	11.42
626.342	11.4
626.534	11.38
626.726	11.37
626.918	11.39
627.11	11.33
627.302	11.33
627.494	11.25
627.686	11.19
627.878	11.13
628.07	11.16
628.262	11.11
628.454	11.09
628.646	11.05
628.838	11.03
629.029	10.96
629.221	10.98
629.413	10.94
629.605	10.9
629.797	10.88
629.989	10.75
630.18	10.68
630.372	10.65
630.564	10.67
630.755	10.67
630.947	10.77
631.139	10.72
631.33	10.71
631.522	10.66
631.714	10.61
631.905	10.53
632.097	10.58
632.289	10.58
632.48	10.53
632.672	10.45
632.863	10.35
633.055	10.28
633.246	10.16
633.438	10.18
633.629	10.17
633.821	10.22
634.012	10.21
634.203	10.26
634.395	10.18
634.586	10.17
634.777	10.14
634.969	10.1
635.16	10.07
635.351	10.08
635.543	10.1
635.734	10.07
635.925	10.04
636.117	10
636.308	9.95
636.499	9.95
636.69	9.96
636.881	10.01
637.073	10.04
637.264	10.08
637.455	10.05
637.646	10.05
637.837	9.97
638.028	9.89
638.219	9.81
638.41	9.72
638.601	9.63
638.792	9.63
638.983	9.62
639.174	9.6
639.365	9.58
639.556	9.54
639.747	9.52
639.938	9.51
640.129	9.53
640.32	9.49
640.511	9.55
640.701	9.54
640.892	9.57
641.083	9.5
641.274	9.49
641.465	9.41
641.655	9.39
641.846	9.32
642.037	9.2
642.228	9.2
642.418	9.14
642.609	9.03
642.8	9.01
642.99	9.05
643.181	9.11
643.372	9.14
643.562	9.14
643.753	9.09
643.943	9.04
644.134	8.91
644.324	8.83
644.515	8.83
644.705	8.8
644.896	8.82
645.086	8.82
645.277	8.84
645.467	8.88
645.658	8.83
645.848	8.79
646.038	8.74
646.229	8.74
646.419	8.64
646.61	8.67
646.8	8.67
646.99	8.66
647.18	8.65
647.371	8.6
647.561	8.59
647.751	8.56
647.941	8.59
648.132	8.51
648.322	8.58
648.512	8.55
648.702	8.58
648.892	8.54
649.082	8.6
649.272	8.6
649.462	8.6
649.653	8.58
649.843	8.65
650.033	8.59
650.223	8.58
650.413	8.54
650.603	8.56
650.793	8.51
650.983	8.5
651.172	8.48
651.362	8.47
651.552	8.37
651.742	8.29
651.932	8.24
652.122	8.21
652.312	8.25
652.502	8.26
652.691	8.3
652.881	8.35
653.071	8.33
653.261	8.22
653.45	8.16
653.64	8.11
653.83	8
654.019	7.93
654.209	7.91
654.399	7.9
654.588	7.92
654.778	7.89
654.968	7.78
655.157	7.66
655.347	7.6
655.536	7.41
655.726	7.28
655.915	7.29
656.105	7.3
656.294	7.26
656.484	7.19
656.673	7.25
656.863	7.16
657.052	7.07
657.241	6.96
657.431	6.9
657.62	6.87
657.809	6.77
657.999	6.72
658.188	6.7
658.377	6.66
658.567	6.51
658.756	6.37
658.945	6.33
659.134	6.22
659.324	6.16
659.513	6.07
659.702	6.03
659.891	5.98
660.08	5.87
660.269	5.82
660.458	5.79
660.648	5.74
660.837	5.7
661.026	5.68
661.215	5.6
661.404	5.52
661.593	5.43
661.782	5.27
661.971	5.18
662.16	5.11
662.349	5
662.538	4.97
662.726	4.89
662.915	4.87
663.104	4.85
663.293	4.84
663.482	4.87
663.671	4.88
663.86	4.82
664.048	4.78
664.237	4.73
664.426	4.72
664.615	4.77
664.803	4.73
664.992	4.65
665.181	4.68
665.369	4.61
665.558	4.53
665.747	4.57
665.935	4.67
666.124	4.69
666.312	4.73
666.501	4.71
666.69	4.73
666.878	4.71
667.067	4.67
667.255	4.63
667.444	4.7
667.632	4.64
667.82	4.57
668.009	4.53
668.197	4.54
668.386	4.54
668.574	4.54
668.762	4.61
668.951	4.7
669.139	4.72
669.327	4.72
669.516	4.76
669.704	4.72
669.892	4.69
670.08	4.71
670.269	4.69
670.457	4.69
670.645	4.8
670.833	4.79
671.021	4.85
671.21	4.92
671.398	4.82
671.586	4.79
671.774	4.82
671.962	4.86
672.15	4.92
672.338	5.16
672.526	5.32
672.714	5.43
672.902	5.41
673.09	5.35
673.278	5.38
673.466	5.39
673.654	5.49
673.842	5.54
674.03	5.73
674.218	5.77
674.405	5.81
674.593	5.7
674.781	5.79
674.969	5.74
675.157	5.72
675.344	5.73
675.532	5.88
675.72	5.99
675.908	5.97
676.095	6.12
676.283	6.22
676.471	6.18
676.658	6.17
676.846	6.31
677.033	6.34
677.221	6.35
677.409	6.4
677.596	6.4
677.784	6.47
677.971	6.51
678.159	6.54
678.346	6.71
678.534	6.81
678.721	6.86
678.909	6.95
679.096	7.06
679.283	7.01
679.471	7.12
679.658	7.16
679.846	7.12
680.033	7.18
680.22	7.3
680.408	7.25
680.595	7.25
680.782	7.27
680.969	7.33
681.157	7.33
681.344	7.5
681.531	7.6
681.718	7.73
681.905	7.72
682.093	7.87
682.28	7.96
682.467	8.05
682.654	8.03
682.841	8.16
683.028	8.15
683.215	8.26
683.402	8.3
683.589	8.46
683.776	8.61
683.963	8.77
684.15	8.81
684.337	9.01
684.524	9.22
684.711	9.25
684.898	9.42
685.085	9.47
685.271	9.68
685.458	9.76
685.645	9.91
685.832	10.05
686.019	10.27
686.205	10.31
686.392	10.49
686.579	10.67
686.766	10.71
686.952	10.79
687.139	11.12
687.326	11.46
687.512	11.69
687.699	11.99
687.886	12.32
688.072	12.4
688.259	12.44
688.445	12.57
688.632	12.8
688.818	13.01
689.005	13.22
689.191	13.48
689.378	13.83
689.564	14.16
689.751	14.44
689.937	14.8
690.124	15.14
690.31	15.45
690.496	15.74
690.683	16.12
690.869	16.57
691.055	17.03
691.242	17.54
691.428	17.96
691.614	18.44
691.8	18.81
691.987	19.19
692.173	19.54
692.359	20.12
692.545	20.52
692.731	21.09
692.918	21.43
693.104	21.95
693.29	22.18
693.476	22.77
693.662	23.19
693.848	23.73
694.034	24.11
694.22	24.74
694.406	25.3
694.592	25.83
694.778	26.6
694.964	27.24
695.15	27.78
695.336	28.22
695.522	28.7
695.708	29.19
695.894	29.63
696.08	30.11
696.265	30.67
696.451	31.35
696.637	31.67
696.823	32.34
697.009	33.12
697.194	33.74
697.38	34.28
697.566	35.03
697.751	35.56
697.937	36.15
698.123	36.76
698.308	37.34
698.494	38.12
698.68	39
698.865	39.51
699.051	40.02
699.236	40.65
699.422	41.26
699.607	41.51
699.793	42.35
699.978	43.02
700.164	43.64
700.349	43.95
700.535	44.63
700.72	45.09
700.906	45.59
701.091	46.09
701.276	46.76
701.462	47.34
701.647	47.92
701.832	48.84
702.018	49.52
702.203	50.11
702.388	50.83
702.573	51.56
702.759	51.82
702.944	52.39
703.129	53.08
703.314	53.71
703.499	53.94
703.684	54.43
703.87	54.98
704.055	55.53
704.24	55.89
704.425	56.43
704.61	56.97
704.795	57.3
704.98	57.87
705.165	58.44
705.35	59.17
705.535	59.58
705.72	60.17
705.905	60.36
706.09	60.82
706.275	61.36
706.459	61.52
706.644	61.95
706.829	62.71
707.014	63.24
707.199	63.47
707.384	64.31
707.568	65.02
707.753	65.29
707.938	65.55
708.123	65.99
708.307	66.3
708.492	66.6
708.677	66.86
708.861	67.11
709.046	67.58
709.231	68.35
709.415	68.55
709.6	69.06
709.784	69.65
709.969	69.91
710.153	69.89
710.338	70.47
710.522	70.94
710.707	71.04
710.891	71.63
711.076	71.99
711.26	72.53
711.445	72.89
711.629	73.56
711.813	73.72
711.998	74.1
712.182	74.1
712.366	74.32
712.551	74.81
712.735	75.03
712.919	75.6
713.103	75.98
713.288	76.42
713.472	76.52
713.656	77.17
713.84	77.1
714.024	77.65
714.208	77.82
714.393	77.98
714.577	77.95
714.761	78.96
714.945	79.33
715.129	79.29
715.313	79.58
715.497	79.66
715.681	79.06
715.865	78.73
716.049	79.44
716.233	79.97
716.417	80.53
716.601	80.98
716.785	81.18
716.968	81.06
717.152	80.89
717.336	80.66
717.52	81
717.704	81.44
717.888	81.7
718.071	82
718.255	82.5
718.439	82.47
718.622	82.24
718.806	82.5
718.99	82.72
719.174	82.96
719.357	83.58
719.541	84.38
719.724	84.84
719.908	85.04
720.092	85.19
720.275	85.1
720.459	85.35
720.642	85.17
720.826	85.13
721.009	85.26
721.193	85.2
721.376	85.34
721.559	85.34
721.743	85.84
721.926	86.13
722.11	86.71
722.293	86.69
722.476	87.03
722.66	87
722.843	87.16
723.026	87.12
723.21	87.01
723.393	86.95
723.576	87.16
723.759	87.02
723.942	87.05
724.126	87.4
724.309	88.14
724.492	88.25
724.675	88.93
724.858	89.16
725.041	88.85
725.224	89.13
725.407	89.37
725.59	89.3
725.774	89.3
725.957	89.8
726.14	89.92
726.322	89.79
726.505	89.81
726.688	90.46
726.871	90.43
727.054	90.03
727.237	90.72
727.42	91.04
727.603	90.33
727.786	90.8
727.968	91.17
728.151	90.84
728.334	91.04
728.517	91.41
728.699	91.22
728.882	91.05
729.065	90.92
729.248	91.1
729.43	91.36
729.613	91.81
729.796	92.46
729.978	92.77
730.161	92.15
730.343	92.94
730.526	92.45
730.708	91.99
730.891	92.16
731.073	92.58
731.256	92.31
731.438	93.15
731.621	93.21
731.803	93.55
731.986	94.07
732.168	93.81
732.35	93.27
732.533	93.34
732.715	93.48
732.898	93.71
733.08	93.56
733.262	94.1
733.444	94.63
733.627	95.29
733.809	94.86
733.991	95.2
734.173	95.02
734.355	95.1
734.538	94.28
734.72	95.17
734.902	95.27
735.084	95.88
735.266	96.11
735.448	96.27
735.63	95.36
735.812	95.41
735.994	95.63
736.176	95.76
736.358	96.27
736.54	96.91
736.722	96.83
736.904	96.21
737.086	96.27
737.268	96.1
737.45	95.79
737.632	95.69
737.814	96.4
737.995	96.26
738.177	95.88
738.359	96
738.541	96.68
738.723	97.17
738.904	96.69
739.086	97.34
739.268	97.28
739.449	97.7
739.631	96.39
739.813	97.05
739.994	97.23
740.176	97.92
740.358	97.16
740.539	98.11
740.721	97.89
740.902	96.94
741.084	96.59
741.265	97.32
741.447	97.77
741.628	98.09
741.81	99
741.991	99.67
742.172	99.16
742.354	97.87
742.535	97.57
742.717	97.62
742.898	97.26
743.079	97.28
743.261	98.32
743.442	98.75
743.623	98.68
743.804	98.12
743.986	98.08
744.167	97.65
744.348	97.01
744.529	96.91
744.71	97.4
744.891	97.84
745.073	98.72
745.254	98.8
745.435	98.42
745.616	98.34
745.797	97.64
745.978	96.99
746.159	96.96
746.34	96.48
746.521	95.82
746.702	96.54
746.883	96.35
747.064	97.69
747.245	98.09
747.426	97.97
747.606	97.51
747.787	97.56
747.968	96.91
748.149	97.14
748.33	97.4
748.51	97.59
748.691	98.65
748.872	98.93
749.053	99.57
749.233	99.06
749.414	98.54
749.595	96.85
749.775	95.92
749.956	95.62
750.137	96.04
750.317	97.18
750.498	96.99
750.678	98.51
750.859	98.31
751.04	98.74
751.22	97.5
751.4	98.6
751.581	97.1
751.761	96.87
751.942	96.59
752.122	97.22
752.303	96.5
752.483	97.32
752.663	97.92
752.844	98.75
753.024	99.24
753.204	99.06
753.385	98.75
753.565	97.49
753.745	98.27
753.925	97.49
754.106	98.05
754.286	96.93
754.466	97.14
754.646	95.97
754.826	95.14
755.006	94.41
755.187	94.64
755.367	95.87
755.547	95.22
755.727	95.88
755.907	97.39
756.087	98.1
756.267	96.93
756.447	96.78
756.627	95.98
756.807	94.29
756.987	93.11
757.167	94.32
757.346	95.28
757.526	96.46
757.706	97.41
757.886	96.59
758.066	94.64
758.246	94.66
758.425	93.46
758.605	93.53
758.785	95.82
758.965	97.85
759.144	96.22
759.324	95.44
759.504	94.54
759.683	94.07
759.863	93.11
760.043	93.48
760.222	95.4
760.402	95.49
760.581	95.94
760.761	94.74
760.94	94.97
761.12	95.06
761.299	95.2
761.479	93.27
761.658	94.07
761.838	94.25
762.017	94.03
762.197	95.14
762.376	97.73
762.555	95.88
762.735	95.93
762.914	96.08
763.093	94.67
763.273	92.51
763.452	95.26
763.631	95.99
763.81	94.97
763.99	94.62
764.169	96.15
764.348	95.11
764.527	92.07
764.706	93.42
764.885	94.31
765.064	93.04
765.243	92.8
765.423	94.8
765.602	92.43
765.781	91.41
765.96	90.79
766.139	91.96
766.318	92.22
766.497	93.03
766.676	95.18
766.854	96.29
767.033	95.94
767.212	94.79
767.391	95.13
767.57	93.58
767.749	93.16
767.928	91.67
768.106	92.63
768.285	92.8
768.464	93.14
768.643	92.84
768.821	94.49
769	95.1
769.179	96.02
769.357	93.27
769.536	92.79
769.715	91.73
769.893	91.38
770.072	90.02
770.25	91.77
770.429	92.66
770.607	93.14
770.786	91.38
770.964	91.14
771.143	91.74
771.321	91.82
771.5	91.75
771.678	93.42
771.857	95.03
772.035	95.3
772.213	95.39
772.392	95.53
772.57	93.87
772.748	93.72
772.927	92.72
773.105	92.56
773.283	92.08
773.461	93.28
773.64	92.44
773.818	92.38
773.996	91.99
774.174	91.25
774.352	88.75
774.531	87.86
774.709	88.04
774.887	88
775.065	88.01
775.243	89.06
775.421	91.06
775.599	89.99
775.777	91
775.955	92.8
776.133	94.99
776.311	93.58
776.489	95.39
776.667	95.19
776.844	94.13
777.022	93.23
777.2	93.8
777.378	92.6
777.556	90.29
777.734	91.51
777.911	92.41
778.089	92.09
778.267	92.76
778.445	95.55
778.622	92.97
778.8	93.52
778.978	95.83
779.155	97.05
779.333	95.24
779.511	95.77
779.688	93.97
779.866	90.94
780.043	89.89
780.221	92.16
780.398	91.68
780.576	92.72
780.753	93.01
780.931	91.54
781.108	87.82
781.286	89.91
781.463	91.12
781.64	92.16
781.818	92.56
781.995	94.68
782.172	92.11
782.35	89.21
782.527	88.08
782.704	88.98
782.882	88.15
783.059	89.2
783.236	91.01
783.413	93.06
783.59	94.43
783.768	97.04
783.945	98.75
784.122	96.77
784.299	93.17
784.476	89.92
784.653	85.64
784.83	82.62
785.007	83.61
785.184	84.3
785.361	85.49
785.538	88.52
785.715	90.15
785.892	89.28
786.069	91.47
786.246	92.14
786.423	90.37
786.6	90.78
786.776	88.06
786.953	84.63
787.13	84.01
787.307	85.73
787.484	83.63
787.66	88.53
787.837	93.87
788.014	93.62
788.191	91.49
788.367	90.89
788.544	88.63
788.721	86.16
788.897	86.61
789.074	88.98
789.25	90.74
789.427	91.25
789.603	91.1
789.78	90.17
789.956	86.86
790.133	87.32
790.309	86.53
790.486	85.66
790.662	86.77
790.839	88.02
791.015	87.49
791.192	90.74
791.368	88.01
791.544	86.5
791.721	86.94
791.897	86.96
792.073	86.74
792.249	88.75
792.426	87.05
792.602	87.71
792.778	86.84
792.954	84.28
793.13	83.57
793.307	85.88
793.483	84.54
793.659	84.61
793.835	83.84
794.011	85.71
794.187	85.79
794.363	89.87
794.539	90.11
794.715	91.39
794.891	87.81
795.067	85.71
795.243	82.03
795.419	85.25
795.595	83.92
795.771	85.1
795.947	85.08
796.122	83.1
796.298	78.85
796.474	78.99
796.65	78.85
796.826	81.46
797.001	80.95
797.177	82.84
797.353	82.81
797.529	83.54
797.704	82.46
797.88	86.05
798.056	86.24
798.231	88.02
798.407	95.78
798.582	95.02
798.758	94.3
798.934	98.96
799.109	95.86
799.285	87.65
799.46	87.96
799.636	85.08
799.811	83.81
799.986	88.45
800.162	88.83
800.337	90
800.513	96.73
800.688	92.89
800.863	89.77
801.039	87.73
801.214	85.91
801.389	82.75
801.565	83.63
801.74	83.97
801.915	89.74
802.09	91.49
802.265	92.3
802.441	93.75
802.616	90.94
802.791	88.09
802.966	88.12
803.141	82.82
803.316	77.73
803.491	77.04
803.666	73.56
803.841	73.89
804.016	77.04
804.191	78.37
804.366	79.01
804.541	82.21
804.716	81.77
804.891	83.3
805.066	82.83
805.241	85.26
805.416	85.45
805.591	80.64
805.765	77.64
805.94	80.74
806.115	80.4
806.29	79.69
806.464	83.04
806.639	81.5
806.814	82.21
806.989	79.58
807.163	84.72
807.338	88.05
807.512	95.22
807.687	95.99
807.862	93.04
808.036	84.39
808.211	86.61
808.385	82.76
808.56	76.02
808.734	75.73
808.909	82.32
809.083	78.26
809.258	78.14
809.432	85.54
809.606	86.21
809.781	82.9
809.955	81.38
810.13	75.64
810.304	71.32
810.478	69.55
810.652	71.81
810.827	67.4
811.001	76.26
811.175	77.62
811.349	85.15
811.524	80.9
811.698	87.52
811.872	88.8
812.046	88.46
812.22	86.87
812.394	89.8
812.568	93.74
812.742	91.32
812.916	83.19
813.09	83.03
813.264	77.08
813.438	73.66
813.612	72.64
813.786	80.91
813.96	79.37
814.134	88.98
814.308	91.83
814.482	91.54
814.656	86.88
814.83	85.97
815.003	84.28
815.177	83.63
815.351	74.47
815.525	74.81
815.698	75.34
815.872	68.69
816.046	65.79
816.219	72.81
816.393	79.26
816.567	82.04
816.74	83.35
816.914	85.62
817.088	86.21
817.261	91.08
817.435	87.62
817.608	84.69
817.782	84.66
817.955	75.33
818.129	68.21
818.302	67.08
818.475	74.85
818.649	74.86
818.822	95.83
818.996	106.98
819.169	110.11
819.342	96.98
819.516	94.54
819.689	89.45
819.862	80.36
820.035	80.45
820.209	80.05
820.382	87.98
820.555	75.88
820.728	76.95
820.901	74.27
821.075	79.18
821.248	69.99
821.421	74.16
821.594	76.82
821.767	77.19
821.94	86.06
822.113	91.24
822.286	96.07
822.459	90.4
822.632	90.28
822.805	82.94
822.978	81.3
823.151	91.08
823.324	96.29
823.496	89.13
823.669	70.31
823.842	71.55
824.015	66.21
824.188	54.92
824.361	69.14
824.533	77.77
824.706	83.91
824.879	68.6
825.051	77.47
825.224	78.1
825.397	90.7
825.569	84.67
825.742	92.05
825.915	93.59
826.087	92.93
826.26	78.7
826.432	89.05
826.605	87.64
826.777	83.26
826.95	81.66
827.122	87.55
827.295	76.65
827.467	71.51
827.64	62.78
827.812	64.84
827.984	67.15
828.157	63.83
828.329	66.95
828.501	74.91
828.674	63.56
828.846	54.67
829.018	65.74
829.19	72.43
829.363	67.05
829.535	65.44
829.707	76.78
829.879	77.45
830.051	76.87
830.223	93.36
830.395	108.01
830.568	88.32
830.74	78.99
830.912	74.75
831.084	67.28
831.256	72.99
831.428	77.22
831.6	86.17
831.772	81.23
831.943	77.57
832.115	67.18
832.287	74.24
832.459	67.23
832.631	65.96
832.803	72.72
832.975	78.25
833.146	74.63
833.318	66.34
833.49	67.71
833.662	70.83
833.833	71.36
834.005	66.25
834.177	86.21
834.348	86.18
834.52	67.28
834.692	75.53
834.863	68.18
835.035	79.15
835.206	83.99
835.378	92.48
835.549	84.64
835.721	96.12
835.892	72.22
836.064	67.02
836.235	72.95
836.407	69.71
836.578	67.08
836.749	63.26
836.921	64.8
837.092	61.04
837.264	67.73
837.435	62.38
837.606	78.31
837.777	77.35
837.949	63.88
838.12	71.53
838.291	75.58
838.462	93.65
838.633	116.59
838.805	113.82
838.976	86.43
839.147	80.82
839.318	71.62
839.489	83.41
839.66	96.58
839.831	86.5
840.002	75.24
840.173	69.04
840.344	28.57
840.515	18.57
840.686	51.96
840.857	67.86
841.028	62.94
841.199	114.65
841.369	108.78
841.54	86.97
841.711	98.81
841.882	103.33
842.053	83.01
842.223	82.21
842.394	78.47
842.565	60.32
842.736	31.01
842.906	31.6
843.077	43.02
843.248	43.53
843.418	56.52
843.589	67.83
843.759	65.12
843.93	80.58
844.101	75.52
844.271	60.39
844.442	47.43
844.612	62
844.783	57.88
844.953	49.21
845.123	56.83
845.294	75.98
845.464	54.65
845.635	52.05
845.805	62.11
845.975	57.24
846.146	73.28
846.316	88.16
846.486	93.09
846.656	88.43
846.827	86.48
846.997	72.61
847.167	73.38
847.337	78.59
847.507	70.76
847.677	85.21
847.848	95.83
848.018	118.2
848.188	110.79
848.358	104.25
848.528	95.59
848.698	59.96
848.868	41.13
849.038	40.74
849.208	58.77
849.378	19.96
849.548	22.35
849.718	18.78
849.887	4.26
850.057	0.67
850.227	22.09
850.397	26.2
850.567	30.67
850.737	66.8
850.906	45.34
851.076	41.05
851.246	66.27
851.415	55.33
851.585	41.51
851.755	139.82
851.924	124.29
852.094	92.56
852.264	96.14
852.433	120.63
852.603	75.35
852.772	57.84
852.942	60.8
853.111	59.47
853.281	59.37
853.45	57.13
853.62	64.53
853.789	53.94
853.959	53.47
854.128	46.49
854.297	41.74
854.467	18.6
854.636	-1.46
854.805	-18.8
854.975	-42.03
855.144	-4.75
855.313	35.25
855.482	75.81
855.652	95.41
855.821	73.82
855.99	42.27
856.159	47.98
856.328	59.23
856.497	54.93
856.667	81.57
856.836	107.77
857.005	78.43
857.174	48.22
857.343	30.17
857.512	47.55
857.681	51.5
857.85	52.36
858.019	61.61
858.188	52.68
858.356	45.81
858.525	50.68
858.694	78.4
858.863	60.92
859.032	88.31
859.201	67.89
859.369	68.52
859.538	89.92
859.707	81.24
859.876	52.37
860.044	79.47
860.213	81.78
860.382	43.77
860.55	80.9
860.719	85.66
860.888	96.33
861.056	107.56
861.225	152.01
861.393	141.62
861.562	181.6
861.73	195.54
861.899	137.2
862.067	100.52
862.236	97.85
862.404	91.7
862.572	67.19
862.741	57.84
862.909	58.72
863.078	51.4
863.246	41.39
863.414	43.75
863.582	88
863.751	76.21
863.919	78.15
864.087	86.35
864.255	81.82
864.424	42.29
864.592	63.03
864.76	74.99
864.928	87.18
865.096	85.81
865.264	93.25
865.432	86.75
865.6	68.47
865.768	54.48
865.936	53.51
866.104	67.14
866.272	51.26
866.44	57.9
866.608	66.61
866.776	71.67
866.944	67.88
867.112	58.87
867.28	57.89
867.448	26.78
867.615	8.61
867.783	-5.14
867.951	19.19
868.119	27.17
868.286	26.85
868.454	29.15
868.622	48.5
868.789	41.84
868.957	83.7
869.125	122.61
869.292	97.68
869.46	142.36
869.627	123.15
869.795	70.5
869.963	43.37
870.13	80.41
870.298	94.18
870.465	92.43
870.632	92.8
870.8	78.38
870.967	65.93
871.135	34.87
871.302	-17.42
871.469	14.36
871.637	51.5
871.804	43.01
871.971	78.58
872.139	41.56
872.306	58.35
872.473	30.28
872.64	37.48
872.807	30.57
872.975	96.87
873.142	82.71
873.309	130.08
873.476	88.36
873.643	53.15
873.81	18.77
873.977	2.73
874.144	15.17
874.311	23.02
874.478	54.25
874.645	76.99
874.812	98.28
874.979	85.87
875.146	91.86
875.313	86.15
875.48	75.81
875.647	97.94
875.813	90.93
875.98	67.4
876.147	49.31
876.314	57.3
876.481	35.18
876.647	51.19
876.814	48.66
876.981	59.2
877.147	58.56
877.314	85.49
877.481	84.87
877.647	111.63
877.814	87.48
877.98	69.78
878.147	-10.4
878.314	10.14
878.48	35.3
878.647	27.49
878.813	27.05
878.979	45.2
879.146	54.48
879.312	57.64
879.479	46.35
879.645	39.02
879.811	40.98
879.978	35.69
880.144	41.35
880.31	63.44
880.477	144.76
880.643	179.1
880.809	137.33
880.975	82.77
881.142	62.22
881.308	52.08
881.474	46.45
881.64	56.17
881.806	20.48
881.972	36.37
882.138	11.11
882.304	36.93
882.47	14.45
882.636	6.15
882.802	5.77
882.968	17.17
883.134	27.22
883.3	73.56
883.466	79.32
883.632	64.16
883.798	104.35
883.964	89.16
884.129	63.61
884.295	38.72
884.461	34.34
884.627	-7.2
884.793	-49.5
884.958	-49.41
885.124	-8.37
885.29	11.54
885.455	57.76
885.621	87.69
885.787	58.12
885.952	54.53
886.118	67.61
886.283	81.5
886.449	107.2
886.614	89.5
886.78	89.29
886.945	59.51
887.111	46.01
887.276	22.74
887.442	33.77
887.607	53.41
887.773	79.16
887.938	70.89
888.103	89.38
888.269	79.27
888.434	100.62
888.599	87.74
888.764	76.14
888.93	48.65
889.095	63.33
889.26	21.4
889.425	-11.34
889.59	-1.53
889.756	8.3
889.921	28.48
890.086	28.41
890.251	33.28
890.416	88.23
890.581	105.47
890.746	89.18
890.911	184.85
891.076	-185.21
891.241	60.94
891.406	132.7
891.571	-178
891.736	-9.31
891.901	-41.28
892.065	-86.95
892.23	44.62
892.395	33.79
892.56	248.92
892.725	60.35
892.889	54.93
893.054	15.4
893.219	40.07
893.384	24.2
893.548	21.69
893.713	21.83
893.878	37.12
