Data from Ofra_PS_Phys_0CX5_Reflection_2.txt Node
Date: Tue Jul 20 14:43:46 EDT 2021
User: USUARIO
Spectrometer: FLMT01687
Trigger mode: 0
Integration Time (sec): 1.200000E0
Scans to average: 2
Electric dark correction enabled: true
Nonlinearity correction enabled: false
Boxcar width: 2
XAxis mode: Wavelengths
Number of Pixels in Spectrum: 3648
>>>>>Begin Spectral Data<<<<<
179.494	-100.3
179.716	-419.7
179.937	1071.79
180.158	194.63
180.38	116.2
180.601	105.48
180.823	514.4
181.044	176.36
181.265	-22.22
181.486	-51.34
181.708	23.22
181.929	55.88
182.15	138.74
182.372	-661.79
182.593	119.36
182.814	573.33
183.035	-37.47
183.257	37.08
183.478	76.84
183.699	71.52
183.92	61.27
184.141	58.99
184.363	50.39
184.584	57.66
184.805	38.4
185.026	40.56
185.247	41.1
185.468	44.65
185.689	28.99
185.91	25.24
186.132	30.86
186.353	31.98
186.574	45.75
186.795	50.7
187.016	68.68
187.237	68.88
187.458	58.18
187.679	62.81
187.9	67.85
188.121	42.54
188.342	53.82
188.563	85.51
188.784	52.34
189.005	43.66
189.226	59.3
189.447	48.9
189.667	26.66
189.888	53.82
190.109	63.84
190.33	74.85
190.551	64.14
190.772	52.02
190.993	43.71
191.214	29.89
191.434	22.24
191.655	23.43
191.876	27.42
192.097	35.78
192.318	48.83
192.538	44.63
192.759	49.78
192.98	68.54
193.201	59.19
193.421	46.44
193.642	53.71
193.863	44.44
194.083	41.84
194.304	44.23
194.525	45.69
194.745	60.76
194.966	60.04
195.187	49.32
195.407	40.74
195.628	26.84
195.848	22.35
196.069	40.16
196.29	42.95
196.51	63.61
196.731	76.42
196.951	54.3
197.172	53.33
197.392	58.96
197.613	38.04
197.833	46.02
198.054	55.72
198.274	54.79
198.495	55.08
198.715	53.01
198.936	45.55
199.156	54.37
199.377	21.35
199.597	38.71
199.817	77.65
200.038	72.58
200.258	41.64
200.479	52.07
200.699	48.65
200.919	53.19
201.14	78.12
201.36	83.47
201.58	83.06
201.801	61.97
202.021	47.11
202.241	27.02
202.461	15.66
202.682	10.6
202.902	21.08
203.122	28.48
203.342	38.02
203.563	43.67
203.783	53.38
204.003	58.46
204.223	61.57
204.443	37.14
204.663	47.56
204.884	39.97
205.104	55.9
205.324	56.97
205.544	79.15
205.764	80.92
205.984	67.68
206.204	47.14
206.424	32.77
206.644	10.76
206.864	-11.84
207.084	12.27
207.304	11.29
207.525	22.86
207.745	26.69
207.964	33.24
208.184	40.66
208.404	32
208.624	35.38
208.844	39.43
209.064	34.81
209.284	15.35
209.504	33.71
209.724	23.13
209.944	39.62
210.164	41.84
210.384	64.73
210.604	46.43
210.823	51.01
211.043	45.4
211.263	44.53
211.483	36.71
211.703	48.7
211.922	52.19
212.142	55.86
212.362	48.86
212.582	42.66
212.801	45.09
213.021	38.4
213.241	30.56
213.461	27.97
213.68	30.57
213.9	41
214.12	36.93
214.339	35.53
214.559	24.45
214.779	35.68
214.998	37.82
215.218	38.7
215.438	53.44
215.657	71.11
215.877	44.47
216.096	36.21
216.316	37.68
216.535	30.7
216.755	29.69
216.974	38.67
217.194	51.41
217.413	56.3
217.633	46.69
217.852	64.5
218.072	64
218.291	53.29
218.511	43.64
218.73	27.2
218.95	28.62
219.169	27.07
219.389	24.2
219.608	25.61
219.827	51.75
220.047	34.83
220.266	35.43
220.485	31.98
220.705	36.59
220.924	38.34
221.143	42.74
221.363	47.29
221.582	46.39
221.801	26.26
222.021	34.67
222.24	37.21
222.459	24.14
222.678	27.07
222.897	39.12
223.117	25.39
223.336	19.23
223.555	6.49
223.774	4.22
223.993	7.64
224.213	22.61
224.432	40.75
224.651	53.72
224.87	43.18
225.089	56.21
225.308	54.46
225.527	32.79
225.746	26.69
225.965	32.17
226.184	24.66
226.404	23.52
226.623	33.07
226.842	30.61
227.061	43.1
227.28	47.35
227.499	48.66
227.718	52.09
227.936	67.42
228.155	66.67
228.374	67.54
228.593	63.66
228.812	59.19
229.031	53.83
229.25	39.32
229.469	31.11
229.688	30.64
229.907	32.86
230.125	35.19
230.344	35.18
230.563	31.93
230.782	18.8
231.001	11.49
231.22	15.81
231.438	16.58
231.657	24.97
231.876	52.16
232.095	57.31
232.313	61.67
232.532	63.39
232.751	58.6
232.969	42.51
233.188	29.11
233.407	17.16
233.625	-2.45
233.844	4.27
234.063	21.41
234.281	29.87
234.5	32.56
234.719	36.41
234.937	52.65
235.156	50.22
235.374	60.19
235.593	61.99
235.811	68.68
236.03	59.41
236.249	54.74
236.467	49.03
236.686	42.45
236.904	33.3
237.123	30.08
237.341	24.47
237.559	33.92
237.778	42.08
237.996	49.62
238.215	52.5
238.433	54.08
238.652	45.46
238.87	45.68
239.088	54.23
239.307	57.43
239.525	66.43
239.743	63.02
239.962	52.1
240.18	45.46
240.398	36.45
240.617	41.4
240.835	48.48
241.053	58.08
241.271	60.33
241.49	74.47
241.708	79.67
241.926	78.81
242.144	75.96
242.363	79.27
242.581	70.92
242.799	58.27
243.017	45.68
243.235	48.6
243.453	46.19
243.672	41.21
243.89	33.35
244.108	23.83
244.326	16.93
244.544	20.6
244.762	27.83
244.98	29.44
245.198	32.94
245.416	29
245.634	19.48
245.852	24.7
246.07	39.1
246.288	50.29
246.506	51.55
246.724	52.67
246.942	45.9
247.16	51.65
247.378	39.83
247.596	46.26
247.814	46.39
248.032	50.91
248.25	30.83
248.468	23.76
248.685	15.73
248.903	31.87
249.121	40.91
249.339	44.62
249.557	55.9
249.775	69.33
249.992	50.19
250.21	35.07
250.428	47
250.646	42.26
250.863	34.92
251.081	35.34
251.299	44.55
251.517	31.46
251.734	30.9
251.952	20.71
252.17	36.92
252.387	23.41
252.605	33.04
252.823	32.65
253.04	41.58
253.258	44.15
253.475	54.32
253.693	53.51
253.911	59.71
254.128	54.77
254.346	43.05
254.563	28.46
254.781	36.45
254.998	22.77
255.216	36.43
255.433	51.42
255.651	61.27
255.868	55.62
256.086	57.52
256.303	55.47
256.521	57.37
256.738	54.2
256.956	48.44
257.173	42.04
257.39	45.47
257.608	34.87
257.825	42.94
258.043	52.51
258.26	59.06
258.477	48.01
258.695	34.98
258.912	26
259.129	18.76
259.346	19.34
259.564	20.8
259.781	21.28
259.998	45.06
260.216	50.64
260.433	52.95
260.65	58.61
260.867	64.16
261.084	36.93
261.302	37.12
261.519	30.22
261.736	24.3
261.953	20.96
262.17	31.04
262.387	31.25
262.604	27.74
262.822	31.85
263.039	34.33
263.256	31.87
263.473	33.48
263.69	31.06
263.907	25.99
264.124	13.88
264.341	8.98
264.558	19.11
264.775	22.95
264.992	25.48
265.209	58.48
265.426	89.56
265.643	77.58
265.86	68.8
266.077	62.66
266.294	49.16
266.51	39.81
266.727	35.14
266.944	33.02
267.161	27.67
267.378	31.75
267.595	18.82
267.812	22.56
268.028	39.48
268.245	43.61
268.462	46.59
268.679	47.79
268.896	45.5
269.112	57.94
269.329	66.44
269.546	54.63
269.763	67.24
269.979	56.6
270.196	46.69
270.413	45.59
270.629	43.18
270.846	29.61
271.063	35.77
271.279	28.47
271.496	14.39
271.712	19.45
271.929	25.42
272.146	31.43
272.362	30.83
272.579	48.02
272.795	44.75
273.012	42.71
273.228	45.83
273.445	42.42
273.661	43.73
273.878	40.98
274.094	38.75
274.311	27.44
274.527	28.99
274.744	2.46
274.96	-1.25
275.177	-19.68
275.393	-32.34
275.609	-29.52
275.826	-4.13
276.042	4.19
276.259	17.86
276.475	27.88
276.691	37.97
276.908	39.1
277.124	62.96
277.34	55.86
277.557	55.25
277.773	50.33
277.989	62
278.205	53.44
278.422	62.99
278.638	64.75
278.854	64.44
279.07	45.37
279.286	40.99
279.503	29.45
279.719	27.99
279.935	22.03
280.151	27.79
280.367	36.66
280.583	36.84
280.799	50.07
281.016	61.31
281.232	67.88
281.448	60.68
281.664	69.42
281.88	56.73
282.096	55.53
282.312	52.19
282.528	47.98
282.744	45.92
282.96	42.39
283.176	39.04
283.392	30.43
283.608	32
283.824	35.64
284.04	34.83
284.256	45.96
284.471	53.96
284.687	50.96
284.903	56.1
285.119	66.86
285.335	71.68
285.551	67.7
285.767	67.36
285.982	68.8
286.198	57.62
286.414	38.15
286.63	47.95
286.846	35.57
287.061	34.51
287.277	36.23
287.493	45.12
287.709	47.28
287.924	66.36
288.14	53.22
288.356	52.29
288.571	44.56
288.787	32.33
289.003	22.53
289.218	23.1
289.434	20.83
289.65	26.88
289.865	22.67
290.081	36.89
290.296	20.97
290.512	23
290.727	15
290.943	27.87
291.159	18.45
291.374	27.73
291.59	16.17
291.805	16.52
292.021	-1.58
292.236	6.06
292.451	12.02
292.667	28.9
292.882	33.56
293.098	36.74
293.313	41
293.529	39.75
293.744	33.71
293.959	24.49
294.175	26.03
294.39	12.98
294.605	11.9
294.821	-3.14
295.036	17.06
295.251	34.84
295.467	36.84
295.682	35.19
295.897	41.78
296.112	34.59
296.328	13.93
296.543	7.23
296.758	4.74
296.973	0.37
297.188	2.97
297.404	13.36
297.619	17.21
297.834	18.34
298.049	26.14
298.264	33.68
298.479	50.99
298.694	53.62
298.909	59.56
299.125	80.19
299.34	60.22
299.555	54.42
299.77	49.67
299.985	38.54
300.2	17.31
300.415	8.45
300.63	-0.11
300.845	1.95
301.06	1.99
301.275	-0.14
301.49	22.55
301.704	41.74
301.919	49.3
302.134	57.95
302.349	50.64
302.564	50.59
302.779	43.52
302.994	31.02
303.209	26.52
303.423	24.14
303.638	17.49
303.853	14.37
304.068	28.44
304.283	23.87
304.497	36.86
304.712	37.12
304.927	31.68
305.142	28.39
305.356	28.61
305.571	20.8
305.786	19.27
306	23.72
306.215	16.06
306.43	33.68
306.644	41.35
306.859	47.3
307.074	44.47
307.288	45.72
307.503	34.48
307.717	35.66
307.932	32.85
308.147	18.92
308.361	33.81
308.576	27.52
308.79	30.45
309.005	22.17
309.219	31.95
309.434	21.84
309.648	29.39
309.863	15.39
310.077	27.18
310.292	27.56
310.506	16.24
310.72	21.22
310.935	40.66
311.149	32.07
311.364	38.97
311.578	55.95
311.792	53.07
312.007	41.79
312.221	44.19
312.435	43.05
312.649	34.42
312.864	14.47
313.078	25.64
313.292	1.61
313.507	3.81
313.721	-3.25
313.935	37.81
314.149	33.61
314.363	44.97
314.578	30.28
314.792	12.61
315.006	9.96
315.22	4.81
315.434	2.75
315.648	19.41
315.862	34.98
316.077	27.75
316.291	30.64
316.505	33.42
316.719	23.21
316.933	29.78
317.147	35.38
317.361	30.02
317.575	21.27
317.789	26.91
318.003	24.77
318.217	20.32
318.431	19.65
318.645	25.48
318.859	22.4
319.073	9.97
319.287	9.71
319.5	15.46
319.714	16.34
319.928	28.6
320.142	43.02
320.356	40.61
320.57	33.76
320.784	36.69
320.997	40.97
321.211	35.06
321.425	35.99
321.639	43.07
321.853	48.7
322.066	42.07
322.28	34.48
322.494	46.06
322.707	42.54
322.921	39.23
323.135	26.63
323.349	25.11
323.562	23.13
323.776	24.56
323.989	25.84
324.203	31.39
324.417	41.24
324.63	44.26
324.844	41.88
325.057	36.66
325.271	38.95
325.485	35.35
325.698	31.38
325.912	24.53
326.125	24.09
326.339	33.49
326.552	32.81
326.766	38.28
326.979	53
327.193	60
327.406	49.71
327.619	45.12
327.833	38.71
328.046	31.21
328.26	18.25
328.473	13.64
328.686	19.5
328.9	12.94
329.113	13.14
329.326	12.55
329.54	15.78
329.753	5.42
329.966	25.5
330.179	34.91
330.393	54.84
330.606	48.91
330.819	55.23
331.032	42.01
331.246	37.12
331.459	31.44
331.672	39.51
331.885	44.78
332.098	37.34
332.311	28.54
332.525	14.11
332.738	19.03
332.951	32.65
333.164	35.63
333.377	37.15
333.59	43.42
333.803	39.89
334.016	23.64
334.229	34.36
334.442	35.27
334.655	31.43
334.868	27.83
335.081	27.88
335.294	30.04
335.507	24.88
335.72	30.02
335.933	32.06
336.146	37.29
336.359	37.62
336.572	38.93
336.785	27.91
336.997	30.24
337.21	16.58
337.423	13.61
337.636	-4.45
337.849	9.7
338.062	12.41
338.274	26.26
338.487	25.83
338.7	33.42
338.913	21.65
339.125	18.06
339.338	5.48
339.551	3.68
339.763	2.78
339.976	27.95
340.189	31.19
340.402	38.4
340.614	38.9
340.827	37.62
341.039	31.87
341.252	40.24
341.465	42.74
341.677	48.94
341.89	55.94
342.102	46.14
342.315	49.89
342.527	52.07
342.74	45.77
342.952	45.63
343.165	42.84
343.377	34.81
343.59	22.19
343.802	22.08
344.015	32.05
344.227	48.99
344.44	56.06
344.652	65.84
344.864	69.86
345.077	62.03
345.289	59.54
345.502	59.39
345.714	59.74
345.926	56.3
346.139	55.99
346.351	44.55
346.563	39.57
346.775	37.54
346.988	32.69
347.2	26.44
347.412	22.78
347.624	30.7
347.837	27.74
348.049	26.38
348.261	28.23
348.473	39.3
348.685	35.57
348.897	39.73
349.11	41.51
349.322	45.71
349.534	38.96
349.746	39.62
349.958	39.16
350.17	38.38
350.382	29.58
350.594	29.8
350.806	30.15
351.018	31.22
351.23	27.51
351.442	30.27
351.654	30.17
351.866	22.59
352.078	25.52
352.29	17.91
352.502	20.84
352.714	16.75
352.926	17.23
353.138	16.14
353.35	19.33
353.561	17.08
353.773	14.4
353.985	13.6
354.197	5.89
354.409	8.25
354.621	10.09
354.832	23.09
355.044	23.95
355.256	26.84
355.468	28.05
355.679	17.95
355.891	16.5
356.103	11.69
356.314	9.37
356.526	22.01
356.738	41.44
356.949	43.67
357.161	50.17
357.373	60.02
357.584	49.14
357.796	42.13
358.008	36.66
358.219	28.53
358.431	20.98
358.642	29.51
358.854	25.07
359.065	26.21
359.277	26.25
359.488	26.25
359.7	28.93
359.911	24.19
360.123	24.75
360.334	24.86
360.546	21.02
360.757	14.85
360.969	19.5
361.18	25.79
361.391	32.12
361.603	39.3
361.814	38.34
362.025	43
362.237	42.55
362.448	45.45
362.659	42.45
362.871	38.92
363.082	37.49
363.293	39.63
363.504	22.63
363.716	13.56
363.927	4.72
364.138	9.32
364.349	5.48
364.56	11.22
364.772	6.73
364.983	14.79
365.194	11.52
365.405	13.39
365.616	17.44
365.827	22.2
366.038	24.98
366.25	23.81
366.461	26.89
366.672	33.07
366.883	34.34
367.094	47.26
367.305	48.68
367.516	39.05
367.727	34.66
367.938	35.2
368.149	18.58
368.36	14.01
368.571	15.54
368.781	13.06
368.992	10.44
369.203	14.96
369.414	10.06
369.625	26.82
369.836	28.68
370.047	30.78
370.258	31.05
370.468	33.79
370.679	22.03
370.89	19.61
371.101	24.34
371.312	16.16
371.522	25.61
371.733	32.55
371.944	32.67
372.155	33.24
372.365	33.14
372.576	23.67
372.787	14.13
372.997	22.12
373.208	18.36
373.419	27.8
373.629	34.68
373.84	50.22
374.05	42.5
374.261	47.05
374.472	37.16
374.682	34
374.893	28.59
375.103	27.12
375.314	23.45
375.524	23.45
375.735	22.72
375.945	25.41
376.156	31.21
376.366	26.96
376.577	33.12
376.787	33.3
376.997	26.29
377.208	22.59
377.418	22.43
377.629	24.12
377.839	27.76
378.049	35.16
378.26	27.68
378.47	25.66
378.68	35.05
378.89	25.04
379.101	15.24
379.311	20.05
379.521	21.93
379.732	7.35
379.942	3.05
380.152	3.1
380.362	2.79
380.572	4.83
380.783	18.71
380.993	36.47
381.203	37.12
381.413	37.19
381.623	33.37
381.833	27.68
382.043	26.62
382.253	17.41
382.463	17.37
382.674	17.93
382.884	20.03
383.094	19.03
383.304	30.21
383.514	30.35
383.724	35.28
383.934	34.06
384.144	36.7
384.353	27.51
384.563	28.74
384.773	27.19
384.983	31.46
385.193	25.15
385.403	28.35
385.613	26.76
385.823	25.46
386.033	21.02
386.242	23.18
386.452	21.72
386.662	19.34
386.872	19.61
387.082	15.88
387.291	13.57
387.501	18.42
387.711	17.86
387.921	18.67
388.13	19.68
388.34	19.16
388.55	17.21
388.759	18.67
388.969	15.84
389.179	14.65
389.388	16.85
389.598	11.88
389.807	11.42
390.017	11.51
390.227	12.5
390.436	9.92
390.646	11.67
390.855	12.06
391.065	11.14
391.274	11.54
391.484	13.45
391.693	12.38
391.903	11.27
392.112	13.25
392.322	12.7
392.531	11.66
392.74	11.1
392.95	9.93
393.159	8.41
393.369	8.98
393.578	6.87
393.787	6.87
393.997	6.85
394.206	7.3
394.415	8.27
394.625	8.33
394.834	8.16
395.043	8.21
395.252	6.98
395.462	5.66
395.671	5.45
395.88	6.01
396.089	5.36
396.298	5.29
396.508	5.7
396.717	6.14
396.926	5.63
397.135	5.6
397.344	5.41
397.553	5.15
397.762	4.54
397.971	4.6
398.181	4.46
398.39	4.75
398.599	3.74
398.808	3.81
399.017	4.14
399.226	4.24
399.435	4.31
399.644	4.34
399.853	4.96
400.062	4.49
400.27	4.18
400.479	3.89
400.688	4.55
400.897	4.01
401.106	4.41
401.315	4.65
401.524	4.56
401.733	4.23
401.941	4.48
402.15	4.26
402.359	4.36
402.568	4.61
402.777	4.48
402.985	4.37
403.194	3.94
403.403	4
403.612	3.77
403.82	3.57
404.029	3.36
404.238	3.74
404.446	3.61
404.655	3.62
404.864	3.82
405.072	3.96
405.281	3.89
405.489	4.02
405.698	3.89
405.906	3.85
406.115	3.74
406.324	3.59
406.532	3.43
406.741	3.41
406.949	3.36
407.158	3.53
407.366	3.58
407.574	3.61
407.783	3.66
407.991	3.67
408.2	3.61
408.408	3.73
408.617	3.55
408.825	3.67
409.033	3.81
409.242	3.56
409.45	3.48
409.658	3.48
409.867	3.4
410.075	3.28
410.283	3.39
410.491	3.31
410.7	3.39
410.908	3.51
411.116	3.44
411.324	3.5
411.533	3.49
411.741	3.47
411.949	3.37
412.157	3.36
412.365	3.29
412.573	3.43
412.781	3.39
412.99	3.46
413.198	3.6
413.406	3.57
413.614	3.44
413.822	3.32
414.03	3.22
414.238	3.09
414.446	3.1
414.654	2.97
414.862	3.17
415.07	3.15
415.278	3.04
415.486	3.14
415.694	3.21
415.902	3.11
416.109	3.09
416.317	3.25
416.525	3.18
416.733	3.24
416.941	3.25
417.149	3.2
417.357	3.28
417.564	3.18
417.772	3.14
417.98	3.1
418.188	3.1
418.395	3.06
418.603	3.08
418.811	3.15
419.019	3.25
419.226	3.35
419.434	3.26
419.642	3.27
419.849	3.15
420.057	3
420.265	2.93
420.472	2.96
420.68	3.01
420.887	3.01
421.095	3.06
421.302	3.13
421.51	3.08
421.717	2.86
421.925	2.77
422.132	2.85
422.34	2.77
422.547	2.77
422.755	2.91
422.962	3.01
423.17	2.95
423.377	2.75
423.585	2.63
423.792	2.55
423.999	2.56
424.207	2.5
424.414	2.77
424.621	2.73
424.829	2.74
425.036	2.69
425.243	2.73
425.451	2.69
425.658	2.76
425.865	2.92
426.072	2.87
426.28	2.88
426.487	2.89
426.694	2.9
426.901	2.65
427.108	2.72
427.315	2.68
427.523	2.63
427.73	2.72
427.937	2.91
428.144	2.88
428.351	3.07
428.558	3.13
428.765	3.24
428.972	3.18
429.179	3.18
429.386	3.12
429.593	3.16
429.8	3.02
430.007	2.99
430.214	3.16
430.421	3.17
430.628	3.04
430.835	2.94
431.042	2.97
431.249	2.84
431.456	2.66
431.662	2.69
431.869	2.84
432.076	2.94
432.283	2.95
432.49	3.16
432.697	3.14
432.903	3.03
433.11	2.89
433.317	3.03
433.524	2.88
433.73	2.87
433.937	2.87
434.144	2.97
434.35	2.86
434.557	2.87
434.764	2.92
434.97	2.97
435.177	2.93
435.384	2.99
435.59	2.98
435.797	2.98
436.003	2.94
436.21	2.92
436.416	2.88
436.623	2.93
436.829	2.91
437.036	2.85
437.242	2.8
437.449	2.69
437.655	2.67
437.862	2.69
438.068	2.79
438.275	2.9
438.481	3.03
438.687	2.97
438.894	3
439.1	3.05
439.307	3.12
439.513	3.11
439.719	3.22
439.926	3.24
440.132	3.21
440.338	3.14
440.544	3.14
440.751	3.1
440.957	3.12
441.163	3.1
441.369	3.13
441.575	3.1
441.782	3.14
441.988	3.14
442.194	3.13
442.4	3.13
442.606	3.11
442.812	3.09
443.018	3.02
443.224	3.05
443.431	3.02
443.637	2.95
443.843	2.93
444.049	3.01
444.255	2.98
444.461	3.04
444.667	3.12
444.873	3.19
445.079	3.14
445.284	3.18
445.49	3.21
445.696	3.21
445.902	3.19
446.108	3.27
446.314	3.21
446.52	3.17
446.726	3.21
446.931	3.24
447.137	3.24
447.343	3.35
447.549	3.32
447.755	3.34
447.96	3.36
448.166	3.34
448.372	3.27
448.578	3.36
448.783	3.35
448.989	3.37
449.195	3.32
449.4	3.39
449.606	3.32
449.812	3.31
450.017	3.27
450.223	3.31
450.428	3.28
450.634	3.31
450.84	3.29
451.045	3.27
451.251	3.22
451.456	3.24
451.662	3.21
451.867	3.21
452.073	3.28
452.278	3.38
452.483	3.39
452.689	3.43
452.894	3.37
453.1	3.33
453.305	3.29
453.51	3.22
453.716	3.19
453.921	3.29
454.127	3.29
454.332	3.28
454.537	3.19
454.742	3.22
454.948	3.18
455.153	3.21
455.358	3.24
455.563	3.31
455.769	3.34
455.974	3.33
456.179	3.26
456.384	3.23
456.589	3.23
456.795	3.1
457	3.1
457.205	3.13
457.41	3.15
457.615	3.1
457.82	3.19
458.025	3.22
458.23	3.12
458.435	3.07
458.64	3.05
458.845	3.08
459.05	3.01
459.255	3.17
459.46	3.24
459.665	3.28
459.87	3.27
460.075	3.36
460.28	3.26
460.485	3.2
460.69	3.32
460.895	3.3
461.099	3.34
461.304	3.41
461.509	3.51
461.714	3.41
461.919	3.39
462.123	3.33
462.328	3.41
462.533	3.37
462.738	3.43
462.942	3.43
463.147	3.46
463.352	3.33
463.556	3.37
463.761	3.31
463.966	3.29
464.17	3.28
464.375	3.41
464.58	3.33
464.784	3.34
464.989	3.43
465.193	3.47
465.398	3.41
465.602	3.49
465.807	3.57
466.011	3.53
466.216	3.49
466.42	3.48
466.625	3.43
466.829	3.37
467.034	3.35
467.238	3.43
467.443	3.45
467.647	3.45
467.851	3.49
468.056	3.57
468.26	3.49
468.464	3.56
468.669	3.57
468.873	3.69
469.077	3.65
469.282	3.69
469.486	3.64
469.69	3.76
469.894	3.73
470.099	3.75
470.303	3.76
470.507	3.77
470.711	3.73
470.915	3.75
471.119	3.78
471.324	3.84
471.528	3.85
471.732	3.82
471.936	3.76
472.14	3.8
472.344	3.73
472.548	3.74
472.752	3.8
472.956	3.79
473.16	3.89
473.364	3.83
473.568	3.84
473.772	3.89
473.976	3.9
474.18	3.89
474.384	4.03
474.588	3.99
474.792	3.89
474.995	4
475.199	3.92
475.403	3.9
475.607	3.97
475.811	4.04
476.015	4.03
476.218	4.04
476.422	4.06
476.626	4.1
476.83	4.15
477.033	4.11
477.237	4.14
477.441	4.15
477.644	4.12
477.848	4.07
478.052	4.12
478.255	4.11
478.459	4.07
478.663	4.1
478.866	4.13
479.07	4.1
479.273	4.13
479.477	4.18
479.681	4.27
479.884	4.31
480.088	4.28
480.291	4.29
480.495	4.29
480.698	4.25
480.901	4.27
481.105	4.38
481.308	4.37
481.512	4.35
481.715	4.4
481.919	4.46
482.122	4.44
482.325	4.5
482.529	4.55
482.732	4.47
482.935	4.39
483.138	4.34
483.342	4.31
483.545	4.28
483.748	4.33
483.952	4.35
484.155	4.4
484.358	4.45
484.561	4.5
484.764	4.49
484.967	4.52
485.171	4.54
485.374	4.52
485.577	4.57
485.78	4.57
485.983	4.59
486.186	4.56
486.389	4.62
486.592	4.56
486.795	4.59
486.998	4.56
487.201	4.63
487.404	4.6
487.607	4.61
487.81	4.61
488.013	4.62
488.216	4.55
488.419	4.47
488.622	4.44
488.825	4.39
489.028	4.37
489.231	4.41
489.433	4.49
489.636	4.53
489.839	4.61
490.042	4.64
490.245	4.62
490.447	4.6
490.65	4.61
490.853	4.56
491.056	4.53
491.258	4.55
491.461	4.55
491.664	4.52
491.866	4.55
492.069	4.6
492.272	4.64
492.474	4.69
492.677	4.71
492.879	4.76
493.082	4.78
493.285	4.79
493.487	4.75
493.69	4.78
493.892	4.7
494.095	4.66
494.297	4.63
494.5	4.71
494.702	4.72
494.905	4.76
495.107	4.79
495.309	4.82
495.512	4.75
495.714	4.78
495.917	4.84
496.119	4.88
496.321	4.89
496.524	4.96
496.726	4.9
496.928	4.92
497.13	4.91
497.333	4.97
497.535	4.96
497.737	5.02
497.939	5.04
498.142	5.07
498.344	5.01
498.546	5.06
498.748	5.08
498.95	5.07
499.152	5.09
499.355	5.14
499.557	5.11
499.759	5.12
499.961	5.1
500.163	5.11
500.365	5.18
500.567	5.21
500.769	5.23
500.971	5.21
501.173	5.2
501.375	5.11
501.577	5.13
501.779	5.17
501.981	5.22
502.183	5.25
502.385	5.33
502.587	5.33
502.788	5.31
502.99	5.33
503.192	5.34
503.394	5.35
503.596	5.36
503.798	5.41
503.999	5.44
504.201	5.48
504.403	5.51
504.605	5.51
504.806	5.57
505.008	5.58
505.21	5.56
505.411	5.55
505.613	5.66
505.815	5.66
506.016	5.7
506.218	5.76
506.42	5.77
506.621	5.75
506.823	5.78
507.024	5.79
507.226	5.85
507.427	5.86
507.629	5.9
507.83	5.92
508.032	5.92
508.233	5.93
508.435	5.99
508.636	6
508.838	5.96
509.039	5.95
509.24	5.96
509.442	5.97
509.643	5.99
509.845	6.05
510.046	6.14
510.247	6.17
510.448	6.17
510.65	6.2
510.851	6.21
511.052	6.22
511.254	6.24
511.455	6.3
511.656	6.3
511.857	6.35
512.058	6.4
512.26	6.39
512.461	6.42
512.662	6.5
512.863	6.49
513.064	6.52
513.265	6.53
513.466	6.56
513.667	6.55
513.868	6.55
514.069	6.55
514.27	6.59
514.471	6.61
514.672	6.62
514.873	6.7
515.074	6.68
515.275	6.71
515.476	6.73
515.677	6.73
515.878	6.77
516.079	6.81
516.28	6.78
516.481	6.76
516.682	6.79
516.882	6.71
517.083	6.71
517.284	6.76
517.485	6.82
517.686	6.84
517.886	6.84
518.087	6.85
518.288	6.83
518.488	6.79
518.689	6.8
518.89	6.8
519.091	6.81
519.291	6.87
519.492	6.93
519.692	6.98
519.893	7.07
520.094	7.12
520.294	7.13
520.495	7.15
520.695	7.16
520.896	7.22
521.096	7.23
521.297	7.25
521.497	7.25
521.698	7.25
521.898	7.22
522.099	7.23
522.299	7.3
522.499	7.35
522.7	7.37
522.9	7.38
523.101	7.42
523.301	7.4
523.501	7.4
523.702	7.41
523.902	7.42
524.102	7.46
524.302	7.43
524.503	7.42
524.703	7.46
524.903	7.43
525.103	7.42
525.304	7.42
525.504	7.45
525.704	7.43
525.904	7.48
526.104	7.51
526.304	7.57
526.504	7.59
526.705	7.62
526.905	7.69
527.105	7.67
527.305	7.68
527.505	7.68
527.705	7.69
527.905	7.67
528.105	7.68
528.305	7.7
528.505	7.68
528.705	7.75
528.905	7.79
529.105	7.81
529.304	7.85
529.504	7.91
529.704	7.91
529.904	7.95
530.104	8.02
530.304	8.06
530.503	8.06
530.703	8.02
530.903	8.07
531.103	8.09
531.303	8.14
531.502	8.14
531.702	8.22
531.902	8.22
532.101	8.22
532.301	8.17
532.501	8.24
532.7	8.27
532.9	8.27
533.1	8.28
533.299	8.33
533.499	8.35
533.698	8.36
533.898	8.4
534.097	8.45
534.297	8.5
534.496	8.52
534.696	8.59
534.895	8.6
535.095	8.66
535.294	8.64
535.494	8.66
535.693	8.61
535.892	8.69
536.092	8.65
536.291	8.67
536.491	8.74
536.69	8.84
536.889	8.8
537.088	8.91
537.288	8.97
537.487	9.05
537.686	9.05
537.886	9.05
538.085	9.03
538.284	9.09
538.483	9.03
538.682	9.08
538.882	9.15
539.081	9.19
539.28	9.19
539.479	9.24
539.678	9.27
539.877	9.32
540.076	9.34
540.275	9.37
540.474	9.34
540.673	9.36
540.872	9.36
541.071	9.4
541.27	9.44
541.469	9.52
541.668	9.58
541.867	9.65
542.066	9.74
542.265	9.76
542.464	9.78
542.663	9.78
542.862	9.82
543.06	9.84
543.259	9.89
543.458	9.95
543.657	10.06
543.856	10.18
544.054	10.27
544.253	10.35
544.452	10.48
544.651	10.49
544.849	10.47
545.048	10.45
545.247	10.51
545.445	10.48
545.644	10.56
545.843	10.62
546.041	10.72
546.24	10.73
546.438	10.77
546.637	10.81
546.836	10.91
547.034	10.98
547.233	11.05
547.431	11.14
547.63	11.2
547.828	11.2
548.027	11.28
548.225	11.37
548.423	11.33
548.622	11.38
548.82	11.52
549.019	11.6
549.217	11.68
549.415	11.87
549.614	11.95
549.812	11.97
550.01	12.02
550.209	12.04
550.407	12.11
550.605	12.12
550.803	12.23
551.002	12.28
551.2	12.34
551.398	12.44
551.596	12.52
551.794	12.54
551.993	12.65
552.191	12.81
552.389	12.87
552.587	13.03
552.785	13.12
552.983	13.18
553.181	13.22
553.379	13.36
553.577	13.48
553.775	13.55
553.973	13.65
554.171	13.74
554.369	13.78
554.567	13.84
554.765	13.89
554.963	13.95
555.161	14.05
555.359	14.11
555.557	14.2
555.755	14.34
555.952	14.47
556.15	14.52
556.348	14.64
556.546	14.72
556.744	14.81
556.941	14.86
557.139	14.94
557.337	15.05
557.535	15.15
557.732	15.24
557.93	15.38
558.128	15.53
558.325	15.6
558.523	15.71
558.721	15.86
558.918	15.94
559.116	16.06
559.313	16.18
559.511	16.3
559.708	16.38
559.906	16.46
560.104	16.63
560.301	16.81
560.498	16.9
560.696	17.02
560.893	17.12
561.091	17.15
561.288	17.23
561.486	17.3
561.683	17.37
561.88	17.56
562.078	17.71
562.275	17.82
562.473	17.98
562.67	18.11
562.867	18.21
563.064	18.32
563.262	18.31
563.459	18.44
563.656	18.56
563.853	18.68
564.051	18.73
564.248	18.94
564.445	19.01
564.642	19.08
564.839	19.13
565.036	19.25
565.234	19.36
565.431	19.37
565.628	19.54
565.825	19.64
566.022	19.76
566.219	19.92
566.416	20.1
566.613	20.27
566.81	20.37
567.007	20.47
567.204	20.46
567.401	20.58
567.598	20.53
567.795	20.6
567.991	20.72
568.188	20.86
568.385	20.85
568.582	20.99
568.779	21.08
568.976	21.09
569.172	21.17
569.369	21.29
569.566	21.4
569.763	21.46
569.96	21.54
570.156	21.51
570.353	21.64
570.55	21.64
570.746	21.71
570.943	21.84
571.14	21.97
571.336	22.01
571.533	22.03
571.729	22.04
571.926	22.03
572.123	22.09
572.319	22.15
572.516	22.23
572.712	22.38
572.909	22.44
573.105	22.46
573.302	22.41
573.498	22.4
573.695	22.37
573.891	22.41
574.087	22.46
574.284	22.54
574.48	22.64
574.677	22.64
574.873	22.65
575.069	22.63
575.266	22.66
575.462	22.6
575.658	22.71
575.854	22.71
576.051	22.73
576.247	22.71
576.443	22.77
576.639	22.75
576.835	22.84
577.032	22.81
577.228	22.89
577.424	22.95
577.62	22.9
577.816	22.86
578.012	22.9
578.208	22.86
578.404	22.83
578.6	22.89
578.796	22.88
578.993	22.93
579.189	22.87
579.384	22.82
579.58	22.91
579.776	22.91
579.972	22.95
580.168	23.02
580.364	23.07
580.56	23.06
580.756	23.01
580.952	22.88
581.148	22.8
581.343	22.78
581.539	22.65
581.735	22.64
581.931	22.72
582.127	22.74
582.322	22.84
582.518	22.77
582.714	22.82
582.909	22.82
583.105	22.82
583.301	22.72
583.496	22.77
583.692	22.71
583.888	22.67
584.083	22.66
584.279	22.56
584.474	22.58
584.67	22.52
584.866	22.47
585.061	22.48
585.257	22.49
585.452	22.57
585.648	22.62
585.843	22.66
586.039	22.67
586.234	22.74
586.429	22.68
586.625	22.76
586.82	22.74
587.015	22.74
587.211	22.71
587.406	22.67
587.601	22.58
587.797	22.66
587.992	22.63
588.187	22.71
588.383	22.7
588.578	22.67
588.773	22.56
588.968	22.59
589.163	22.5
589.359	22.55
589.554	22.55
589.749	22.6
589.944	22.61
590.139	22.77
590.334	22.7
590.529	22.75
590.724	22.81
590.919	22.82
591.114	22.77
591.309	22.94
591.504	23
591.699	23.08
591.894	23.07
592.089	23.11
592.284	23.1
592.479	23.19
592.674	23.23
592.869	23.31
593.064	23.36
593.259	23.4
593.454	23.35
593.648	23.31
593.843	23.37
594.038	23.46
594.233	23.63
594.428	23.76
594.622	23.97
594.817	24.05
595.012	24.07
595.206	24.05
595.401	24.12
595.596	24.15
595.79	24.24
595.985	24.34
596.18	24.37
596.374	24.42
596.569	24.52
596.763	24.65
596.958	24.79
597.153	24.95
597.347	25.06
597.542	25
597.736	25.01
597.931	24.99
598.125	25.02
598.319	25.13
598.514	25.23
598.708	25.38
598.903	25.53
599.097	25.55
599.291	25.56
599.486	25.7
599.68	25.73
599.874	25.75
600.069	25.8
600.263	25.89
600.457	25.96
600.651	26.03
600.846	26.11
601.04	26.19
601.234	26.15
601.428	26.08
601.622	26.04
601.817	26.07
602.011	26.09
602.205	26.3
602.399	26.42
602.593	26.54
602.787	26.54
602.981	26.5
603.175	26.43
603.369	26.36
603.563	26.29
603.757	26.31
603.951	26.33
604.145	26.29
604.339	26.28
604.533	26.27
604.727	26.16
604.921	26.18
605.115	26.08
605.309	26.18
605.502	26.18
605.696	26.27
605.89	26.16
606.084	26.16
606.278	26
606.471	25.95
606.665	25.81
606.859	25.85
607.053	25.84
607.246	25.83
607.44	25.77
607.634	25.66
607.827	25.56
608.021	25.46
608.214	25.4
608.408	25.38
608.602	25.39
608.795	25.37
608.989	25.26
609.182	25.18
609.376	25.09
609.569	25.04
609.763	25
609.956	25.03
610.15	24.89
610.343	24.84
610.537	24.72
610.73	24.63
610.923	24.56
611.117	24.46
611.31	24.31
611.504	24.2
611.697	24.15
611.89	24.09
612.083	24.06
612.277	24.04
612.47	23.9
612.663	23.81
612.856	23.74
613.05	23.69
613.243	23.57
613.436	23.65
613.629	23.53
613.822	23.39
614.015	23.32
614.209	23.34
614.402	23.22
614.595	23.23
614.788	23.14
614.981	23.1
615.174	23
615.367	22.97
615.56	22.83
615.753	22.86
615.946	22.75
616.139	22.67
616.332	22.6
616.525	22.57
616.718	22.42
616.911	22.36
617.103	22.34
617.296	22.25
617.489	22.12
617.682	22.12
617.875	22.05
618.067	21.98
618.26	21.94
618.453	21.99
618.646	21.89
618.838	21.89
619.031	21.82
619.224	21.81
619.417	21.81
619.609	21.83
619.802	21.7
619.994	21.67
620.187	21.53
620.38	21.46
620.572	21.38
620.765	21.53
620.957	21.5
621.15	21.52
621.342	21.42
621.535	21.47
621.727	21.39
621.92	21.27
622.112	21.21
622.305	21.16
622.497	21.17
622.69	21.12
622.882	21.19
623.074	21.21
623.267	21.31
623.459	21.2
623.651	21.1
623.844	21.13
624.036	21.18
624.228	21.12
624.42	21.05
624.613	21.11
624.805	21.06
624.997	20.9
625.189	20.88
625.381	20.97
625.574	20.89
625.766	20.87
625.958	20.96
626.15	20.91
626.342	20.86
626.534	20.78
626.726	20.6
626.918	20.54
627.11	20.45
627.302	20.35
627.494	20.36
627.686	20.45
627.878	20.46
628.07	20.47
628.262	20.42
628.454	20.38
628.646	20.32
628.838	20.32
629.029	20.31
629.221	20.32
629.413	20.28
629.605	20.24
629.797	20.16
629.989	20.09
630.18	20.05
630.372	20.01
630.564	19.97
630.755	19.87
630.947	19.82
631.139	19.72
631.33	19.63
631.522	19.64
631.714	19.58
631.905	19.56
632.097	19.57
632.289	19.64
632.48	19.64
632.672	19.6
632.863	19.54
633.055	19.5
633.246	19.39
633.438	19.39
633.629	19.45
633.821	19.46
634.012	19.52
634.203	19.52
634.395	19.38
634.586	19.33
634.777	19.28
634.969	19.13
635.16	19.14
635.351	19.22
635.543	19.18
635.734	19.27
635.925	19.28
636.117	19.32
636.308	19.26
636.499	19.21
636.69	19.09
636.881	19.16
637.073	19.09
637.264	19.05
637.455	19.05
637.646	19.06
637.837	18.94
638.028	18.92
638.219	18.97
638.41	18.91
638.601	18.87
638.792	18.95
638.983	18.94
639.174	18.84
639.365	18.82
639.556	18.79
639.747	18.77
639.938	18.7
640.129	18.74
640.32	18.76
640.511	18.69
640.701	18.62
640.892	18.62
641.083	18.61
641.274	18.55
641.465	18.62
641.655	18.6
641.846	18.54
642.037	18.46
642.228	18.47
642.418	18.39
642.609	18.25
642.8	18.23
642.99	18.17
643.181	18.19
643.372	18.19
643.562	18.33
643.753	18.3
643.943	18.28
644.134	18.18
644.324	18.18
644.515	18.12
644.705	18.08
644.896	18.02
645.086	18.06
645.277	17.95
645.467	17.84
645.658	17.88
645.848	17.79
646.038	17.75
646.229	17.83
646.419	17.82
646.61	17.77
646.8	17.83
646.99	17.83
647.18	17.79
647.371	17.76
647.561	17.64
647.751	17.6
647.941	17.52
648.132	17.48
648.322	17.5
648.512	17.65
648.702	17.64
648.892	17.58
649.082	17.51
649.272	17.41
649.462	17.24
649.653	17.21
649.843	17.24
650.033	17.23
650.223	17.23
650.413	17.27
650.603	17.37
650.793	17.39
650.983	17.46
651.172	17.34
651.362	17.24
651.552	17.04
651.742	16.96
651.932	16.84
652.122	16.93
652.312	16.9
652.502	16.86
652.691	16.77
652.881	16.66
653.071	16.53
653.261	16.43
653.45	16.3
653.64	16.22
653.83	16.09
654.019	15.93
654.209	15.86
654.399	15.77
654.588	15.69
654.778	15.64
654.968	15.63
655.157	15.58
655.347	15.45
655.536	15.26
655.726	15.04
655.915	14.95
656.105	14.73
656.294	14.58
656.484	14.36
656.673	14.35
656.863	14.23
657.052	14.17
657.241	14.05
657.431	13.95
657.62	13.82
657.809	13.45
657.999	13.23
658.188	13.12
658.377	13.02
658.567	12.73
658.756	12.67
658.945	12.44
659.134	12.24
659.324	12.01
659.513	11.81
659.702	11.56
659.891	11.52
660.08	11.32
660.269	11.2
660.458	11.09
660.648	10.99
660.837	10.67
661.026	10.46
661.215	10.28
661.404	10.06
661.593	9.85
661.782	9.74
661.971	9.63
662.16	9.54
662.349	9.48
662.538	9.4
662.726	9.32
662.915	9.28
663.104	9.06
663.293	8.9
663.482	8.71
663.671	8.55
663.86	8.34
664.048	8.24
664.237	8.17
664.426	8.11
664.615	7.98
664.803	7.9
664.992	7.75
665.181	7.61
665.369	7.6
665.558	7.56
665.747	7.49
665.935	7.5
666.124	7.45
666.312	7.29
666.501	7.18
666.69	7.09
666.878	6.99
667.067	6.87
667.255	6.79
667.444	6.77
667.632	6.74
667.82	6.71
668.009	6.72
668.197	6.67
668.386	6.6
668.574	6.49
668.762	6.41
668.951	6.47
669.139	6.53
669.327	6.46
669.516	6.53
669.704	6.5
669.892	6.42
670.08	6.36
670.269	6.38
670.457	6.28
670.645	6.24
670.833	6.19
671.021	6.17
671.21	6.19
671.398	6.32
671.586	6.39
671.774	6.48
671.962	6.45
672.15	6.51
672.338	6.45
672.526	6.49
672.714	6.46
672.902	6.6
673.09	6.59
673.278	6.71
673.466	6.7
673.654	6.77
673.842	6.74
674.03	6.72
674.218	6.71
674.405	6.68
674.593	6.66
674.781	6.72
674.969	6.82
675.157	6.86
675.344	7.02
675.532	7.01
675.72	7.05
675.908	7.03
676.095	7.1
676.283	7.04
676.471	7.22
676.658	7.29
676.846	7.43
677.033	7.49
677.221	7.58
677.409	7.6
677.596	7.64
677.784	7.6
677.971	7.49
678.159	7.65
678.346	7.74
678.534	7.79
678.721	7.9
678.909	8.12
679.096	8.24
679.283	8.28
679.471	8.43
679.658	8.57
679.846	8.69
680.033	8.82
680.22	8.95
680.408	9.01
680.595	9.18
680.782	9.23
680.969	9.24
681.157	9.4
681.344	9.51
681.531	9.7
681.718	9.89
681.905	10.05
682.093	10.07
682.28	10.18
682.467	10.31
682.654	10.45
682.841	10.73
683.028	11
683.215	11.25
683.402	11.34
683.589	11.58
683.776	11.54
683.963	11.69
684.15	11.96
684.337	12.22
684.524	12.51
684.711	12.84
684.898	13.19
685.085	13.57
685.271	13.81
685.458	14.07
685.645	14.46
685.832	14.75
686.019	14.96
686.205	15.28
686.392	15.52
686.579	15.8
686.766	16.12
686.952	16.38
687.139	16.8
687.326	17.17
687.512	17.54
687.699	17.95
687.886	18.41
688.072	18.79
688.259	19.39
688.445	19.85
688.632	20.41
688.818	20.94
689.005	21.5
689.191	21.89
689.378	22.54
689.564	23.01
689.751	23.47
689.937	24.08
690.124	24.7
690.31	25.25
690.496	25.82
690.683	26.44
690.869	26.97
691.055	27.51
691.242	27.92
691.428	28.58
691.614	29.35
691.8	29.94
691.987	30.52
692.173	31.19
692.359	31.93
692.545	32.48
692.731	33.13
692.918	33.87
693.104	34.77
693.29	35.4
693.476	35.97
693.662	36.76
693.848	37.52
694.034	37.97
694.22	38.57
694.406	39.35
694.592	39.78
694.778	40.27
694.964	41.11
695.15	41.76
695.336	42.65
695.522	43.53
695.708	44.39
695.894	44.85
696.08	45.51
696.265	45.7
696.451	46.18
696.637	46.77
696.823	47.6
697.009	48.29
697.194	49.04
697.38	49.65
697.566	50.12
697.751	50.58
697.937	50.94
698.123	51.55
698.308	52.48
698.494	53.05
698.68	53.63
698.865	54.37
699.051	54.97
699.236	55.22
699.422	55.82
699.607	56.44
699.793	56.87
699.978	57.33
700.164	58.11
700.349	58.66
700.535	59.11
700.72	59.61
700.906	60.25
701.091	60.52
701.276	60.72
701.462	61.21
701.647	61.49
701.832	61.7
702.018	61.96
702.203	62.61
702.388	62.89
702.573	63.46
702.759	63.88
702.944	64.1
703.129	64.54
703.314	64.93
703.499	65.45
703.684	65.88
703.87	66.4
704.055	66.62
704.24	66.82
704.425	66.72
704.61	67.02
704.795	67.22
704.98	67.67
705.165	68.1
705.35	68.8
705.535	69.35
705.72	69.83
705.905	70.08
706.09	70.52
706.275	70.89
706.459	70.97
706.644	71.32
706.829	71.64
707.014	71.92
707.199	72.08
707.384	72.19
707.568	72.4
707.753	72.62
707.938	72.53
708.123	72.86
708.307	73.11
708.492	73.6
708.677	73.86
708.861	74.02
709.046	74.16
709.231	74.65
709.415	74.99
709.6	74.96
709.784	75.64
709.969	75.86
710.153	75.63
710.338	75.73
710.522	76.23
710.707	76.49
710.891	76.84
711.076	77.13
711.26	77.18
711.445	77.29
711.629	77.05
711.813	76.99
711.998	77.57
712.182	77.53
712.366	77.37
712.551	77.74
712.735	78.1
712.919	77.98
713.103	78.37
713.288	78.49
713.472	78.63
713.656	78.26
713.84	78.13
714.024	77.87
714.208	78.04
714.393	77.84
714.577	77.94
714.761	78.32
714.945	78.59
715.129	79.09
715.313	79.32
715.497	79.59
715.681	79.86
715.865	79.91
716.049	79.71
716.233	79.83
716.417	79.74
716.601	79.52
716.785	79.67
716.968	79.86
717.152	80.34
717.336	81.18
717.52	81.52
717.704	82.01
717.888	82.17
718.071	81.57
718.255	81.04
718.439	81.12
718.622	80.91
718.806	80.95
718.99	81.57
719.174	82.08
719.357	82.25
719.541	82.36
719.724	82.49
719.908	82.44
720.092	82.13
720.275	81.91
720.459	81.57
720.642	81.76
720.826	82.1
721.009	81.96
721.193	82.1
721.376	82.52
721.559	82.39
721.743	82.65
721.926	83.01
722.11	82.92
722.293	83.03
722.476	83.01
722.66	82.59
722.843	82.75
723.026	82.8
723.21	82.45
723.393	82.77
723.576	83.12
723.759	82.93
723.942	83.34
724.126	83.7
724.309	83.35
724.492	83.12
724.675	83.56
724.858	83.11
725.041	82.99
725.224	83.24
725.407	83.32
725.59	83.05
725.774	83.64
725.957	84.28
726.14	84.48
726.322	84.83
726.505	85.43
726.688	85.91
726.871	85.77
727.054	85.72
727.237	85.82
727.42	85.61
727.603	85.45
727.786	85.36
727.968	85.31
728.151	84.95
728.334	85.22
728.517	85
728.699	84.55
728.882	84.69
729.065	84.8
729.248	84.97
729.43	84.98
729.613	85.7
729.796	86.43
729.978	86.91
730.161	86.5
730.343	86.43
730.526	86.5
730.708	85.62
730.891	85.41
731.073	85.75
731.256	86.46
731.438	86.73
731.621	87.38
731.803	87.89
731.986	87.42
732.168	87.06
732.35	86.63
732.533	86.11
732.715	85.46
732.898	86.49
733.08	86.51
733.262	86.67
733.444	87.75
733.627	87.73
733.809	87.25
733.991	86.95
734.173	87.84
734.355	87.17
734.538	87.46
734.72	87.77
734.902	87.9
735.084	87.07
735.266	87.08
735.448	87.38
735.63	87.12
735.812	87.62
735.994	88.12
736.176	88.22
736.358	88.99
736.54	88.9
736.722	88.57
736.904	87.83
737.086	87.59
737.268	86.78
737.45	87.3
737.632	87.59
737.814	87.86
737.995	88.37
738.177	88.44
738.359	88.13
738.541	88.07
738.723	87.74
738.904	87.75
739.086	87.89
739.268	88.19
739.449	88.15
739.631	88.43
739.813	88.21
739.994	88.34
740.176	87.05
740.358	87.67
740.539	87.78
740.721	87.7
740.902	87.42
741.084	88.83
741.265	88.23
741.447	88.45
741.628	88.52
741.81	89.12
741.991	88.97
742.172	89.41
742.354	89.31
742.535	89.73
742.717	88.9
742.898	89.2
743.079	88.76
743.261	88.51
743.442	88.2
743.623	88.29
743.804	87.58
743.986	87.18
744.167	88.16
744.348	88.79
744.529	88.51
744.71	88.78
744.891	90.36
745.073	90.77
745.254	90.25
745.435	90.69
745.616	90.82
745.797	89.34
745.978	88.8
746.159	88.97
746.34	88.72
746.521	88.38
746.702	88.43
746.883	87.74
747.064	87.88
747.245	87.66
747.426	88.21
747.606	88.64
747.787	88.76
747.968	88.77
748.149	89.35
748.33	89.54
748.51	89.58
748.691	89.62
748.872	89.09
749.053	89.01
749.233	88.92
749.414	88.49
749.595	89.5
749.775	89.68
749.956	88.77
750.137	87.88
750.317	88.93
750.498	88.3
750.678	88.2
750.859	89.1
751.04	89.69
751.22	89.29
751.4	89.14
751.581	89.84
751.761	91.67
751.942	92.56
752.122	91.75
752.303	91.75
752.483	91.67
752.663	90.26
752.844	89.08
753.024	89.92
753.204	90.15
753.385	90.03
753.565	88.14
753.745	88.53
753.925	88.12
754.106	87.6
754.286	87.53
754.466	87.95
754.646	87.72
754.826	88.2
755.006	87.67
755.187	87.2
755.367	88.49
755.547	88
755.727	87.89
755.907	88.4
756.087	88.19
756.267	88
756.447	88.99
756.627	88.11
756.807	87.27
756.987	87.27
757.167	86.61
757.346	87.13
757.526	87.16
757.706	89.31
757.886	89.74
758.066	90.19
758.246	89.21
758.425	89.59
758.605	88.66
758.785	88.23
758.965	89.62
759.144	88.85
759.324	88.23
759.504	88.4
759.683	89.15
759.863	87.45
760.043	87.82
760.222	88.62
760.402	88.17
760.581	86.53
760.761	86.15
760.94	86.41
761.12	85.51
761.299	85.56
761.479	87.6
761.658	87.95
761.838	88.37
762.017	88.01
762.197	85.95
762.376	84.04
762.555	83.93
762.735	83.22
762.914	84.82
763.093	87.46
763.273	88.67
763.452	89.11
763.631	88.31
763.81	87.12
763.99	87.03
764.169	86.52
764.348	85.51
764.527	85.67
764.706	85.47
764.885	85.2
765.064	84.48
765.243	85.53
765.423	86.36
765.602	87.1
765.781	86.89
765.96	87.67
766.139	87.95
766.318	87.79
766.497	87.54
766.676	88.01
766.854	88.43
767.033	89.05
767.212	89.37
767.391	88.71
767.57	87.75
767.749	86.29
767.928	84.61
768.106	84.3
768.285	84.98
768.464	85.23
768.643	85.25
768.821	84.94
769	84.57
769.179	83.63
769.357	82.34
769.536	82.87
769.715	83.25
769.893	83.55
770.072	83.85
770.25	84.75
770.429	86.6
770.607	86.86
770.786	85.25
770.964	85.59
771.143	85.58
771.321	83.89
771.5	85.21
771.678	85.85
771.857	87.88
772.035	87.21
772.213	87.94
772.392	86.33
772.57	87.79
772.748	86.37
772.927	86.52
773.105	86.63
773.283	86.71
773.461	85.63
773.64	84.14
773.818	85.29
773.996	83.56
774.174	83.34
774.352	81.3
774.531	82.55
774.709	81.4
774.887	81.06
775.065	82.41
775.243	83.61
775.421	81.7
775.599	81.87
775.777	82.53
775.955	80.51
776.133	82.17
776.311	84.11
776.489	83.47
776.667	83.48
776.844	86.92
777.022	85.56
777.2	86
777.378	86.15
777.556	87
777.734	83.05
777.911	82.81
778.089	82.38
778.267	82.97
778.445	81.57
778.622	83.9
778.8	86.03
778.978	86.21
779.155	87.15
779.333	88.65
779.511	88.09
779.688	87.05
779.866	86.94
780.043	85.5
780.221	85.73
780.398	84.49
780.576	84.13
780.753	81.94
780.931	84.64
781.108	84.49
781.286	86.81
781.463	86.12
781.64	86.16
781.818	83.95
781.995	82.04
782.172	81.73
782.35	83
782.527	83.24
782.704	80.91
782.882	82.3
783.059	79.21
783.236	78.98
783.413	79.48
783.59	85.05
783.768	83.58
783.945	83.1
784.122	82.83
784.299	84.29
784.476	79.57
784.653	81.46
784.83	84.85
785.007	84.18
785.184	81.24
785.361	82.35
785.538	83.42
785.715	82.23
785.892	84.02
786.069	84.43
786.246	85.18
786.423	82.56
786.6	83.16
786.776	80.81
786.953	82.85
787.13	81.93
787.307	81.43
787.484	80.41
787.66	82.05
787.837	83.04
788.014	84.79
788.191	83.59
788.367	80.24
788.544	81.26
788.721	78.44
788.897	74.7
789.074	74.08
789.25	77.29
789.427	76.82
789.603	81.6
789.78	83.14
789.956	87.74
790.133	87.53
790.309	88.94
790.486	86.03
790.662	87.26
790.839	84.57
791.015	83.48
791.192	80.54
791.368	77.89
791.544	78.12
791.721	79.6
791.897	80.31
792.073	77
792.249	80.88
792.426	80.45
792.602	79.37
792.778	78.55
792.954	83.11
793.13	80.5
793.307	80.05
793.483	81.81
793.659	84.6
793.835	83.35
794.011	81.62
794.187	81.73
794.363	80.59
794.539	80.84
794.715	83.74
794.891	83.94
795.067	83.72
795.243	87.43
795.419	85.43
795.595	84.19
795.771	86.45
795.947	91.87
796.122	85.43
796.298	87.88
796.474	86.49
796.65	85.35
796.826	79.99
797.001	80.94
797.177	76.06
797.353	74.04
797.529	73.5
797.704	75.36
797.88	77.37
798.056	78.95
798.231	85.29
798.407	91.63
798.582	89.68
798.758	89.24
798.934	90.16
799.109	85.75
799.285	84.28
799.46	86.91
799.636	88.08
799.811	88.11
799.986	85.34
800.162	81.05
800.337	77.79
800.513	75.5
800.688	74.98
800.863	77.1
801.039	79.76
801.214	84.48
801.389	88.48
801.565	87.14
801.74	86.69
801.915	82.67
802.09	77.82
802.265	76.48
802.441	76.49
802.616	76.17
802.791	83.65
802.966	86.54
803.141	82.48
803.316	84.46
803.491	86.68
803.666	80.13
803.841	75.78
804.016	78.29
804.191	77.31
804.366	76.78
804.541	76.59
804.716	80.02
804.891	80.61
805.066	82.36
805.241	80.03
805.416	81.04
805.591	75.67
805.765	76.5
805.94	74.74
806.115	76.49
806.29	75.54
806.464	86.36
806.639	81.34
806.814	84.18
806.989	81.58
807.163	79.75
807.338	75.86
807.512	77.02
807.687	75.33
807.862	78.89
808.036	85.84
808.211	81.94
808.385	83.13
808.56	87.57
808.734	78.77
808.909	76.28
809.083	75.35
809.258	74.52
809.432	71.58
809.606	78.2
809.781	76.56
809.955	78.44
810.13	80.25
810.304	76.53
810.478	77.16
810.652	74.02
810.827	74.79
811.001	78.34
811.175	85.54
811.349	83.72
811.524	86.11
811.698	80.54
811.872	75.79
812.046	71.26
812.22	74.03
812.394	75
812.568	88.73
812.742	89.03
812.916	87.22
813.09	81.57
813.264	85.34
813.438	77.86
813.612	82.33
813.786	86.36
813.96	96.81
814.134	96.38
814.308	104.4
814.482	91.36
814.656	90.37
814.83	82.09
815.003	83.91
815.177	75.53
815.351	82.33
815.525	78.25
815.698	85.25
815.872	82.43
816.046	82.04
816.219	81.29
816.393	84.75
816.567	85.17
816.74	80.71
816.914	88.05
817.088	93.52
817.261	86.46
817.435	79.01
817.608	83.49
817.782	81.5
817.955	77.84
818.129	85.99
818.302	88.84
818.475	78.54
818.649	84.69
818.822	78.09
818.996	77.31
819.169	76.1
819.342	84.88
819.516	77.59
819.689	73.71
819.862	63.38
820.035	64.15
820.209	60.77
820.382	62.47
820.555	71.2
820.728	77.84
820.901	78.77
821.075	69.23
821.248	63.26
821.421	64.92
821.594	68.27
821.767	68.05
821.94	76.37
822.113	79.85
822.286	86.3
822.459	84.75
822.632	88.83
822.805	81.29
822.978	81.15
823.151	67.74
823.324	72.28
823.496	67.53
823.669	70.7
823.842	73.71
824.015	71.89
824.188	65.17
824.361	64.06
824.533	57.97
824.706	55.11
824.879	66.7
825.051	69.75
825.224	70.82
825.397	74.52
825.569	74.92
825.742	80.71
825.915	82.3
826.087	85.96
826.26	89.57
826.432	92.79
826.605	85.18
826.777	84.19
826.95	84.32
827.122	79.73
827.295	73.45
827.467	73.4
827.64	70.39
827.812	70.28
827.984	78.79
828.157	81.69
828.329	74.68
828.501	69.93
828.674	71.43
828.846	66.63
829.018	69
829.19	60.2
829.363	69.08
829.535	59.53
829.707	65.32
829.879	63.55
830.051	74.3
830.223	68.44
830.395	77.41
830.568	67.97
830.74	70.6
830.912	74.56
831.084	69.15
831.256	69.56
831.428	66.45
831.6	57.96
831.772	68.46
831.943	76.65
832.115	77.41
832.287	86.65
832.459	80.37
832.631	65.31
832.803	52.91
832.975	59.75
833.146	52.64
833.318	63.39
833.49	75.92
833.662	86.24
833.833	75.55
834.005	79.03
834.177	79.82
834.348	74.86
834.52	73.78
834.692	78.69
834.863	85.25
835.035	97.06
835.206	97.55
835.378	97.55
835.549	90.89
835.721	83.39
835.892	73.98
836.064	64.61
836.235	56.88
836.407	56.54
836.578	66.71
836.749	60.81
836.921	57.42
837.092	66.17
837.264	67.12
837.435	56.08
837.606	74.71
837.777	97.75
837.949	105.97
838.12	96.08
838.291	92.34
838.462	71.11
838.633	52.29
838.805	53.85
838.976	53.99
839.147	65.4
839.318	64.01
839.489	75
839.66	67.42
839.831	65.38
840.002	60.03
840.173	64.59
840.344	60.25
840.515	49.8
840.686	44.68
840.857	47.62
841.028	43.95
841.199	42.87
841.369	81.4
841.54	86.03
841.711	89.57
841.882	101.85
842.053	103.6
842.223	85.38
842.394	83.92
842.565	77.77
842.736	78.05
842.906	93.87
843.077	86.77
843.248	91.3
843.418	87.93
843.589	78.88
843.759	67.16
843.93	67.93
844.101	75.96
844.271	80.53
844.442	90.44
844.612	84.7
844.783	89.28
844.953	79.56
845.123	80.74
845.294	83.1
845.464	82.93
845.635	89.2
845.805	82.47
845.975	77.47
846.146	57.49
846.316	61.2
846.486	49.28
846.656	52.64
846.827	55.81
846.997	60.89
847.167	63.78
847.337	83.62
847.507	78.18
847.677	73.74
847.848	79.66
848.018	83.56
848.188	74.83
848.358	83.53
848.528	88.26
848.698	87.46
848.868	81.3
849.038	77.06
849.208	79.79
849.378	72.15
849.548	62.87
849.718	64.2
849.887	60.24
850.057	63.38
850.227	73.26
850.397	67.07
850.567	77.21
850.737	63.24
850.906	63.94
851.076	68.76
851.246	110.02
851.415	89.42
851.585	105.21
851.755	90.36
851.924	66.39
852.094	35.02
852.264	48.1
852.433	58.16
852.603	38.84
852.772	62.43
852.942	72.43
853.111	60.58
853.281	58.38
853.45	70.1
853.62	57.26
853.789	50.15
853.959	68.69
854.128	68.94
854.297	72.44
854.467	75.61
854.636	61.3
854.805	64.12
854.975	54
855.144	48.99
855.313	43.13
855.482	61.48
855.652	28.53
855.821	39.93
855.99	46.49
856.159	51.59
856.328	50.32
856.497	60.57
856.667	74.82
856.836	75.58
857.005	77.69
857.174	70.11
857.343	70.9
857.512	49.78
857.681	51.08
857.85	60.62
858.019	63.64
858.188	64
858.356	76.2
858.525	56.06
858.694	53.28
858.863	62.65
859.032	68.72
859.201	76.73
859.369	93.18
859.538	103.06
859.707	121.92
859.876	123.41
860.044	116.01
860.213	112.14
860.382	92
860.55	86.64
860.719	65.75
860.888	83.28
861.056	89.99
861.225	77.91
861.393	68.28
861.562	50.41
861.73	15.96
861.899	12.18
862.067	34.28
862.236	48
862.404	52.63
862.572	49.71
862.741	57.62
862.909	71.59
863.078	74.76
863.246	71.92
863.414	94.71
863.582	65.28
863.751	54.65
863.919	35.3
864.087	51.86
864.255	45.51
864.424	86.8
864.592	81.46
864.76	72.48
864.928	195.7
865.096	171.5
865.264	185.29
865.432	216.76
865.6	157.96
865.768	76.26
865.936	69.65
866.104	99.49
866.272	94.72
866.44	53.72
866.608	64.19
866.776	44.04
866.944	21.6
867.112	37.4
867.28	77.94
867.448	83.47
867.615	106.91
867.783	97.09
867.951	105.09
868.119	96.38
868.286	91.5
868.454	64.6
868.622	56.31
868.789	54.8
868.957	77.62
869.125	72.32
869.292	87.49
869.46	102.66
869.627	100.74
869.795	74.64
869.963	73.07
870.13	58.17
870.298	43.51
870.465	49.58
870.632	58.85
870.8	53.25
870.967	60.21
871.135	61.37
871.302	61.36
871.469	38.74
871.637	67.9
871.804	210.54
871.971	150.22
872.139	141.62
872.306	126.66
872.473	93.79
872.64	66.28
872.807	68.93
872.975	67.83
873.142	49.68
873.309	72.08
873.476	145.89
873.643	173.74
873.81	107
873.977	118.86
874.144	84.24
874.311	64.06
874.478	61.63
874.645	82.46
874.812	94.24
874.979	106.53
875.146	83.76
875.313	90.19
875.48	83.07
875.647	72.03
875.813	72.22
875.98	71.63
876.147	72.25
876.314	76.68
876.481	73.14
876.647	84.73
876.814	91.96
876.981	84.69
877.147	63.24
877.314	73.83
877.481	88.63
877.647	116.03
877.814	143.03
877.98	139.24
878.147	129.59
878.314	90.06
878.48	86.14
878.647	87.25
878.813	90.6
878.979	83.12
879.146	66.02
879.312	73.19
879.479	43.41
879.645	24.38
879.811	28.86
879.978	55.63
880.144	36.18
880.31	44.61
880.477	54.78
880.643	71.55
880.809	48.27
880.975	64.06
881.142	40.53
881.308	49.51
881.474	15.86
881.64	94
881.806	83.85
881.972	113.93
882.138	110.34
882.304	165.44
882.47	135.11
882.636	332.67
882.802	288.43
882.968	657.61
883.134	269.58
883.3	274.02
883.466	149.58
883.632	184.39
883.798	161.37
883.964	82.05
884.129	30.64
884.295	42.63
884.461	19.84
884.627	40.78
884.793	61.01
884.958	103.9
885.124	122.76
885.29	111.7
885.455	53.45
885.621	35.59
885.787	42.03
885.952	22.96
886.118	5.83
886.283	58.73
886.449	52.21
886.614	52.96
886.78	62.98
886.945	69.94
887.111	50.12
887.276	44.08
887.442	37.57
887.607	35.41
887.773	42.42
887.938	47.88
888.103	36.8
888.269	32.98
888.434	51.27
888.599	48.31
888.764	79.73
888.93	92.45
889.095	108.13
889.26	111.85
889.425	90.47
889.59	70.76
889.756	65.42
889.921	53.87
890.086	47.24
890.251	44.71
890.416	61.79
890.581	87.07
890.746	97.44
890.911	125.78
891.076	116.94
891.241	73.22
891.406	66.75
891.571	56.34
891.736	65.35
891.901	65.17
892.065	105.53
892.23	117.14
892.395	94.04
892.56	83.27
892.725	124.94
892.889	106.45
893.054	101.87
893.219	90.1
893.384	59.16
893.548	33.75
893.713	34.54
893.878	16.05
