Data from Ofra_PS_Phys_2CX10_Reflection_1.txt Node
Date: Tue Jul 20 14:47:17 EDT 2021
User: USUARIO
Spectrometer: FLMT01687
Trigger mode: 0
Integration Time (sec): 1.200000E0
Scans to average: 2
Electric dark correction enabled: true
Nonlinearity correction enabled: false
Boxcar width: 2
XAxis mode: Wavelengths
Number of Pixels in Spectrum: 3648
>>>>>Begin Spectral Data<<<<<
179.494	-32.73
179.716	3.03
179.937	519.49
180.158	107.22
180.38	123.78
180.601	95.38
180.823	258.85
181.044	100.47
181.265	5.71
181.486	324.52
181.708	-231.84
181.929	100.39
182.15	62.68
182.372	-181.3
182.593	73.25
182.814	4593.33
183.035	18.73
183.257	34.16
183.478	42.41
183.699	62.11
183.92	50.58
184.141	67.49
184.363	59.36
184.584	44.89
184.805	37.92
185.026	34.79
185.247	31.13
185.468	29.59
185.689	52.93
185.91	46.91
186.132	55.06
186.353	50.84
186.574	50.93
186.795	33.28
187.016	45.54
187.237	47.09
187.458	49.47
187.679	58.99
187.9	70.04
188.121	45.65
188.342	53.87
188.563	61.12
188.784	35.82
189.005	37.24
189.226	48.78
189.447	18.16
189.667	24.21
189.888	36.77
190.109	19.06
190.33	17.46
190.551	32.51
190.772	25.02
190.993	24.59
191.214	31.84
191.434	39.03
191.655	39.08
191.876	49.75
192.097	44.78
192.318	43.56
192.538	49.37
192.759	51.22
192.98	42.15
193.201	41.75
193.421	32.74
193.642	32.1
193.863	23.16
194.083	26.65
194.304	34.73
194.525	27.84
194.745	38.59
194.966	42.65
195.187	26.29
195.407	3.12
195.628	16.76
195.848	-2.68
196.069	-1.38
196.29	2.61
196.51	25.57
196.731	15.22
196.951	11.56
197.172	11.65
197.392	18.1
197.613	6.44
197.833	18.25
198.054	18.87
198.274	17.06
198.495	11.25
198.715	-4.67
198.936	4.21
199.156	5.84
199.377	-25.7
199.597	20.09
199.817	39.31
200.038	-5.99
200.258	-5.07
200.479	18.15
200.699	-2.36
200.919	-2.77
201.14	33.16
201.36	40.63
201.58	41.49
201.801	53.14
202.021	50.17
202.241	46.74
202.461	40.34
202.682	40.02
202.902	27.8
203.122	23.97
203.342	21.61
203.563	20.95
203.783	17.67
204.003	26.6
204.223	48.92
204.443	40.73
204.663	41.8
204.884	71.17
205.104	82.51
205.324	63.5
205.544	73.36
205.764	65.31
205.984	29.33
206.204	6.24
206.424	24.01
206.644	20.63
206.864	19.22
207.084	20.58
207.304	25.68
207.525	7.27
207.745	6.74
207.964	14.54
208.184	35.72
208.404	29.59
208.624	42.65
208.844	31.89
209.064	25.46
209.284	25.02
209.504	30.17
209.724	13.91
209.944	44.53
210.164	59.72
210.384	72.74
210.604	65.56
210.823	55.79
211.043	52.08
211.263	34.33
211.483	23.37
211.703	22.77
211.922	38.31
212.142	30.33
212.362	27.27
212.582	8.14
212.801	15.65
213.021	16.96
213.241	24.66
213.461	30.86
213.68	49.96
213.9	44.27
214.12	38.01
214.339	24.74
214.559	19.67
214.779	22.67
214.998	25.43
215.218	18.32
215.438	30.83
215.657	46.94
215.877	41.88
216.096	37.72
216.316	37.21
216.535	20.33
216.755	27.83
216.974	23.22
217.194	32.92
217.413	36.73
217.633	52.87
217.852	55.87
218.072	62.6
218.291	73.23
218.511	69.47
218.73	48.91
218.95	43.1
219.169	38.82
219.389	16.38
219.608	16.75
219.827	32.43
220.047	24.63
220.266	18.29
220.485	17.79
220.705	20.8
220.924	19.54
221.143	30.16
221.363	41.13
221.582	46
221.801	24.31
222.021	16.93
222.24	11.51
222.459	16.58
222.678	9.33
222.897	19.16
223.117	11.67
223.336	-2.39
223.555	-33.74
223.774	-15.48
223.993	9.54
224.213	29.34
224.432	56.16
224.651	59.45
224.87	50.66
225.089	43.86
225.308	76.51
225.527	65.61
225.746	65.25
225.965	53.74
226.184	58.44
226.404	27.98
226.623	36.63
226.842	35.92
227.061	39.99
227.28	52.11
227.499	53.19
227.718	64.41
227.936	70.82
228.155	70.42
228.374	55.62
228.593	45.4
228.812	35.64
229.031	26.27
229.25	19.91
229.469	19.64
229.688	22.2
229.907	22.65
230.125	23.86
230.344	17.64
230.563	22.38
230.782	6.4
231.001	13.34
231.22	34.57
231.438	64.43
231.657	67.02
231.876	98.37
232.095	91.77
232.313	71.99
232.532	61.83
232.751	66.61
232.969	52.72
233.188	52.38
233.407	45.65
233.625	24.31
233.844	16.73
234.063	16.4
234.281	12.23
234.5	25.15
234.719	29.68
234.937	28.95
235.156	51.72
235.374	58.85
235.593	51.67
235.811	49.91
236.03	45.56
236.249	28.14
236.467	32.12
236.686	21.92
236.904	24.87
237.123	21.37
237.341	25.09
237.559	15.78
237.778	33.6
237.996	46.92
238.215	54.4
238.433	44.99
238.652	39.22
238.87	24.85
239.088	14.25
239.307	21.53
239.525	30.8
239.743	47.51
239.962	40.21
240.18	36.27
240.398	29.58
240.617	21.86
240.835	19
241.053	26.93
241.271	43.41
241.49	44.67
241.708	56.36
241.926	57.53
242.144	63.75
242.363	67.44
242.581	68.57
242.799	68.32
243.017	57.27
243.235	47.16
243.453	30.98
243.672	18.21
243.89	11.86
244.108	17
244.326	12.24
244.544	21.27
244.762	34.92
244.98	26.42
245.198	22.46
245.416	28.48
245.634	31.42
245.852	47.08
246.07	59.19
246.288	58.71
246.506	57.47
246.724	56.91
246.942	36.73
247.16	40.44
247.378	39.36
247.596	33.76
247.814	29.34
248.032	28.84
248.25	27.48
248.468	26.14
248.685	22.05
248.903	26.71
249.121	30.76
249.339	9.14
249.557	4.04
249.775	15.89
249.992	-2.14
250.21	-5.28
250.428	16.92
250.646	24.67
250.863	20.62
251.081	36.52
251.299	46.99
251.517	54.24
251.734	41.79
251.952	29.68
252.17	21.92
252.387	13.98
252.605	7.82
252.823	4.78
253.04	20.83
253.258	22.12
253.475	27.82
253.693	33.55
253.911	41.29
254.128	48.23
254.346	44.08
254.563	30.29
254.781	29.64
254.998	36.73
255.216	30.56
255.433	36.49
255.651	46.54
255.868	44.3
256.086	34.99
256.303	31.82
256.521	39.9
256.738	31.59
256.956	23.3
257.173	29.16
257.39	33.11
257.608	7.72
257.825	5.69
258.043	3.05
258.26	-4.26
258.477	-5.24
258.695	2.55
258.912	21.93
259.129	19.1
259.346	26.04
259.564	9.27
259.781	6.07
259.998	27.25
260.216	41.4
260.433	51.96
260.65	60.35
260.867	55.5
261.084	26.23
261.302	20.65
261.519	-11.5
261.736	-0.8
261.953	22.75
262.17	47.55
262.387	51.17
262.604	59.66
262.822	60.36
263.039	42.96
263.256	27.23
263.473	21.68
263.69	23.16
263.907	14.42
264.124	19.82
264.341	23.17
264.558	22.59
264.775	27.92
264.992	31.13
265.209	40.53
265.426	50.27
265.643	53.12
265.86	39.45
266.077	40.76
266.294	21.18
266.51	19
266.727	25.18
266.944	24.92
267.161	22.02
267.378	35.49
267.595	34.11
267.812	28.62
268.028	42.28
268.245	43.36
268.462	32.31
268.679	26.09
268.896	16.75
269.112	30.11
269.329	33.87
269.546	28.56
269.763	29.92
269.979	39.09
270.196	23.32
270.413	28.7
270.629	24.91
270.846	23.61
271.063	23.39
271.279	21.04
271.496	10.72
271.712	26.81
271.929	42.12
272.146	38.48
272.362	32.9
272.579	34.61
272.795	32.45
273.012	21.41
273.228	26.45
273.445	31.51
273.661	37.83
273.878	31.16
274.094	27.77
274.311	11.5
274.527	7.27
274.744	-17.11
274.96	-10.54
275.177	-4.02
275.393	2.43
275.609	14.25
275.826	33.33
276.042	34.46
276.259	33.13
276.475	44.47
276.691	45.26
276.908	51.69
277.124	59.37
277.34	64.26
277.557	54.27
277.773	41.8
277.989	38.16
278.205	37.47
278.422	30.24
278.638	33.38
278.854	48
279.07	38.63
279.286	40.48
279.503	40.41
279.719	34.25
279.935	24.63
280.151	26.17
280.367	27.97
280.583	24.63
280.799	22.63
281.016	36.46
281.232	36.93
281.448	24.53
281.664	29.34
281.88	39.52
282.096	36.7
282.312	40.4
282.528	51.45
282.744	48.02
282.96	32.52
283.176	31.79
283.392	34.07
283.608	21.45
283.824	17.98
284.04	29.06
284.256	30.21
284.471	16.54
284.687	26.89
284.903	19.42
285.119	14.57
285.335	19.11
285.551	30.65
285.767	14.64
285.982	25.36
286.198	24.65
286.414	24.94
286.63	27.46
286.846	28.79
287.061	39.71
287.277	39.88
287.493	40.02
287.709	39.61
287.924	42.2
288.14	40.26
288.356	51.05
288.571	48.43
288.787	39.71
289.003	41.95
289.218	32.42
289.434	22.71
289.65	16.63
289.865	25.69
290.081	30.79
290.296	24.04
290.512	24.27
290.727	30.01
290.943	32.14
291.159	28.01
291.374	41.03
291.59	38.67
291.805	28.86
292.021	17.01
292.236	18.16
292.451	27.45
292.667	30.46
292.882	34.25
293.098	40.48
293.313	52.24
293.529	38.46
293.744	32.77
293.959	34.34
294.175	30.62
294.39	23.2
294.605	33.58
294.821	41.86
295.036	48.16
295.251	53.59
295.467	53.67
295.682	44.13
295.897	46.06
296.112	33.91
296.328	35.08
296.543	19.39
296.758	29.55
296.973	30.02
297.188	38.45
297.404	26.59
297.619	25.08
297.834	30.02
298.049	27.87
298.264	20.19
298.479	36.86
298.694	54.14
298.909	38.48
299.125	45.83
299.34	42.62
299.555	37.59
299.77	33.45
299.985	31.07
300.2	17.08
300.415	25.2
300.63	21.97
300.845	12.17
301.06	20.48
301.275	26.92
301.49	15.94
301.704	22.06
301.919	27.23
302.134	29.15
302.349	26.68
302.564	37.71
302.779	21.92
302.994	28.29
303.209	34.53
303.423	39.32
303.638	41.51
303.853	68.53
304.068	51.26
304.283	48.24
304.497	54.63
304.712	43.22
304.927	51.56
305.142	46.72
305.356	37.81
305.571	38.04
305.786	39.58
306	27.47
306.215	40.85
306.43	50.71
306.644	49.96
306.859	55.59
307.074	53.01
307.288	44.68
307.503	39.53
307.717	33.41
307.932	22.66
308.147	9.76
308.361	33.29
308.576	25.11
308.79	30.12
309.005	26.37
309.219	35.09
309.434	14.28
309.648	18.77
309.863	22.84
310.077	26.69
310.292	19.17
310.506	16.82
310.72	35.61
310.935	45.96
311.149	42
311.364	56.54
311.578	66.18
311.792	49.37
312.007	37.15
312.221	39.32
312.435	32.32
312.649	25.82
312.864	39.61
313.078	61.24
313.292	60.11
313.507	58.5
313.721	73.23
313.935	47.57
314.149	28.98
314.363	30.14
314.578	31.84
314.792	22.88
315.006	18.72
315.22	12.76
315.434	24.1
315.648	28.35
315.862	33.11
316.077	37.19
316.291	42.29
316.505	39.95
316.719	43.99
316.933	45.99
317.147	36.18
317.361	27.8
317.575	2.87
317.789	1.19
318.003	-3.17
318.217	16.98
318.431	21.08
318.645	42.75
318.859	49.89
319.073	52.32
319.287	44.18
319.5	34.09
319.714	28.83
319.928	35.95
320.142	34.62
320.356	29.52
320.57	39.83
320.784	35.03
320.997	28.77
321.211	35.22
321.425	42.67
321.639	41.36
321.853	50.84
322.066	57.57
322.28	41.29
322.494	37.86
322.707	40.71
322.921	26.02
323.135	23.36
323.349	23.42
323.562	22.86
323.776	17.01
323.989	28.17
324.203	23.91
324.417	30.27
324.63	27.18
324.844	33.67
325.057	34.14
325.271	38.98
325.485	34.78
325.698	29.94
325.912	24.56
326.125	6.43
326.339	15.09
326.552	19.19
326.766	30.4
326.979	41.22
327.193	47.06
327.406	44.93
327.619	35.1
327.833	33.1
328.046	30.72
328.26	28.41
328.473	23.82
328.686	24.2
328.9	12.97
329.113	7.65
329.326	8.41
329.54	9.48
329.753	18.6
329.966	34.42
330.179	38.69
330.393	49.64
330.606	52.62
330.819	58.49
331.032	58.66
331.246	49.44
331.459	53.54
331.672	46.12
331.885	37.02
332.098	27.81
332.311	27.45
332.525	9.67
332.738	16.22
332.951	22.5
333.164	25.18
333.377	18.32
333.59	25.92
333.803	23.21
334.016	24.14
334.229	32.56
334.442	43.12
334.655	30.87
334.868	42.99
335.081	37.31
335.294	36.42
335.507	29.12
335.72	38.59
335.933	31.49
336.146	33.21
336.359	31.98
336.572	33.6
336.785	13.41
336.997	8.42
337.21	5.59
337.423	6.21
337.636	4.57
337.849	22.64
338.062	22.86
338.274	32.18
338.487	34.25
338.7	28.53
338.913	23.22
339.125	26.87
339.338	12.17
339.551	4.83
339.763	12.46
339.976	24.61
340.189	16.88
340.402	29.37
340.614	31.28
340.827	28.71
341.039	18.06
341.252	25.6
341.465	25.41
341.677	27.45
341.89	30.86
342.102	31.86
342.315	40.08
342.527	40.92
342.74	36.85
342.952	43.62
343.165	41.63
343.377	33.91
343.59	26.26
343.802	29.5
344.015	21.33
344.227	28.34
344.44	33.65
344.652	40.26
344.864	39.76
345.077	38.86
345.289	37.78
345.502	28.2
345.714	12.08
345.926	7.52
346.139	17.85
346.351	19.56
346.563	27.85
346.775	43.68
346.988	39.23
347.2	24.3
347.412	25.04
347.624	27.1
347.837	23.81
348.049	23.79
348.261	25.44
348.473	27.54
348.685	29.47
348.897	24.58
349.11	23.07
349.322	32.91
349.534	35.8
349.746	30.87
349.958	39.56
350.17	48.09
350.382	46.68
350.594	35.32
350.806	36.33
351.018	29.28
351.23	25.39
351.442	23.45
351.654	23.94
351.866	13.87
352.078	16.56
352.29	3.87
352.502	7.6
352.714	12.08
352.926	15.04
353.138	21.24
353.35	27.08
353.561	26.07
353.773	31.53
353.985	25.35
354.197	5.66
354.409	-4.26
354.621	9.17
354.832	0.31
355.044	15.64
355.256	14.11
355.468	15.65
355.679	-1.9
355.891	2.68
356.103	7.48
356.314	9.7
356.526	18.05
356.738	21.76
356.949	27.43
357.161	38.56
357.373	43.77
357.584	45.08
357.796	52.96
358.008	56.58
358.219	42.88
358.431	40.28
358.642	50.42
358.854	42.84
359.065	27.91
359.277	25.13
359.488	30.44
359.7	21.01
359.911	24.33
360.123	37.49
360.334	40.11
360.546	40.46
360.757	37.64
360.969	35.54
361.18	30.65
361.391	34.8
361.603	44.96
361.814	40.92
362.025	41.42
362.237	42.12
362.448	29.98
362.659	15.75
362.871	16.32
363.082	1.68
363.293	-5.47
363.504	-3.73
363.716	-9.64
363.927	-20.84
364.138	-11.67
364.349	-8.62
364.56	-4.24
364.772	-3.92
364.983	5.18
365.194	13.44
365.405	16.54
365.616	13.78
365.827	17.59
366.038	25.33
366.25	17.14
366.461	9.73
366.672	19.19
366.883	25.72
367.094	25.6
367.305	20.78
367.516	29.59
367.727	17.48
367.938	20.48
368.149	14.02
368.36	15.94
368.571	8.89
368.781	7.88
368.992	1.75
369.203	-3.88
369.414	-9.17
369.625	7.15
369.836	11.87
370.047	12
370.258	26.78
370.468	33.81
370.679	21.36
370.89	22.78
371.101	13.8
371.312	5.85
371.522	8.92
371.733	20.73
371.944	27.57
372.155	43.99
372.365	43.47
372.576	41.08
372.787	40.5
372.997	40.53
373.208	25.23
373.419	29.58
373.629	26.1
373.84	15.69
374.05	14.24
374.261	19.66
374.472	11.19
374.682	16.28
374.893	25.71
375.103	23.95
375.314	30.36
375.524	29.8
375.735	33.03
375.945	40.29
376.156	40.77
376.366	33.94
376.577	35.4
376.787	29.39
376.997	22.24
377.208	21.27
377.418	24.95
377.629	36.3
377.839	43.28
378.049	41.41
378.26	41.99
378.47	44.33
378.68	46.34
378.89	42.52
379.101	36.97
379.311	32.33
379.521	29.75
379.732	20.33
379.942	14.65
380.152	13.01
380.362	9.56
380.572	9.13
380.783	14.57
380.993	21.7
381.203	22.98
381.413	34.28
381.623	35.58
381.833	32.84
382.043	33.92
382.253	27.08
382.463	23.12
382.674	22.49
382.884	19.33
383.094	16.59
383.304	24.6
383.514	23.75
383.724	27.63
383.934	30.71
384.144	31.46
384.353	31.72
384.563	30.28
384.773	27.53
384.983	29.61
385.193	27.35
385.403	27.6
385.613	26.55
385.823	23.99
386.033	18.98
386.242	16.96
386.452	14.46
386.662	11.98
386.872	11.97
387.082	8.99
387.291	10.56
387.501	12.07
387.711	14.46
387.921	16.17
388.13	18.77
388.34	21.61
388.55	20.82
388.759	21.57
388.969	16.78
389.179	19.28
389.388	15.99
389.598	14.18
389.807	14.96
390.017	14.62
390.227	12.8
390.436	11.82
390.646	13.15
390.855	12.1
391.065	15.42
391.274	15.59
391.484	17.1
391.693	14.45
391.903	14.28
392.112	12.71
392.322	11.25
392.531	12.29
392.74	15.91
392.95	14.85
393.159	14.07
393.369	13.47
393.578	11.44
393.787	9.7
393.997	11.46
394.206	12.08
394.415	14.41
394.625	14.71
394.834	14.77
395.043	13.2
395.252	11.77
395.462	10.28
395.671	9.9
395.88	9.51
396.089	9.51
396.298	9.99
396.508	10.79
396.717	10.75
396.926	10.67
397.135	9.93
397.344	10.24
397.553	10.16
397.762	10.03
397.971	9.99
398.181	10.47
398.39	9.97
398.599	9.09
398.808	8.77
399.017	8.74
399.226	8.87
399.435	9.4
399.644	9.37
399.853	9.91
400.062	9.76
400.27	9.7
400.479	9.25
400.688	9.71
400.897	9.53
401.106	9.47
401.315	9.63
401.524	9.78
401.733	9.7
401.941	9.86
402.15	10.05
402.359	9.82
402.568	9.88
402.777	9.55
402.985	9.48
403.194	9.27
403.403	9.16
403.612	8.83
403.82	8.6
404.029	8.27
404.238	8.32
404.446	8.36
404.655	8.41
404.864	8.43
405.072	8.53
405.281	8.48
405.489	8.46
405.698	8.38
405.906	8.42
406.115	8.36
406.324	8.19
406.532	8.08
406.741	7.87
406.949	7.98
407.158	7.98
407.366	7.91
407.574	7.93
407.783	7.99
407.991	7.84
408.2	7.96
408.408	8.12
408.617	8.04
408.825	8.08
409.033	8.16
409.242	7.96
409.45	7.89
409.658	7.75
409.867	7.7
410.075	7.57
410.283	7.59
410.491	7.46
410.7	7.42
410.908	7.49
411.116	7.54
411.324	7.46
411.533	7.45
411.741	7.58
411.949	7.49
412.157	7.35
412.365	7.4
412.573	7.6
412.781	7.45
412.99	7.44
413.198	7.42
413.406	7.34
413.614	6.99
413.822	7.05
414.03	7.12
414.238	7.24
414.446	7.13
414.654	7.1
414.862	7.07
415.07	6.94
415.278	6.75
415.486	6.72
415.694	6.72
415.902	6.68
416.109	6.6
416.317	6.78
416.525	6.84
416.733	6.91
416.941	6.88
417.149	6.93
417.357	6.9
417.564	6.7
417.772	6.7
417.98	6.6
418.188	6.6
418.395	6.47
418.603	6.59
418.811	6.63
419.019	6.84
419.226	6.76
419.434	6.79
419.642	6.74
419.849	6.56
420.057	6.44
420.265	6.36
420.472	6.15
420.68	6.29
420.887	6.26
421.095	6.23
421.302	6.26
421.51	6.43
421.717	6.16
421.925	6.05
422.132	6.06
422.34	6.09
422.547	6.04
422.755	6.17
422.962	6.23
423.17	6.19
423.377	6.08
423.585	5.95
423.792	5.86
423.999	5.86
424.207	5.89
424.414	5.98
424.621	5.99
424.829	6.01
425.036	6.02
425.243	6.05
425.451	6.16
425.658	6.2
425.865	6.33
426.072	6.36
426.28	6.25
426.487	6.08
426.694	6.09
426.901	6.09
427.108	6.12
427.315	6.09
427.523	6.16
427.73	6.24
427.937	6.2
428.144	6.23
428.351	6.42
428.558	6.55
428.765	6.59
428.972	6.53
429.179	6.42
429.386	6.47
429.593	6.42
429.8	6.39
430.007	6.4
430.214	6.53
430.421	6.47
430.628	6.34
430.835	6.34
431.042	6.46
431.249	6.38
431.456	6.35
431.662	6.49
431.869	6.58
432.076	6.63
432.283	6.63
432.49	6.62
432.697	6.59
432.903	6.51
433.11	6.39
433.317	6.44
433.524	6.53
433.73	6.54
433.937	6.59
434.144	6.67
434.35	6.84
434.557	6.9
434.764	7.02
434.97	7.08
435.177	7.22
435.384	7.11
435.59	7.01
435.797	7.1
436.003	7.08
436.21	7.05
436.416	7.21
436.623	7.34
436.829	7.29
437.036	7.38
437.242	7.34
437.449	7.19
437.655	7.3
437.862	7.27
438.068	7.25
438.275	7.28
438.481	7.42
438.687	7.27
438.894	7.35
439.1	7.43
439.307	7.6
439.513	7.68
439.719	7.8
439.926	7.82
440.132	7.9
440.338	7.97
440.544	7.98
440.751	8.01
440.957	8.14
441.163	8.14
441.369	8.1
441.575	7.93
441.782	8.07
441.988	8.08
442.194	8.05
442.4	8.03
442.606	8.16
442.812	8.12
443.018	8.07
443.224	8.14
443.431	8.2
443.637	8.28
443.843	8.3
444.049	8.4
444.255	8.38
444.461	8.4
444.667	8.36
444.873	8.48
445.079	8.44
445.284	8.53
445.49	8.61
445.696	8.68
445.902	8.65
446.108	8.77
446.314	8.65
446.52	8.61
446.726	8.61
446.931	8.61
447.137	8.53
447.343	8.74
447.549	8.76
447.755	8.85
447.96	8.81
448.166	8.85
448.372	8.73
448.578	8.77
448.783	8.72
448.989	8.81
449.195	8.73
449.4	8.82
449.606	8.84
449.812	8.89
450.017	8.86
450.223	8.88
450.428	8.81
450.634	8.76
450.84	8.74
451.045	8.8
451.251	8.88
451.456	9.01
451.662	9
451.867	8.93
452.073	8.92
452.278	8.88
452.483	8.87
452.689	9.01
452.894	9.05
453.1	9.08
453.305	9.09
453.51	9.12
453.716	8.93
453.921	8.96
454.127	8.97
454.332	9
454.537	8.91
454.742	9.01
454.948	9.07
455.153	9.03
455.358	9.11
455.563	9.2
455.769	9.35
455.974	9.38
456.179	9.38
456.384	9.28
456.589	9.29
456.795	9.14
457	9.11
457.205	9.16
457.41	9.22
457.615	9.18
457.82	9.2
458.025	9.23
458.23	9.23
458.435	9.28
458.64	9.31
458.845	9.38
459.05	9.37
459.255	9.38
459.46	9.32
459.665	9.36
459.87	9.34
460.075	9.36
460.28	9.34
460.485	9.34
460.69	9.35
460.895	9.36
461.099	9.33
461.304	9.34
461.509	9.45
461.714	9.38
461.919	9.5
462.123	9.54
462.328	9.62
462.533	9.63
462.738	9.73
462.942	9.68
463.147	9.74
463.352	9.65
463.556	9.69
463.761	9.7
463.966	9.63
464.17	9.67
464.375	9.74
464.58	9.76
464.784	9.82
464.989	9.96
465.193	9.93
465.398	9.92
465.602	9.96
465.807	9.96
466.011	9.94
466.216	10.04
466.42	10.05
466.625	10
466.829	10.06
467.034	10.09
467.238	10.15
467.443	10.22
467.647	10.28
467.851	10.35
468.056	10.37
468.26	10.36
468.464	10.46
468.669	10.47
468.873	10.59
469.077	10.64
469.282	10.77
469.486	10.75
469.69	10.83
469.894	10.77
470.099	10.86
470.303	10.83
470.507	10.92
470.711	10.98
470.915	11.04
471.119	11.1
471.324	11.13
471.528	11.16
471.732	11.23
471.936	11.26
472.14	11.27
472.344	11.28
472.548	11.3
472.752	11.26
472.956	11.28
473.16	11.31
473.364	11.31
473.568	11.36
473.772	11.52
473.976	11.55
474.18	11.63
474.384	11.78
474.588	11.82
474.792	11.78
474.995	11.84
475.199	11.85
475.403	11.87
475.607	11.89
475.811	12.07
476.015	12.11
476.218	12.2
476.422	12.26
476.626	12.37
476.83	12.24
477.033	12.23
477.237	12.2
477.441	12.19
477.644	12.21
477.848	12.36
478.052	12.38
478.255	12.44
478.459	12.52
478.663	12.54
478.866	12.52
479.07	12.64
479.273	12.63
479.477	12.71
479.681	12.79
479.884	12.87
480.088	12.88
480.291	12.99
480.495	12.94
480.698	12.93
480.901	12.91
481.105	13.01
481.308	12.97
481.512	13.03
481.715	13.06
481.919	13.14
482.122	13.11
482.325	13.19
482.529	13.17
482.732	13.15
482.935	13.16
483.138	13.22
483.342	13.18
483.545	13.17
483.748	13.29
483.952	13.32
484.155	13.27
484.358	13.3
484.561	13.37
484.764	13.27
484.967	13.3
485.171	13.36
485.374	13.35
485.577	13.4
485.78	13.43
485.983	13.4
486.186	13.42
486.389	13.49
486.592	13.48
486.795	13.53
486.998	13.53
487.201	13.52
487.404	13.49
487.607	13.55
487.81	13.52
488.013	13.56
488.216	13.61
488.419	13.67
488.622	13.56
488.825	13.57
489.028	13.55
489.231	13.53
489.433	13.52
489.636	13.6
489.839	13.72
490.042	13.74
490.245	13.71
490.447	13.76
490.65	13.82
490.853	13.77
491.056	13.74
491.258	13.84
491.461	13.87
491.664	13.86
491.866	13.9
492.069	14.03
492.272	13.97
492.474	13.92
492.677	14.02
492.879	14.06
493.082	14.12
493.285	14.24
493.487	14.32
493.69	14.27
493.892	14.2
494.095	14.08
494.297	14.07
494.5	14.09
494.702	14.12
494.905	14.27
495.107	14.35
495.309	14.39
495.512	14.4
495.714	14.4
495.917	14.33
496.119	14.38
496.321	14.42
496.524	14.59
496.726	14.64
496.928	14.8
497.13	14.86
497.333	14.78
497.535	14.7
497.737	14.7
497.939	14.68
498.142	14.75
498.344	14.84
498.546	14.86
498.748	14.99
498.95	14.96
499.152	14.99
499.355	15.14
499.557	15.21
499.759	15.25
499.961	15.38
500.163	15.38
500.365	15.37
500.567	15.49
500.769	15.46
500.971	15.44
501.173	15.47
501.375	15.52
501.577	15.58
501.779	15.72
501.981	15.79
502.183	15.94
502.385	15.98
502.587	15.93
502.788	15.95
502.99	16.02
503.192	16.06
503.394	16.1
503.596	16.19
503.798	16.28
503.999	16.32
504.201	16.39
504.403	16.46
504.605	16.53
504.806	16.57
505.008	16.7
505.21	16.71
505.411	16.7
505.613	16.83
505.815	16.86
506.016	16.86
506.218	16.98
506.42	17.05
506.621	17.04
506.823	17.14
507.024	17.16
507.226	17.21
507.427	17.36
507.629	17.5
507.83	17.57
508.032	17.77
508.233	17.85
508.435	17.89
508.636	17.87
508.838	17.87
509.039	17.85
509.24	17.94
509.442	17.97
509.643	18.05
509.845	18.2
510.046	18.26
510.247	18.23
510.448	18.3
510.65	18.42
510.851	18.41
511.052	18.49
511.254	18.57
511.455	18.66
511.656	18.69
511.857	18.71
512.058	18.82
512.26	18.89
512.461	18.88
512.662	18.88
512.863	18.97
513.064	19.05
513.265	19.09
513.466	19.2
513.667	19.22
513.868	19.19
514.069	19.19
514.27	19.26
514.471	19.29
514.672	19.34
514.873	19.42
515.074	19.49
515.275	19.51
515.476	19.64
515.677	19.75
515.878	19.9
516.079	19.91
516.28	19.91
516.481	19.87
516.682	19.91
516.882	19.85
517.083	19.94
517.284	20.01
517.485	20.04
517.686	20.09
517.886	20.16
518.087	20.12
518.288	20.19
518.488	20.22
518.689	20.18
518.89	20.19
519.091	20.27
519.291	20.28
519.492	20.33
519.692	20.36
519.893	20.4
520.094	20.41
520.294	20.41
520.495	20.46
520.695	20.51
520.896	20.61
521.096	20.71
521.297	20.74
521.497	20.77
521.698	20.83
521.898	20.78
522.099	20.74
522.299	20.89
522.499	20.95
522.7	20.96
522.9	20.99
523.101	21.09
523.301	21.01
523.501	21.06
523.702	21.11
523.902	21.17
524.102	21.19
524.302	21.22
524.503	21.26
524.703	21.32
524.903	21.31
525.103	21.35
525.304	21.34
525.504	21.31
525.704	21.24
525.904	21.29
526.104	21.31
526.304	21.39
526.504	21.44
526.705	21.61
526.905	21.63
527.105	21.66
527.305	21.69
527.505	21.75
527.705	21.67
527.905	21.75
528.105	21.75
528.305	21.78
528.505	21.77
528.705	21.89
528.905	21.91
529.105	22.02
529.304	21.97
529.504	22.12
529.704	22.11
529.904	22.14
530.104	22.19
530.304	22.33
530.503	22.34
530.703	22.32
530.903	22.36
531.103	22.4
531.303	22.43
531.502	22.39
531.702	22.54
531.902	22.56
532.101	22.51
532.301	22.56
532.501	22.64
532.7	22.64
532.9	22.7
533.1	22.77
533.299	22.8
533.499	22.81
533.698	22.84
533.898	22.93
534.097	22.89
534.297	22.91
534.496	22.93
534.696	22.97
534.895	22.95
535.095	23.15
535.294	23.16
535.494	23.23
535.693	23.28
535.892	23.33
536.092	23.34
536.291	23.42
536.491	23.47
536.69	23.49
536.889	23.54
537.088	23.54
537.288	23.56
537.487	23.62
537.686	23.66
537.886	23.73
538.085	23.71
538.284	23.82
538.483	23.85
538.682	23.89
538.882	23.94
539.081	24.05
539.28	24.12
539.479	24.2
539.678	24.23
539.877	24.31
540.076	24.38
540.275	24.33
540.474	24.37
540.673	24.51
540.872	24.49
541.071	24.53
541.27	24.7
541.469	24.72
541.668	24.66
541.867	24.75
542.066	24.83
542.265	24.84
542.464	24.91
542.663	25
542.862	25.08
543.06	25.14
543.259	25.25
543.458	25.29
543.657	25.41
543.856	25.46
544.054	25.54
544.253	25.59
544.452	25.73
544.651	25.77
544.849	25.77
545.048	25.7
545.247	25.77
545.445	25.74
545.644	25.8
545.843	25.92
546.041	26.09
546.24	26.15
546.438	26.33
546.637	26.49
546.836	26.53
547.034	26.66
547.233	26.77
547.431	26.8
547.63	26.84
547.828	27.03
548.027	27.08
548.225	27.21
548.423	27.29
548.622	27.46
548.82	27.4
549.019	27.49
549.217	27.58
549.415	27.78
549.614	27.85
549.812	28.02
550.01	28.1
550.209	28.14
550.407	28.09
550.605	28.01
550.803	28.09
551.002	28.24
551.2	28.31
551.398	28.49
551.596	28.7
551.794	28.77
551.993	28.79
552.191	28.88
552.389	28.96
552.587	29.07
552.785	29.23
552.983	29.42
553.181	29.65
553.379	29.75
553.577	29.92
553.775	30
553.973	30.07
554.171	30.2
554.369	30.32
554.567	30.4
554.765	30.54
554.963	30.64
555.161	30.66
555.359	30.82
555.557	30.95
555.755	31.03
555.952	31.26
556.15	31.39
556.348	31.44
556.546	31.53
556.744	31.74
556.941	31.78
557.139	31.79
557.337	31.92
557.535	32.05
557.732	32.14
557.93	32.26
558.128	32.48
558.325	32.6
558.523	32.7
558.721	32.81
558.918	32.92
559.116	33.06
559.313	33.18
559.511	33.38
559.708	33.48
559.906	33.67
560.104	33.81
560.301	34.01
560.498	34.09
560.696	34.22
560.893	34.29
561.091	34.4
561.288	34.49
561.486	34.55
561.683	34.63
561.88	34.72
562.078	34.86
562.275	34.98
562.473	35.2
562.67	35.4
562.867	35.58
563.064	35.63
563.262	35.7
563.459	35.83
563.656	35.99
563.853	36.08
564.051	36.2
564.248	36.39
564.445	36.49
564.642	36.62
564.839	36.75
565.036	36.95
565.234	37.09
565.431	37.12
565.628	37.19
565.825	37.36
566.022	37.42
566.219	37.47
566.416	37.63
566.613	37.81
566.81	37.81
567.007	37.96
567.204	38.05
567.401	38.26
567.598	38.18
567.795	38.25
567.991	38.37
568.188	38.46
568.385	38.43
568.582	38.43
568.779	38.52
568.976	38.55
569.172	38.68
569.369	38.79
569.566	39
569.763	39.13
569.96	39.2
570.156	39.14
570.353	39.19
570.55	39.24
570.746	39.21
570.943	39.29
571.14	39.4
571.336	39.45
571.533	39.56
571.729	39.67
571.926	39.68
572.123	39.86
572.319	40.01
572.516	39.98
572.712	40.03
572.909	40.16
573.105	40.16
573.302	40.11
573.498	40.2
573.695	40.23
573.891	40.21
574.087	40.21
574.284	40.24
574.48	40.16
574.677	40.14
574.873	40.18
575.069	40.16
575.266	40.06
575.462	40.17
575.658	40.21
575.854	40.25
576.051	40.33
576.247	40.46
576.443	40.51
576.639	40.58
576.835	40.46
577.032	40.38
577.228	40.39
577.424	40.42
577.62	40.36
577.816	40.42
578.012	40.44
578.208	40.48
578.404	40.38
578.6	40.45
578.796	40.43
578.993	40.48
579.189	40.39
579.384	40.36
579.58	40.32
579.776	40.43
579.972	40.36
580.168	40.37
580.364	40.37
580.56	40.42
580.756	40.29
580.952	40.26
581.148	40.17
581.343	40.33
581.539	40.3
581.735	40.32
581.931	40.37
582.127	40.41
582.322	40.34
582.518	40.25
582.714	40.2
582.909	40.14
583.105	40.12
583.301	40.07
583.496	39.99
583.692	39.94
583.888	39.97
584.083	40.04
584.279	40
584.474	40.06
584.67	40.15
584.866	40.17
585.061	40.16
585.257	40.15
585.452	40.27
585.648	40.29
585.843	40.29
586.039	40.23
586.234	40.28
586.429	40.19
586.625	40.26
586.82	40.17
587.015	40.17
587.211	40.05
587.406	40.07
587.601	39.92
587.797	40.05
587.992	40.09
588.187	40.34
588.383	40.35
588.578	40.34
588.773	40.22
588.968	40.23
589.163	40.1
589.359	40.09
589.554	40.16
589.749	40.26
589.944	40.24
590.139	40.21
590.334	40.23
590.529	40.21
590.724	40.15
590.919	40.32
591.114	40.41
591.309	40.43
591.504	40.5
591.699	40.62
591.894	40.56
592.089	40.61
592.284	40.72
592.479	40.88
592.674	40.96
592.869	40.97
593.064	41.02
593.259	41.07
593.454	41.05
593.648	41.15
593.843	41.31
594.038	41.49
594.233	41.58
594.428	41.7
594.622	41.73
594.817	41.82
595.012	41.89
595.206	41.86
595.401	41.86
595.596	41.8
595.79	41.81
595.985	41.76
596.18	41.89
596.374	41.96
596.569	42.23
596.763	42.3
596.958	42.5
597.153	42.58
597.347	42.61
597.542	42.5
597.736	42.62
597.931	42.59
598.125	42.69
598.319	42.86
598.514	43.01
598.708	43.14
598.903	43.27
599.097	43.36
599.291	43.27
599.486	43.39
599.68	43.43
599.874	43.54
600.069	43.56
600.263	43.82
600.457	43.9
600.651	43.96
600.846	43.92
601.04	43.99
601.234	43.98
601.428	44
601.622	44.05
601.817	44.04
602.011	44.13
602.205	44.17
602.399	44.23
602.593	44.14
602.787	44.19
602.981	44.03
603.175	44.1
603.369	44.17
603.563	44.23
603.757	44.33
603.951	44.48
604.145	44.4
604.339	44.22
604.533	44.15
604.727	43.95
604.921	43.89
605.115	43.83
605.309	43.98
605.502	44.03
605.696	44.11
605.89	43.98
606.084	43.96
606.278	43.83
606.471	43.9
606.665	43.8
606.859	43.81
607.053	43.73
607.246	43.67
607.44	43.47
607.634	43.45
607.827	43.37
608.021	43.37
608.214	43.4
608.408	43.31
608.602	43.19
608.795	43.25
608.989	43.19
609.182	43.08
609.376	42.99
609.569	43.02
609.763	42.88
609.956	42.81
610.15	42.61
610.343	42.73
610.537	42.7
610.73	42.65
610.923	42.55
611.117	42.58
611.31	42.32
611.504	42.33
611.697	42.25
611.89	42.23
612.083	42.16
612.277	42.14
612.47	41.81
612.663	41.7
612.856	41.58
613.05	41.52
613.243	41.38
613.436	41.47
613.629	41.41
613.822	41.31
614.015	41.22
614.209	41.14
614.402	41.07
614.595	41.08
614.788	41.06
614.981	40.92
615.174	40.95
615.367	40.75
615.56	40.58
615.753	40.49
615.946	40.45
616.139	40.34
616.332	40.41
616.525	40.4
616.718	40.37
616.911	40.28
617.103	40.23
617.296	40.1
617.489	39.99
617.682	39.87
617.875	39.88
618.067	39.87
618.26	39.82
618.453	39.85
618.646	39.8
618.838	39.66
619.031	39.55
619.224	39.55
619.417	39.55
619.609	39.58
619.802	39.64
619.994	39.61
620.187	39.54
620.38	39.44
620.572	39.42
620.765	39.42
620.957	39.41
621.15	39.35
621.342	39.21
621.535	39.16
621.727	39.02
621.92	38.91
622.112	38.85
622.305	38.92
622.497	38.87
622.69	38.82
622.882	38.87
623.074	38.79
623.267	38.74
623.459	38.63
623.651	38.67
623.844	38.62
624.036	38.71
624.228	38.65
624.42	38.73
624.613	38.73
624.805	38.7
624.997	38.73
625.189	38.66
625.381	38.59
625.574	38.51
625.766	38.57
625.958	38.4
626.15	38.47
626.342	38.45
626.534	38.49
626.726	38.39
626.918	38.42
627.11	38.33
627.302	38.25
627.494	38.14
627.686	38.14
627.878	38.14
628.07	38.13
628.262	38.16
628.454	38.15
628.646	38.07
628.838	38.01
629.029	37.97
629.221	37.83
629.413	37.82
629.605	37.75
629.797	37.74
629.989	37.73
630.18	37.76
630.372	37.73
630.564	37.72
630.755	37.71
630.947	37.57
631.139	37.49
631.33	37.34
631.522	37.27
631.714	37.21
631.905	37.18
632.097	37.2
632.289	37.26
632.48	37.29
632.672	37.21
632.863	37.2
633.055	37.1
633.246	36.96
633.438	36.95
633.629	36.98
633.821	37
634.012	37.03
634.203	37.03
634.395	36.89
634.586	36.8
634.777	36.62
634.969	36.57
635.16	36.52
635.351	36.57
635.543	36.57
635.734	36.8
635.925	36.84
636.117	36.97
636.308	36.98
636.499	36.95
636.69	36.83
636.881	36.79
637.073	36.77
637.264	36.66
637.455	36.66
637.646	36.68
637.837	36.67
638.028	36.54
638.219	36.5
638.41	36.43
638.601	36.33
638.792	36.3
638.983	36.42
639.174	36.47
639.365	36.5
639.556	36.43
639.747	36.4
639.938	36.27
640.129	36.26
640.32	36.24
640.511	36.18
640.701	36.12
640.892	36.1
641.083	36.09
641.274	36.06
641.465	36.17
641.655	36.29
641.846	36.21
642.037	36.11
642.228	36
642.418	35.91
642.609	35.72
642.8	35.77
642.99	35.74
643.181	35.74
643.372	35.65
643.562	35.7
643.753	35.61
643.943	35.56
644.134	35.49
644.324	35.61
644.515	35.45
644.705	35.4
644.896	35.38
645.086	35.37
645.277	35.28
645.467	35.29
645.658	35.28
645.848	35.18
646.038	35.19
646.229	35.05
646.419	35.07
646.61	35.03
646.8	35.04
646.99	35.08
647.18	35.06
647.371	35
647.561	34.93
647.751	34.94
647.941	34.82
648.132	34.74
648.322	34.63
648.512	34.66
648.702	34.6
648.892	34.59
649.082	34.62
649.272	34.56
649.462	34.47
649.653	34.56
649.843	34.44
650.033	34.35
650.223	34.49
650.413	34.48
650.603	34.37
650.793	34.41
650.983	34.48
651.172	34.32
651.362	34.14
651.552	34
651.742	33.9
651.932	33.85
652.122	33.84
652.312	33.85
652.502	33.73
652.691	33.69
652.881	33.51
653.071	33.36
653.261	33.27
653.45	33.24
653.64	33.1
653.83	32.88
654.019	32.74
654.209	32.65
654.399	32.53
654.588	32.5
654.778	32.44
654.968	32.23
655.157	32.15
655.347	31.89
655.536	31.56
655.726	31.28
655.915	31.19
656.105	30.9
656.294	30.73
656.484	30.57
656.673	30.63
656.863	30.43
657.052	30.25
657.241	30.14
657.431	29.92
657.62	29.7
657.809	29.47
657.999	29.13
658.188	28.82
658.377	28.64
658.567	28.18
658.756	27.82
658.945	27.61
659.134	27.27
659.324	27
659.513	26.82
659.702	26.66
659.891	26.51
660.08	26.3
660.269	26.02
660.458	25.75
660.648	25.46
660.837	25.12
661.026	24.84
661.215	24.64
661.404	24.37
661.593	24.08
661.782	23.81
661.971	23.58
662.16	23.25
662.349	23
662.538	22.87
662.726	22.71
662.915	22.46
663.104	22.29
663.293	22.08
663.482	21.76
663.671	21.59
663.86	21.38
664.048	21.22
664.237	20.96
664.426	20.95
664.615	20.61
664.803	20.43
664.992	20.12
665.181	19.99
665.369	19.8
665.558	19.67
665.747	19.53
665.935	19.39
666.124	19.22
666.312	18.9
666.501	18.73
666.69	18.48
666.878	18.33
667.067	18.17
667.255	18.03
667.444	17.91
667.632	17.8
667.82	17.57
668.009	17.47
668.197	17.42
668.386	17.32
668.574	17.22
668.762	17.23
668.951	17.17
669.139	16.95
669.327	16.72
669.516	16.63
669.704	16.53
669.892	16.39
670.08	16.37
670.269	16.36
670.457	16.29
670.645	16.2
670.833	16.15
671.021	16.11
671.21	16.15
671.398	16.18
671.586	16.15
671.774	16.15
671.962	16.13
672.15	16.26
672.338	16.18
672.526	16.2
672.714	16.16
672.902	16.18
673.09	15.95
673.278	16.09
673.466	16.16
673.654	16.19
673.842	16.14
674.03	16.14
674.218	16.08
674.405	16.02
674.593	16.04
674.781	16.1
674.969	16.18
675.157	16.19
675.344	16.31
675.532	16.36
675.72	16.51
675.908	16.54
676.095	16.54
676.283	16.53
676.471	16.62
676.658	16.68
676.846	16.88
677.033	17.07
677.221	17.16
677.409	17.16
677.596	17.14
677.784	17.1
677.971	17.26
678.159	17.33
678.346	17.33
678.534	17.61
678.721	17.88
678.909	17.9
679.096	18.15
679.283	18.42
679.471	18.44
679.658	18.51
679.846	18.65
680.033	18.8
680.22	18.94
680.408	19.11
680.595	19.4
680.782	19.61
680.969	19.85
681.157	20.11
681.344	20.38
681.531	20.57
681.718	20.79
681.905	20.92
682.093	21.18
682.28	21.45
682.467	21.7
682.654	21.85
682.841	22.18
683.028	22.37
683.215	22.51
683.402	22.73
683.589	23.1
683.776	23.39
683.963	23.77
684.15	24.26
684.337	24.58
684.524	25.01
684.711	25.32
684.898	25.73
685.085	26.11
685.271	26.45
685.458	26.85
685.645	27.32
685.832	27.67
686.019	27.99
686.205	28.53
686.392	28.91
686.579	29.37
686.766	29.79
686.952	30.29
687.139	30.78
687.326	31.35
687.512	31.85
687.699	32.5
687.886	33.03
688.072	33.64
688.259	34.09
688.445	34.63
688.632	35.28
688.818	35.93
689.005	36.33
689.191	36.75
689.378	37.31
689.564	37.83
689.751	38.5
689.937	39.12
690.124	39.97
690.31	40.67
690.496	40.96
690.683	41.49
690.869	42.17
691.055	42.76
691.242	43.13
691.428	43.92
691.614	44.42
691.8	44.84
691.987	45.43
692.173	46.12
692.359	46.88
692.545	47.57
692.731	48.26
692.918	48.79
693.104	49.51
693.29	49.91
693.476	50.57
693.662	51.09
693.848	51.84
694.034	52.37
694.22	53.11
694.406	53.53
694.592	54.06
694.778	54.54
694.964	55.34
695.15	56.04
695.336	56.62
695.522	57.23
695.708	57.83
695.894	57.96
696.08	58.25
696.265	58.59
696.451	59.24
696.637	59.55
696.823	60.34
697.009	60.84
697.194	61.5
697.38	61.93
697.566	62.06
697.751	62.19
697.937	62.56
698.123	63.06
698.308	63.76
698.494	64.5
698.68	65.2
698.865	65.85
699.051	66.1
699.236	66.38
699.422	67.07
699.607	67.53
699.793	67.99
699.978	68.63
700.164	69.06
700.349	69.37
700.535	69.73
700.72	70.11
700.906	70.26
701.091	70.42
701.276	70.58
701.462	70.84
701.647	70.97
701.832	71.65
702.018	72.12
702.203	72.63
702.388	72.74
702.573	72.98
702.759	72.76
702.944	72.72
703.129	72.65
703.314	72.99
703.499	73.33
703.684	73.9
703.87	74.17
704.055	74.68
704.24	74.81
704.425	74.83
704.61	75.31
704.795	75.59
704.98	75.83
705.165	76.06
705.35	76.22
705.535	76
705.72	76.28
705.905	76.14
706.09	76.33
706.275	76.88
706.459	77.09
706.644	76.98
706.829	77.06
707.014	77.38
707.199	77.45
707.384	76.98
707.568	77.54
707.753	78
707.938	77.95
708.123	77.87
708.307	78.3
708.492	78.39
708.677	78.63
708.861	78.69
709.046	78.93
709.231	79.43
709.415	79.66
709.6	79.72
709.784	80.02
709.969	79.96
710.153	79.9
710.338	79.97
710.522	80.13
710.707	80.42
710.891	80.81
711.076	80.89
711.26	81.03
711.445	80.81
711.629	80.47
711.813	80.3
711.998	80.78
712.182	80.41
712.366	80.26
712.551	80.94
712.735	81.54
712.919	81.28
713.103	81.44
713.288	81.75
713.472	81.33
713.656	80.95
713.84	80.94
714.024	80.74
714.208	80.71
714.393	80.8
714.577	80.81
714.761	80.91
714.945	81.39
715.129	81.97
715.313	81.96
715.497	81.86
715.681	82.1
715.865	81.97
716.049	81.75
716.233	81.99
716.417	82.18
716.601	82.23
716.785	82.33
716.968	82.29
717.152	82.68
717.336	82.94
717.52	83.09
717.704	83.46
717.888	83.43
718.071	82.93
718.255	82.92
718.439	83.04
718.622	83.11
718.806	83.51
718.99	83.7
719.174	84.15
719.357	83.91
719.541	83.92
719.724	83.66
719.908	83.84
720.092	83.11
720.275	83.19
720.459	82.78
720.642	83.01
720.826	83.27
721.009	83.66
721.193	83.5
721.376	83.22
721.559	82.97
721.743	82.71
721.926	82.84
722.11	82.34
722.293	83.3
722.476	83.69
722.66	83.61
722.843	83.52
723.026	84.27
723.21	83.68
723.393	83.92
723.576	84.52
723.759	84.51
723.942	84.9
724.126	85.2
724.309	84.65
724.492	84.3
724.675	84.57
724.858	84.35
725.041	84.46
725.224	84.69
725.407	84.91
725.59	84.66
725.774	84.75
725.957	84.58
726.14	85.22
726.322	85.3
726.505	85.62
726.688	86.08
726.871	86.19
727.054	85.51
727.237	85.49
727.42	85.71
727.603	85.58
727.786	85.59
727.968	86.12
728.151	85.76
728.334	85.29
728.517	84.89
728.699	85.27
728.882	85.03
729.065	85.29
729.248	85.73
729.43	85.68
729.613	85.92
729.796	86.22
729.978	86.15
730.161	86.42
730.343	86.77
730.526	86.76
730.708	86.51
730.891	86.56
731.073	86.51
731.256	86.48
731.438	86.52
731.621	87.15
731.803	87.37
731.986	87.44
732.168	87.64
732.35	87.08
732.533	86.47
732.715	86.28
732.898	86.3
733.08	86.2
733.262	86.47
733.444	87.3
733.627	87.88
733.809	87.62
733.991	87.81
734.173	88.09
734.355	87.06
734.538	86.64
734.72	86.48
734.902	86.14
735.084	85.48
735.266	85.75
735.448	86.06
735.63	85.74
735.812	85.71
735.994	85.61
736.176	85.8
736.358	86.19
736.54	87.23
736.722	87.14
736.904	87.85
737.086	87.77
737.268	87.43
737.45	87.37
737.632	87.57
737.814	87.4
737.995	87.35
738.177	87.51
738.359	86.42
738.541	86.46
738.723	86.3
738.904	86.34
739.086	86.15
739.268	87.2
739.449	87.29
739.631	87.6
739.813	87.76
739.994	87.78
740.176	87.07
740.358	87.17
740.539	87.48
740.721	87.15
740.902	87.89
741.084	87.78
741.265	89.02
741.447	88.88
741.628	89.03
741.81	88.44
741.991	89.08
742.172	88.13
742.354	88.1
742.535	88.51
742.717	88.7
742.898	88.63
743.079	88.42
743.261	88.35
743.442	87.39
743.623	87.49
743.804	86.89
743.986	87.34
744.167	87.89
744.348	89.48
744.529	89.12
744.71	89.3
744.891	89.55
745.073	89.76
745.254	89.37
745.435	88.95
745.616	89.99
745.797	89.03
745.978	88.75
746.159	88.43
746.34	88.85
746.521	88.43
746.702	88.04
746.883	87.56
747.064	87.6
747.245	87.98
747.426	87.66
747.606	88.56
747.787	88.92
747.968	88.64
748.149	87.99
748.33	88.63
748.51	88.13
748.691	88.83
748.872	89.06
749.053	89.64
749.233	89.86
749.414	89.4
749.595	88.66
749.775	88.65
749.956	87.36
750.137	85.65
750.317	86.25
750.498	86.81
750.678	86.79
750.859	88.1
751.04	89.16
751.22	90.14
751.4	89.45
751.581	90.08
751.761	90.49
751.942	90.85
752.122	90.27
752.303	89.9
752.483	89.88
752.663	89.8
752.844	89.4
753.024	89.64
753.204	90.5
753.385	89.14
753.565	87.18
753.745	87.75
753.925	87.84
754.106	88.36
754.286	89.23
754.466	90.14
754.646	89.8
754.826	89.3
755.006	87.63
755.187	87.77
755.367	88.21
755.547	88.26
755.727	88.84
755.907	89.66
756.087	89.12
756.267	89.59
756.447	89.54
756.627	88.73
756.807	88.4
756.987	89.2
757.167	88.42
757.346	89.1
757.526	88.69
757.706	89
757.886	89.03
758.066	89.11
758.246	88.1
758.425	87.9
758.605	87.22
758.785	86.2
758.965	85.93
759.144	85.94
759.324	86.3
759.504	87.02
759.683	87.46
759.863	87.9
760.043	87.66
760.222	87.93
760.402	86.69
760.581	86.24
760.761	86.21
760.94	85.44
761.12	85.75
761.299	86.74
761.479	87.54
761.658	87.89
761.838	87.82
762.017	87.09
762.197	85.2
762.376	84.62
762.555	83.48
762.735	83.75
762.914	85.26
763.093	87.11
763.273	87.04
763.452	87.1
763.631	87.17
763.81	86.02
763.99	85.7
764.169	85.17
764.348	85.07
764.527	85.66
764.706	85.03
764.885	86.49
765.064	86.39
765.243	86.94
765.423	87.75
765.602	88.56
765.781	87.32
765.96	88.2
766.139	88.94
766.318	88.48
766.497	88.11
766.676	88.56
766.854	88.78
767.033	88.27
767.212	88.56
767.391	88.77
767.57	87.97
767.749	87.33
767.928	85.89
768.106	84.47
768.285	83.61
768.464	84.27
768.643	84.48
768.821	86.02
769	86.28
769.179	87.03
769.357	85.84
769.536	85.23
769.715	84
769.893	85.21
770.072	85.6
770.25	85.23
770.429	85.92
770.607	87.37
770.786	86.37
770.964	85.62
771.143	86.86
771.321	86.79
771.5	86.37
771.678	86.13
771.857	87.33
772.035	86.23
772.213	86.59
772.392	86.58
772.57	87.41
772.748	86.95
772.927	88.03
773.105	89.76
773.283	89.95
773.461	90.3
773.64	89
773.818	88.77
773.996	87.04
774.174	86.36
774.352	84.47
774.531	84.99
774.709	84.15
774.887	83.44
775.065	84.05
775.243	84.61
775.421	83.74
775.599	84.32
775.777	83.76
775.955	82.41
776.133	82.51
776.311	83.27
776.489	81.9
776.667	82.46
776.844	84.92
777.022	86.04
777.2	85.94
777.378	87.17
777.556	87.05
777.734	84.87
777.911	83.81
778.089	85.69
778.267	87.96
778.445	87.57
778.622	88.04
778.8	89.26
778.978	86.75
779.155	84.48
779.333	85.48
779.511	84.42
779.688	83.32
779.866	86.57
780.043	87.89
780.221	88.59
780.398	90.09
780.576	90.63
780.753	87
780.931	88.12
781.108	86.39
781.286	85.22
781.463	83.24
781.64	83.04
781.818	79.46
781.995	78.33
782.172	78.01
782.35	76.99
782.527	76.68
782.704	76.2
782.882	76.39
783.059	75.14
783.236	78.07
783.413	77.29
783.59	82.2
783.768	81.82
783.945	79.61
784.122	78.46
784.299	79.51
784.476	74.42
784.653	77.2
784.83	82.28
785.007	81.67
785.184	81.22
785.361	82.48
785.538	81.87
785.715	79.51
785.892	80.73
786.069	81.76
786.246	86.08
786.423	83.52
786.6	85.86
786.776	85.63
786.953	88.63
787.13	83.7
787.307	83.8
787.484	82.88
787.66	82.03
787.837	80.9
788.014	83.38
788.191	83.08
788.367	80.92
788.544	83.16
788.721	79.59
788.897	76.61
789.074	77.92
789.25	79.29
789.427	78.15
789.603	82.72
789.78	82.83
789.956	76.1
790.133	76.9
790.309	76.71
790.486	73.76
790.662	75.08
790.839	83.54
791.015	82.53
791.192	79.89
791.368	79.67
791.544	80.53
791.721	80.95
791.897	81.14
792.073	80.48
792.249	80.35
792.426	78.25
792.602	78.19
792.778	78.4
792.954	82.79
793.13	80.51
793.307	79.93
793.483	79.81
793.659	78.7
793.835	74.6
794.011	75.71
794.187	75.36
794.363	71.62
794.539	75.43
794.715	79.45
794.891	79.53
795.067	83.69
795.243	87.44
795.419	85.61
795.595	85.7
795.771	87.32
795.947	87.96
796.122	83.65
796.298	83.35
796.474	81.14
796.65	82.64
796.826	79.57
797.001	79.77
797.177	77.35
797.353	75.29
797.529	69.67
797.704	69.41
797.88	72.79
798.056	75.21
798.231	76.91
798.407	84.19
798.582	84.9
798.758	84.12
798.934	86.18
799.109	85.04
799.285	85.52
799.46	87.13
799.636	87.21
799.811	84.85
799.986	87.57
800.162	79.73
800.337	76.87
800.513	73.47
800.688	73.53
800.863	71.72
801.039	74.64
801.214	73.05
801.389	78.79
801.565	77.88
801.74	74.26
801.915	76.21
802.09	78.06
802.265	73.18
802.441	72.74
802.616	78.31
802.791	79.13
802.966	80.18
803.141	78.73
803.316	79.42
803.491	83.37
803.666	77.03
803.841	72.96
804.016	68.14
804.191	67.36
804.366	63.51
804.541	67.99
804.716	70.82
804.891	74.24
805.066	76.62
805.241	70.01
805.416	67.91
805.591	66.01
805.765	71.96
805.94	70.62
806.115	75.99
806.29	74.15
806.464	77.96
806.639	68.87
806.814	66.49
806.989	66.45
807.163	72.79
807.338	68.19
807.512	71.13
807.687	71.79
807.862	73.3
808.036	68.07
808.211	70.26
808.385	72.79
808.56	74.42
808.734	67.59
808.909	70.12
809.083	71.97
809.258	69.43
809.432	69.18
809.606	67.45
809.781	70.55
809.955	68.45
810.13	70.91
810.304	70.01
810.478	74.64
810.652	67.14
810.827	71.13
811.001	69.45
811.175	67.7
811.349	70.77
811.524	77.58
811.698	69.24
811.872	66.62
812.046	66.93
812.22	70.24
812.394	64.4
812.568	73.29
812.742	74.74
812.916	76.95
813.09	72.28
813.264	76.36
813.438	73.65
813.612	80.58
813.786	84.35
813.96	86.08
814.134	88.64
814.308	89.73
814.482	76.43
814.656	73.26
814.83	69.75
815.003	67.49
815.177	65.56
815.351	73.32
815.525	73.34
815.698	80.66
815.872	79.35
816.046	76.69
816.219	74.65
816.393	83.32
816.567	79.62
816.74	79.86
816.914	81.93
817.088	83.66
817.261	69.47
817.435	64.47
817.608	65.81
817.782	67.53
817.955	69.01
818.129	81.81
818.302	90.72
818.475	77.85
818.649	77.7
818.822	70.92
818.996	65.48
819.169	64.95
819.342	74.62
819.516	81.39
819.689	92.37
819.862	85.89
820.035	84.32
820.209	80.66
820.382	76.16
820.555	69.51
820.728	67.46
820.901	67.23
821.075	65.14
821.248	64.66
821.421	66.15
821.594	69.99
821.767	70.21
821.94	71.89
822.113	76.85
822.286	78.47
822.459	75.42
822.632	70.3
822.805	61.2
822.978	47.79
823.151	48.22
823.324	53.25
823.496	49.84
823.669	59.87
823.842	64.62
824.015	65.88
824.188	65.83
824.361	73.98
824.533	67.84
824.706	70.34
824.879	60.41
825.051	51.63
825.224	46.36
825.397	47.6
825.569	48.23
825.742	57.9
825.915	73.79
826.087	89.67
826.26	88.73
826.432	89.39
826.605	83.34
826.777	80.98
826.95	71.47
827.122	64.02
827.295	47.25
827.467	45.5
827.64	33.14
827.812	39.59
827.984	50.54
828.157	57.54
828.329	59.26
828.501	62.13
828.674	57.78
828.846	52.35
829.018	65.93
829.19	59.72
829.363	72.58
829.535	67
829.707	71.2
829.879	64.12
830.051	72.53
830.223	61.44
830.395	69.72
830.568	63.71
830.74	61.14
830.912	75.41
831.084	70.62
831.256	51.26
831.428	50.7
831.6	53.03
831.772	49.86
831.943	59.5
832.115	69.06
832.287	78.3
832.459	73.36
832.631	74.67
832.803	80.68
832.975	89.15
833.146	75.93
833.318	75.1
833.49	82.17
833.662	72.77
833.833	64.64
834.005	62.05
834.177	72.93
834.348	61.87
834.52	62.7
834.692	60.86
834.863	65.51
835.035	58.84
835.206	50.79
835.378	46.59
835.549	49.32
835.721	51.42
835.892	43.7
836.064	49.16
836.235	50.91
836.407	67.55
836.578	68.59
836.749	71.73
836.921	54.49
837.092	50.86
837.264	38.41
837.435	39.87
837.606	48.19
837.777	70.28
837.949	70.13
838.12	61.76
838.291	59.53
838.462	71.42
838.633	58.38
838.805	54.34
838.976	55.09
839.147	56.2
839.318	45.33
839.489	59.41
839.66	60.67
839.831	59.62
840.002	57.83
840.173	47.4
840.344	46.38
840.515	51.6
840.686	38
840.857	38.3
841.028	57.92
841.199	36.67
841.369	41.24
841.54	57.25
841.711	61.4
841.882	62.93
842.053	70.86
842.223	72.37
842.394	75.5
842.565	73.45
842.736	70.53
842.906	89.34
843.077	77.8
843.248	70.4
843.418	66.53
843.589	66.23
843.759	47.21
843.93	52.28
844.101	58.03
844.271	54.61
844.442	53.15
844.612	66.22
844.783	65.67
844.953	67.82
845.123	67.28
845.294	76.73
845.464	70.65
845.635	71.2
845.805	52.61
845.975	51.16
846.146	40.44
846.316	37.91
846.486	32.56
846.656	40.4
846.827	46.79
846.997	42.57
847.167	50.85
847.337	69.06
847.507	74.54
847.677	68.92
847.848	65.11
848.018	68.41
848.188	55.92
848.358	55.89
848.528	61.44
848.698	68.98
848.868	55.18
849.038	51.86
849.208	56.11
849.378	51.75
849.548	37.02
849.718	53.49
849.887	64.04
850.057	64.48
850.227	67.6
850.397	93.94
850.567	80.23
850.737	57.17
850.906	50.15
851.076	62.89
851.246	62.62
851.415	57.35
851.585	62.88
851.755	63.52
851.924	49.38
852.094	37.49
852.264	55.22
852.433	41.59
852.603	33.64
852.772	37.48
852.942	33.19
853.111	32.85
853.281	44.22
853.45	51.78
853.62	57.02
853.789	61.32
853.959	58.83
854.128	59.59
854.297	55.47
854.467	51.63
854.636	49.95
854.805	68.68
854.975	53.82
855.144	46.74
855.313	59.69
855.482	46.17
855.652	9.36
855.821	28.72
855.99	34.69
856.159	34.78
856.328	45.83
856.497	49.96
856.667	43.76
856.836	39.99
857.005	15.29
857.174	22.55
857.343	47.07
857.512	50.07
857.681	66.91
857.85	87.26
858.019	105.81
858.188	72.11
858.356	59.15
858.525	51.41
858.694	21.36
858.863	47.12
859.032	40.73
859.201	63.52
859.369	41.22
859.538	79.56
859.707	73.56
859.876	75.8
860.044	68.75
860.213	87.88
860.382	57.71
860.55	55.74
860.719	45.82
860.888	35.56
861.056	39.08
861.225	30.17
861.393	44.11
861.562	45.82
861.73	49.58
861.899	29.55
862.067	37.32
862.236	33
862.404	30.35
862.572	41.42
862.741	55.93
862.909	76.86
863.078	72.94
863.246	87.95
863.414	83.47
863.582	78.39
863.751	65.27
863.919	62.04
864.087	75.69
864.255	108.68
864.424	118.26
864.592	99.36
864.76	135.84
864.928	170.74
865.096	118.69
865.264	128.54
865.432	120.25
865.6	99.36
865.768	64.34
865.936	65.81
866.104	67.3
866.272	91.43
866.44	64.26
866.608	66.3
866.776	31.4
866.944	25.04
867.112	-12.64
867.28	-19.5
867.448	32.23
867.615	91.04
867.783	90.6
867.951	129.04
868.119	125.85
868.286	66.34
868.454	56.26
868.622	42.32
868.789	36.6
868.957	57.78
869.125	75.54
869.292	44.76
869.46	45.51
869.627	48.31
869.795	17.69
869.963	24.97
870.13	45.87
870.298	32.33
870.465	25.75
870.632	46.97
870.8	43.25
870.967	34.91
871.135	48.95
871.302	57.91
871.469	49.44
871.637	73.35
871.804	79.53
871.971	30.79
872.139	45.88
872.306	65.74
872.473	47.09
872.64	53.07
872.807	57.43
872.975	56.05
873.142	46.27
873.309	46.41
873.476	26.5
873.643	21.87
873.81	15.52
873.977	44
874.144	34.47
874.311	34.95
874.478	37.84
874.645	26.62
874.812	6.95
874.979	39.43
875.146	37.26
875.313	49.4
875.48	77.41
875.647	79.51
875.813	59.17
875.98	59.68
876.147	59.08
876.314	48.15
876.481	34.35
876.647	33.71
876.814	45.8
876.981	37.77
877.147	33.86
877.314	39.69
877.481	60.51
877.647	79.66
877.814	52.57
877.98	32.57
878.147	74.99
878.314	61.76
878.48	42.71
878.647	60.96
878.813	78.46
878.979	51.15
879.146	17.9
879.312	28.54
879.479	13.79
879.645	11.17
879.811	18.28
879.978	36.78
880.144	17.8
880.31	26.29
880.477	21.73
880.643	9.13
880.809	16.6
880.975	48.86
881.142	38.95
881.308	54.23
881.474	44.37
881.64	60.55
881.806	35.1
881.972	42.97
882.138	39.83
882.304	95.03
882.47	73.73
882.636	227.69
882.802	63.04
882.968	263.79
883.134	13.8
883.3	42.1
883.466	-7.52
883.632	52.65
883.798	39.21
883.964	28.38
884.129	12.67
884.295	30.75
884.461	17.19
884.627	22.98
884.793	35.32
884.958	46.54
885.124	53.64
885.29	37.13
885.455	25.65
885.621	-7.57
885.787	7.21
885.952	9.1
886.118	20.35
886.283	54.16
886.449	55.46
886.614	61.53
886.78	71.78
886.945	74.6
887.111	53.48
887.276	60.46
887.442	51.33
887.607	54.94
887.773	62.37
887.938	53.1
888.103	19.56
888.269	64.85
888.434	44.44
888.599	29.79
888.764	44.55
888.93	83.69
889.095	56.35
889.26	67.01
889.425	49.81
889.59	61.82
889.756	54.55
889.921	51.76
890.086	49.55
890.251	41.09
890.416	51.53
890.581	44.39
890.746	40.69
890.911	54.07
891.076	62.26
891.241	28.24
891.406	37.36
891.571	45.98
891.736	76.84
891.901	68.63
892.065	98.06
892.23	54.99
892.395	53.56
892.56	28.73
892.725	62.61
892.889	71.53
893.054	104.86
893.219	70.06
893.384	56.94
893.548	15.85
893.713	9.65
893.878	-12.93
