Data from Ofra_PS_Phys_2GT38_Reflection_2.txt Node
Date: Tue Jul 20 17:50:20 EDT 2021
User: USUARIO
Spectrometer: FLMT01687
Trigger mode: 0
Integration Time (sec): 1.042999E0
Scans to average: 2
Electric dark correction enabled: true
Nonlinearity correction enabled: false
Boxcar width: 2
XAxis mode: Wavelengths
Number of Pixels in Spectrum: 3648
>>>>>Begin Spectral Data<<<<<
179.494	64.31
179.716	54.2
179.937	-0.06
180.158	-329.62
180.38	-422.7
180.601	451.7
180.823	332.5
181.044	0.26
181.265	-299.42
181.486	-24.91
181.708	-39.63
181.929	-83.92
182.15	-10.65
182.372	202.46
182.593	19.99
182.814	23.19
183.035	25.8
183.257	31.75
183.478	29.73
183.699	21.17
183.92	21.08
184.141	6.91
184.363	-3.74
184.584	21.62
184.805	40.01
185.026	44.5
185.247	48.92
185.468	46.73
185.689	37.87
185.91	44.59
186.132	28.62
186.353	35.06
186.574	57.91
186.795	85.11
187.016	79.19
187.237	107.26
187.458	124.13
187.679	111.68
187.9	1.03
188.121	-62.64
188.342	-351.42
188.563	-118.83
188.784	-73.17
189.005	8.69
189.226	38.47
189.447	50.73
189.667	42.03
189.888	117.02
190.109	74.38
190.33	71.48
190.551	79.25
190.772	79.07
190.993	42.29
191.214	61.64
191.434	45.2
191.655	28.83
191.876	18.43
192.097	25.94
192.318	43.57
192.538	46.38
192.759	80.19
192.98	76.72
193.201	79.46
193.421	44.15
193.642	53.38
193.863	38.07
194.083	71.43
194.304	54.77
194.525	39.43
194.745	30.96
194.966	37.06
195.187	-8.56
195.407	-40.23
195.628	15.62
195.848	27.22
196.069	47.79
196.29	57.43
196.51	62.57
196.731	57.6
196.951	33.99
197.172	1.68
197.392	-0.03
197.613	10.47
197.833	25.58
198.054	32.15
198.274	42.94
198.495	41.07
198.715	46.8
198.936	31.07
199.156	22.89
199.377	10.7
199.597	6.91
199.817	-4.4
200.038	10.42
200.258	18.94
200.479	45.91
200.699	37.74
200.919	19.37
201.14	31.19
201.36	29.13
201.58	-41.06
201.801	32.4
202.021	83.97
202.241	5.88
202.461	18.93
202.682	33.15
202.902	-53.11
203.122	-33.05
203.342	4.07
203.563	10.77
203.783	18.51
204.003	37.82
204.223	44.68
204.443	51.51
204.663	8.23
204.884	69.81
205.104	40.84
205.324	23.41
205.544	12.97
205.764	40.54
205.984	2.8
206.204	7.06
206.424	40.94
206.644	28.91
206.864	10.23
207.084	24.77
207.304	26.45
207.525	-13.93
207.745	-18.94
207.964	-33.53
208.184	-6.76
208.404	10.93
208.624	15.24
208.844	29.74
209.064	28.67
209.284	22.26
209.504	13
209.724	27.82
209.944	20.1
210.164	2.99
210.384	2.31
210.604	28.49
210.823	10.67
211.043	-16.3
211.263	4.1
211.483	-8.4
211.703	-10.63
211.922	-14.28
212.142	13.52
212.362	9.68
212.582	-5.51
212.801	-11.87
213.021	7.94
213.241	-81.13
213.461	-37.54
213.68	-8.1
213.9	-57.34
214.12	-72.17
214.339	-71.53
214.559	-44.56
214.779	-3.11
214.998	46.21
215.218	56.69
215.438	69.02
215.657	52.54
215.877	41.98
216.096	37.37
216.316	35.71
216.535	33.92
216.755	35.97
216.974	27.95
217.194	10.49
217.413	5.29
217.633	-7.6
217.852	-0.67
218.072	10.49
218.291	22.22
218.511	33.47
218.73	43.73
218.95	45.33
219.169	48.24
219.389	52.57
219.608	40.52
219.827	39.46
220.047	26.24
220.266	38.7
220.485	23.29
220.705	25.05
220.924	24.49
221.143	27.17
221.363	10.67
221.582	25
221.801	27.59
222.021	7.73
222.24	0.34
222.459	14.93
222.678	-13.33
222.897	39.49
223.117	53.04
223.336	82.02
223.555	61.12
223.774	70.14
223.993	45.12
224.213	29.79
224.432	16.7
224.651	17.75
224.87	30.35
225.089	7.06
225.308	10.26
225.527	2.35
225.746	5.45
225.965	-3.03
226.184	22.79
226.404	37.39
226.623	14.31
226.842	9.54
227.061	22.38
227.28	40.94
227.499	11.77
227.718	36.85
227.936	41.98
228.155	22.45
228.374	-5.29
228.593	4.2
228.812	8.26
229.031	21.73
229.25	28.64
229.469	46.34
229.688	41.69
229.907	45.55
230.125	44.82
230.344	59.05
230.563	37.69
230.782	32.57
231.001	30.02
231.22	13.28
231.438	1.66
231.657	14.09
231.876	30.38
232.095	25.56
232.313	35.42
232.532	39.75
232.751	33.27
232.969	22.99
233.188	31.25
233.407	12.89
233.625	29.56
233.844	39.53
234.063	32.91
234.281	31.47
234.5	40.88
234.719	32.55
234.937	33.88
235.156	42.49
235.374	22.59
235.593	8.15
235.811	-29.99
236.03	-61.45
236.249	-82.18
236.467	-37.1
236.686	5.33
236.904	6.28
237.123	26.06
237.341	35.42
237.559	43.2
237.778	33.7
237.996	31.24
238.215	22.17
238.433	6.19
238.652	5.8
238.87	3.26
239.088	15.59
239.307	11.41
239.525	28.2
239.743	32.89
239.962	18.02
240.18	6.45
240.398	6.99
240.617	1.36
240.835	7.42
241.053	44.21
241.271	48.14
241.49	51.94
241.708	52.54
241.926	44.5
242.144	41.71
242.363	37.11
242.581	42.42
242.799	43.88
243.017	41.32
243.235	22.18
243.453	31.66
243.672	44.02
243.89	27.26
244.108	22.22
244.326	26.67
244.544	20.95
244.762	-2.38
244.98	18.65
245.198	24.71
245.416	28.21
245.634	31.03
245.852	42.3
246.07	42.92
246.288	34
246.506	46.7
246.724	45.11
246.942	27.67
247.16	20.49
247.378	24.34
247.596	25.36
247.814	6.48
248.032	3.53
248.25	20.77
248.468	24.77
248.685	19.95
248.903	30
249.121	37.2
249.339	27.27
249.557	35.34
249.775	52.82
249.992	67.24
250.21	56.12
250.428	27.67
250.646	7.38
250.863	-11.49
251.081	-25.79
251.299	-49.91
251.517	-16.94
251.734	-55.34
251.952	-73.99
252.17	-14.15
252.387	7.13
252.605	-4.27
252.823	26.32
253.04	34.26
253.258	30.89
253.475	38.09
253.693	60.47
253.911	59.77
254.128	60.37
254.346	39.63
254.563	46.99
254.781	17.33
254.998	1.05
255.216	0.32
255.433	-8.18
255.651	-12.3
255.868	-12.44
256.086	15.04
256.303	20.94
256.521	26.88
256.738	20.47
256.956	36.12
257.173	33.34
257.39	2.01
257.608	-6.42
257.825	31.04
258.043	35.51
258.26	41.71
258.477	62.37
258.695	68.13
258.912	58.68
259.129	68.61
259.346	47.6
259.564	34.25
259.781	33.34
259.998	17.77
260.216	-3.05
260.433	-2.98
260.65	15.06
260.867	3.13
261.084	20.22
261.302	25.49
261.519	29.52
261.736	14.39
261.953	32.9
262.17	32.72
262.387	29.54
262.604	50.82
262.822	19.26
263.039	-2.73
263.256	-21.07
263.473	-52.93
263.69	-42.9
263.907	-4.25
264.124	-29.28
264.341	2.49
264.558	23.16
264.775	31.49
264.992	12.68
265.209	25.45
265.426	-13.68
265.643	-8.11
265.86	-12.55
266.077	-9.22
266.294	12.74
266.51	43.34
266.727	50.02
266.944	61.38
267.161	60.81
267.378	57.46
267.595	43.43
267.812	49.68
268.028	42.09
268.245	37.93
268.462	28.43
268.679	13.95
268.896	5.31
269.112	16.52
269.329	13.94
269.546	-12.83
269.763	-3.57
269.979	8.25
270.196	8.66
270.413	21.18
270.629	15.85
270.846	24.55
271.063	8.05
271.279	11.53
271.496	6.73
271.712	39.17
271.929	39.41
272.146	53.75
272.362	59.29
272.579	51.24
272.795	8.32
273.012	-1.57
273.228	-10.71
273.445	-17.28
273.661	-15.04
273.878	-6.69
274.094	4.99
274.311	22.27
274.527	27.89
274.744	7.04
274.96	25.31
275.177	11.5
275.393	-0.88
275.609	10.29
275.826	45.51
276.042	39.82
276.259	42.33
276.475	40.12
276.691	55.98
276.908	58.19
277.124	52.52
277.34	50.1
277.557	63.8
277.773	41.16
277.989	32.11
278.205	28.18
278.422	36.06
278.638	29.37
278.854	37.42
279.07	26.04
279.286	29.74
279.503	41.99
279.719	33.75
279.935	21.41
280.151	33.34
280.367	19.74
280.583	-20.66
280.799	-18.03
281.016	6.82
281.232	6.63
281.448	1.87
281.664	24.92
281.88	32.03
282.096	23.46
282.312	33.34
282.528	33.75
282.744	15
282.96	14.37
283.176	19.47
283.392	10.57
283.608	6.91
283.824	8.16
284.04	13.03
284.256	19.57
284.471	35.85
284.687	47.93
284.903	60.49
285.119	52.36
285.335	30.52
285.551	22.37
285.767	22.08
285.982	26.62
286.198	32.01
286.414	50.84
286.63	43.01
286.846	41.31
287.061	29.39
287.277	35.28
287.493	12.99
287.709	11.78
287.924	13.53
288.14	28.72
288.356	14.9
288.571	27.1
288.787	23.97
289.003	10.13
289.218	19.02
289.434	29.33
289.65	18.68
289.865	13.92
290.081	42.98
290.296	44.08
290.512	27.35
290.727	34.78
290.943	29.53
291.159	15
291.374	-37.53
291.59	-16.45
291.805	-18.73
292.021	-16.8
292.236	6.01
292.451	14.02
292.667	12.58
292.882	19.67
293.098	35.6
293.313	16.01
293.529	37.83
293.744	5.74
293.959	-1.99
294.175	-14.45
294.39	-0.3
294.605	-15.81
294.821	-23.9
295.036	-42.68
295.251	-32.44
295.467	-52.32
295.682	-43.13
295.897	-14.36
296.112	-25.3
296.328	-27.12
296.543	-1.24
296.758	11.25
296.973	6.67
297.188	22.62
297.404	24.67
297.619	11.77
297.834	-37.86
298.049	-55.63
298.264	-15.97
298.479	-33.6
298.694	-17.24
298.909	-27.16
299.125	4.7
299.34	-11.83
299.555	8.3
299.77	1.15
299.985	38.07
300.2	17.38
300.415	-10.85
300.63	-21.03
300.845	5.3
301.06	12.97
301.275	14.01
301.49	12.25
301.704	30.6
301.919	10.5
302.134	-18.15
302.349	-14.87
302.564	7
302.779	0.17
302.994	16.83
303.209	20.71
303.423	17.47
303.638	11.7
303.853	19.09
304.068	21.3
304.283	37.96
304.497	55.33
304.712	65.11
304.927	45.71
305.142	30.47
305.356	20.2
305.571	15.4
305.786	8.73
306	21.36
306.215	38.45
306.43	41.07
306.644	37.05
306.859	43.73
307.074	31.01
307.288	25.39
307.503	32.5
307.717	27.53
307.932	16.06
308.147	27.65
308.361	26.41
308.576	12.23
308.79	12.69
309.005	13.79
309.219	14.42
309.434	20.25
309.648	15.7
309.863	13.92
310.077	35.02
310.292	27.48
310.506	3.53
310.72	21.79
310.935	13.29
311.149	11.43
311.364	13.62
311.578	23.93
311.792	29.67
312.007	45.95
312.221	34.36
312.435	35.24
312.649	30.29
312.864	29.59
313.078	15.47
313.292	5.55
313.507	-4.92
313.721	5.4
313.935	10.67
314.149	22.35
314.363	38.53
314.578	46.75
314.792	31.29
315.006	14.94
315.22	-0.54
315.434	-14.23
315.648	-31.85
315.862	-31.61
316.077	-52.87
316.291	-36.9
316.505	-14.17
316.719	-0.4
316.933	2.67
317.147	2.15
317.361	-7.26
317.575	3.32
317.789	16.43
318.003	19.72
318.217	17.61
318.431	26.65
318.645	12.65
318.859	13.39
319.073	31.36
319.287	43.08
319.5	49.66
319.714	54.89
319.928	59.74
320.142	51.66
320.356	43.92
320.57	35.53
320.784	25.63
320.997	10.91
321.211	-1.95
321.425	1.24
321.639	4.11
321.853	17.05
322.066	21.28
322.28	19.02
322.494	17.13
322.707	4.59
322.921	2.52
323.135	-6.43
323.349	-4.16
323.562	-20.89
323.776	-0.17
323.989	11.65
324.203	7.51
324.417	6.93
324.63	23.54
324.844	12.03
325.057	22.34
325.271	29.14
325.485	22.88
325.698	-1.21
325.912	17.89
326.125	-1.38
326.339	-5.71
326.552	-1.75
326.766	16.41
326.979	4.82
327.193	19.4
327.406	32.36
327.619	33.91
327.833	39.65
328.046	33.21
328.26	17.14
328.473	12.76
328.686	6.89
328.9	9.92
329.113	32.48
329.326	28.99
329.54	36.93
329.753	38.38
329.966	45.97
330.179	39.2
330.393	62.47
330.606	56.65
330.819	56.45
331.032	46.9
331.246	47.69
331.459	31.68
331.672	44.54
331.885	24.61
332.098	33.52
332.311	31.06
332.525	21.99
332.738	-8.9
332.951	18.28
333.164	18.39
333.377	8.3
333.59	19.04
333.803	38.85
334.016	46.49
334.229	29.9
334.442	42
334.655	36.39
334.868	43.37
335.081	41.37
335.294	46.44
335.507	46.39
335.72	49.71
335.933	29.64
336.146	11.35
336.359	25.05
336.572	3.38
336.785	10.87
336.997	17.96
337.21	45.02
337.423	29.42
337.636	20.16
337.849	20.73
338.062	5.26
338.274	10.5
338.487	7.86
338.7	19.59
338.913	22.46
339.125	28.3
339.338	9.99
339.551	13.6
339.763	8.6
339.976	11.57
340.189	13.84
340.402	5.48
340.614	2.27
340.827	18.25
341.039	10.42
341.252	8.8
341.465	9.25
341.677	32.16
341.89	0.84
342.102	20.94
342.315	5.44
342.527	8.5
342.74	11.29
342.952	22.71
343.165	23.34
343.377	32.92
343.59	32.73
343.802	35.14
344.015	44.47
344.227	34.82
344.44	38.63
344.652	43.89
344.864	26.2
345.077	21.22
345.289	23.3
345.502	20.55
345.714	-0.02
345.926	10.11
346.139	1.7
346.351	18.07
346.563	26.52
346.775	75.5
346.988	65.17
347.2	72.57
347.412	25.58
347.624	7.67
347.837	7.17
348.049	11
348.261	14.79
348.473	17.04
348.685	21.46
348.897	31.61
349.11	37.77
349.322	29.15
349.534	30.83
349.746	42.98
349.958	30.64
350.17	21.39
350.382	25.59
350.594	28.3
350.806	19.38
351.018	34.68
351.23	28.63
351.442	23.95
351.654	22.95
351.866	12.17
352.078	-10.67
352.29	-12.55
352.502	-13.48
352.714	-19.96
352.926	-27.91
353.138	-8.59
353.35	5.6
353.561	8.9
353.773	11.1
353.985	26.42
354.197	14.28
354.409	21.94
354.621	33.01
354.832	22.29
355.044	15.8
355.256	21.47
355.468	14.7
355.679	13.9
355.891	27.22
356.103	30.83
356.314	38.48
356.526	41.3
356.738	27.02
356.949	30.66
357.161	48.55
357.373	53.39
357.584	44.52
357.796	40.07
358.008	38.58
358.219	21
358.431	15.63
358.642	22.34
358.854	21.59
359.065	16.33
359.277	6.94
359.488	10.25
359.7	4.07
359.911	0.99
360.123	14.79
360.334	19.78
360.546	12.95
360.757	15.49
360.969	27.96
361.18	21.68
361.391	27.7
361.603	30.27
361.814	20.24
362.025	14.58
362.237	22.09
362.448	13.42
362.659	13.11
362.871	19.03
363.082	16.34
363.293	10.84
363.504	15.41
363.716	11.84
363.927	-3.71
364.138	-6.81
364.349	-16.83
364.56	-9.48
364.772	-12.22
364.983	14.75
365.194	29.09
365.405	11.73
365.616	-8.74
365.827	-6.22
366.038	-5.95
366.25	-13.44
366.461	18.16
366.672	41.8
366.883	45.32
367.094	32.31
367.305	27.76
367.516	19.5
367.727	17.43
367.938	21.08
368.149	29.44
368.36	31.51
368.571	31.45
368.781	30.4
368.992	25.6
369.203	27.41
369.414	18.15
369.625	21.81
369.836	14.16
370.047	17.53
370.258	9.8
370.468	22.11
370.679	22.56
370.89	23.2
371.101	21.97
371.312	30.08
371.522	23.3
371.733	18.42
371.944	25.44
372.155	25.8
372.365	15.57
372.576	23.39
372.787	17.88
372.997	6.1
373.208	5.88
373.419	12.32
373.629	-1.87
373.84	6.53
374.05	-0.43
374.261	9.17
374.472	22.12
374.682	34.79
374.893	37.36
375.103	57.46
375.314	55.51
375.524	35.1
375.735	28.78
375.945	21.49
376.156	9.45
376.366	0.44
376.577	17.82
376.787	22.8
376.997	31.4
377.208	36.86
377.418	40.17
377.629	38.68
377.839	29.87
378.049	17.92
378.26	23.47
378.47	29.33
378.68	21.81
378.89	27.88
379.101	42.83
379.311	39.89
379.521	20.56
379.732	28.5
379.942	22.09
380.152	8.57
380.362	13.02
380.572	21.94
380.783	13.45
380.993	25.23
381.203	19.42
381.413	9.15
381.623	13.01
381.833	9.05
382.043	-16.51
382.253	-25.41
382.463	-9.69
382.674	-23.11
382.884	-16.1
383.094	0.1
383.304	7.89
383.514	-3.59
383.724	5.11
383.934	5.18
384.144	-2.99
384.353	-0.93
384.563	1.33
384.773	-4.08
384.983	-3.86
385.193	6.09
385.403	5.28
385.613	8.16
385.823	6.62
386.033	1.94
386.242	-1.13
386.452	-0.74
386.662	-1.51
386.872	7.16
387.082	5.39
387.291	2.62
387.501	1.56
387.711	3.56
387.921	1.98
388.13	6.32
388.34	10.1
388.55	9.98
388.759	8.51
388.969	9.09
389.179	10.11
389.388	8.3
389.598	11.51
389.807	12.34
390.017	11.78
390.227	9.7
390.436	6.93
390.646	5.28
390.855	6.94
391.065	6.59
391.274	9.6
391.484	11.77
391.693	12.44
391.903	13.65
392.112	13.14
392.322	10.57
392.531	8.53
392.74	5.98
392.95	3.7
393.159	3.21
393.369	3.91
393.578	4.3
393.787	4.49
393.997	5.15
394.206	6.55
394.415	7.92
394.625	8.96
394.834	9.4
395.043	9.7
395.252	9.28
395.462	8.74
395.671	8.64
395.88	9.2
396.089	9.15
396.298	8.6
396.508	7.46
396.717	7.1
396.926	7.32
397.135	6.86
397.344	5.69
397.553	5.94
397.762	6.39
397.971	5.95
398.181	6.03
398.39	6.62
398.599	6.36
398.808	5.84
399.017	6.2
399.226	6.33
399.435	6.71
399.644	6.87
399.853	7.22
400.062	6.68
400.27	6.61
400.479	6.54
400.688	6.71
400.897	6.46
401.106	6.74
401.315	6.38
401.524	6.33
401.733	6.76
401.941	6.62
402.15	6.6
402.359	6.94
402.568	6.68
402.777	6.31
402.985	6.22
403.194	6.24
403.403	6.29
403.612	6.47
403.82	6.2
404.029	6.59
404.238	6.5
404.446	6.25
404.655	6.29
404.864	6.29
405.072	6.16
405.281	6.36
405.489	6.25
405.698	6.15
405.906	6.1
406.115	6.06
406.324	5.79
406.532	5.76
406.741	5.79
406.949	5.83
407.158	5.79
407.366	5.81
407.574	5.75
407.783	5.66
407.991	5.69
408.2	5.66
408.408	5.59
408.617	5.75
408.825	5.77
409.033	5.8
409.242	5.78
409.45	5.81
409.658	5.8
409.867	5.93
410.075	5.83
410.283	5.74
410.491	5.59
410.7	5.47
410.908	5.26
411.116	5.26
411.324	5.2
411.533	5.19
411.741	5.18
411.949	5.35
412.157	5.4
412.365	5.36
412.573	5.41
412.781	5.48
412.99	5.35
413.198	5.31
413.406	5.38
413.614	5.51
413.822	5.56
414.03	5.45
414.238	5.38
414.446	5.4
414.654	5.34
414.862	5.23
415.07	5.24
415.278	5.28
415.486	5.23
415.694	5.15
415.902	5.24
416.109	5.19
416.317	5.19
416.525	5.19
416.733	5.18
416.941	5.11
417.149	5.23
417.357	5.26
417.564	5.25
417.772	5.29
417.98	5.2
418.188	5.12
418.395	5.03
418.603	4.89
418.811	4.84
419.019	4.77
419.226	4.78
419.434	4.77
419.642	4.86
419.849	4.84
420.057	4.8
420.265	4.8
420.472	4.66
420.68	4.82
420.887	4.77
421.095	4.87
421.302	4.88
421.51	5.01
421.717	4.9
421.925	4.8
422.132	4.72
422.34	4.63
422.547	4.7
422.755	4.67
422.962	4.65
423.17	4.7
423.377	4.68
423.585	4.5
423.792	4.43
423.999	4.53
424.207	4.45
424.414	4.36
424.621	4.45
424.829	4.26
425.036	4.13
425.243	4.13
425.451	4.3
425.658	4.17
425.865	4.48
426.072	4.44
426.28	4.47
426.487	4.27
426.694	4.3
426.901	4.27
427.108	4.38
427.315	4.45
427.523	4.55
427.73	4.69
427.937	4.58
428.144	4.55
428.351	4.48
428.558	4.48
428.765	4.2
428.972	4.23
429.179	4.24
429.386	4.31
429.593	4.33
429.8	4.48
430.007	4.5
430.214	4.56
430.421	4.44
430.628	4.59
430.835	4.7
431.042	4.71
431.249	4.82
431.456	5.01
431.662	4.92
431.869	4.86
432.076	4.9
432.283	4.89
432.49	4.71
432.697	4.66
432.903	4.59
433.11	4.54
433.317	4.46
433.524	4.57
433.73	4.53
433.937	4.61
434.144	4.57
434.35	4.61
434.557	4.53
434.764	4.59
434.97	4.53
435.177	4.61
435.384	4.58
435.59	4.62
435.797	4.75
436.003	4.79
436.21	4.75
436.416	4.75
436.623	4.71
436.829	4.62
437.036	4.71
437.242	4.77
437.449	4.79
437.655	4.93
437.862	4.94
438.068	4.79
438.275	4.8
438.481	4.86
438.687	4.61
438.894	4.65
439.1	4.85
439.307	4.85
439.513	4.8
439.719	4.99
439.926	5.02
440.132	5.15
440.338	5.16
440.544	5.23
440.751	5.3
440.957	5.16
441.163	4.95
441.369	4.98
441.575	4.93
441.782	4.94
441.988	5.14
442.194	5.19
442.4	5.13
442.606	5.06
442.812	5.04
443.018	4.98
443.224	5.01
443.431	5.19
443.637	5.27
443.843	5.27
444.049	5.26
444.255	5.25
444.461	5.15
444.667	5.12
444.873	5.05
445.079	5.04
445.284	5.04
445.49	5
445.696	5.05
445.902	5.14
446.108	5.2
446.314	5.12
446.52	5.16
446.726	5.28
446.931	5.3
447.137	5.2
447.343	5.25
447.549	5.39
447.755	5.22
447.96	5.23
448.166	5.33
448.372	5.45
448.578	5.35
448.783	5.45
448.989	5.51
449.195	5.48
449.4	5.39
449.606	5.4
449.812	5.38
450.017	5.29
450.223	5.33
450.428	5.38
450.634	5.3
450.84	5.38
451.045	5.47
451.251	5.51
451.456	5.52
451.662	5.52
451.867	5.53
452.073	5.52
452.278	5.38
452.483	5.31
452.689	5.31
452.894	5.21
453.1	5.17
453.305	5.32
453.51	5.33
453.716	5.44
453.921	5.46
454.127	5.51
454.332	5.5
454.537	5.5
454.742	5.45
454.948	5.49
455.153	5.44
455.358	5.33
455.563	5.4
455.769	5.45
455.974	5.52
456.179	5.5
456.384	5.49
456.589	5.4
456.795	5.4
457	5.31
457.205	5.24
457.41	5.25
457.615	5.31
457.82	5.33
458.025	5.35
458.23	5.47
458.435	5.43
458.64	5.39
458.845	5.38
459.05	5.3
459.255	5.25
459.46	5.33
459.665	5.37
459.87	5.26
460.075	5.39
460.28	5.41
460.485	5.45
460.69	5.35
460.895	5.46
461.099	5.4
461.304	5.47
461.509	5.45
461.714	5.6
461.919	5.57
462.123	5.55
462.328	5.48
462.533	5.56
462.738	5.58
462.942	5.62
463.147	5.66
463.352	5.73
463.556	5.74
463.761	5.72
463.966	5.68
464.17	5.83
464.375	5.82
464.58	5.79
464.784	5.78
464.989	5.8
465.193	5.71
465.398	5.76
465.602	5.66
465.807	5.57
466.011	5.63
466.216	5.68
466.42	5.7
466.625	5.88
466.829	6.01
467.034	5.99
467.238	5.93
467.443	5.86
467.647	5.84
467.851	5.8
468.056	5.78
468.26	5.88
468.464	5.85
468.669	5.77
468.873	5.77
469.077	5.77
469.282	5.75
469.486	5.82
469.69	5.84
469.894	5.85
470.099	5.89
470.303	5.95
470.507	5.99
470.711	6.04
470.915	6.08
471.119	6.08
471.324	6.11
471.528	6.05
471.732	6.05
471.936	6
472.14	6.06
472.344	6.02
472.548	6.1
472.752	6.23
472.956	6.31
473.16	6.34
473.364	6.39
473.568	6.35
473.772	6.24
473.976	6.3
474.18	6.19
474.384	6.24
474.588	6.2
474.792	6.25
474.995	6.28
475.199	6.45
475.403	6.36
475.607	6.43
475.811	6.41
476.015	6.41
476.218	6.35
476.422	6.36
476.626	6.37
476.83	6.43
477.033	6.42
477.237	6.47
477.441	6.56
477.644	6.58
477.848	6.66
478.052	6.7
478.255	6.71
478.459	6.69
478.663	6.78
478.866	6.73
479.07	6.69
479.273	6.69
479.477	6.71
479.681	6.7
479.884	6.74
480.088	6.75
480.291	6.78
480.495	6.77
480.698	6.72
480.901	6.71
481.105	6.67
481.308	6.62
481.512	6.69
481.715	6.68
481.919	6.74
482.122	6.82
482.325	6.91
482.529	6.91
482.732	6.93
482.935	6.86
483.138	6.77
483.342	6.76
483.545	6.76
483.748	6.73
483.952	6.8
484.155	6.91
484.358	6.91
484.561	6.86
484.764	6.88
484.967	6.84
485.171	6.86
485.374	6.84
485.577	6.91
485.78	6.94
485.983	7
486.186	6.99
486.389	6.97
486.592	6.94
486.795	6.98
486.998	6.91
487.201	6.91
487.404	6.92
487.607	6.95
487.81	6.95
488.013	6.95
488.216	6.95
488.419	6.97
488.622	6.86
488.825	6.91
489.028	6.94
489.231	6.9
489.433	6.83
489.636	6.91
489.839	6.82
490.042	6.87
490.245	6.88
490.447	6.95
490.65	6.9
490.853	6.83
491.056	6.75
491.258	6.75
491.461	6.7
491.664	6.74
491.866	6.8
492.069	6.88
492.272	6.89
492.474	6.91
492.677	6.94
492.879	6.92
493.082	6.91
493.285	6.95
493.487	6.96
493.69	6.95
493.892	6.85
494.095	6.86
494.297	6.86
494.5	6.94
494.702	6.9
494.905	7.05
495.107	7.05
495.309	7
495.512	6.96
495.714	7.05
495.917	7.09
496.119	7.06
496.321	7.14
496.524	7.17
496.726	7.12
496.928	7.09
497.13	7.1
497.333	7.01
497.535	7.04
497.737	7.05
497.939	7.1
498.142	7.07
498.344	7.08
498.546	7.06
498.748	7.09
498.95	7.06
499.152	7.11
499.355	7.13
499.557	7.14
499.759	7.19
499.961	7.17
500.163	7.2
500.365	7.29
500.567	7.34
500.769	7.28
500.971	7.35
501.173	7.36
501.375	7.34
501.577	7.29
501.779	7.39
501.981	7.41
502.183	7.4
502.385	7.46
502.587	7.47
502.788	7.43
502.99	7.38
503.192	7.39
503.394	7.35
503.596	7.37
503.798	7.46
503.999	7.54
504.201	7.59
504.403	7.6
504.605	7.69
504.806	7.7
505.008	7.68
505.21	7.7
505.411	7.75
505.613	7.68
505.815	7.69
506.016	7.78
506.218	7.8
506.42	7.81
506.621	7.87
506.823	7.84
507.024	7.81
507.226	7.82
507.427	7.86
507.629	7.87
507.83	7.93
508.032	8.01
508.233	8.07
508.435	8.08
508.636	8.12
508.838	8.14
509.039	8.13
509.24	8.1
509.442	8.02
509.643	7.98
509.845	7.98
510.046	7.97
510.247	8.05
510.448	8.14
510.65	8.26
510.851	8.3
511.052	8.39
511.254	8.39
511.455	8.35
511.656	8.26
511.857	8.22
512.058	8.23
512.26	8.21
512.461	8.29
512.662	8.42
512.863	8.45
513.064	8.38
513.265	8.41
513.466	8.41
513.667	8.4
513.868	8.43
514.069	8.48
514.27	8.48
514.471	8.48
514.672	8.54
514.873	8.56
515.074	8.6
515.275	8.58
515.476	8.6
515.677	8.54
515.878	8.55
516.079	8.57
516.28	8.59
516.481	8.6
516.682	8.61
516.882	8.65
517.083	8.63
517.284	8.63
517.485	8.64
517.686	8.61
517.886	8.6
518.087	8.57
518.288	8.62
518.488	8.68
518.689	8.71
518.89	8.78
519.091	8.81
519.291	8.78
519.492	8.77
519.692	8.81
519.893	8.8
520.094	8.87
520.294	8.95
520.495	9.01
520.695	9.04
520.896	9.07
521.096	9.06
521.297	9
521.497	8.99
521.698	8.99
521.898	8.98
522.099	8.99
522.299	9
522.499	9
522.7	9.03
522.9	9.04
523.101	9
523.301	9.07
523.501	9.06
523.702	9.05
523.902	9.04
524.102	9.16
524.302	9.12
524.503	9.14
524.703	9.16
524.903	9.17
525.103	9.13
525.304	9.25
525.504	9.3
525.704	9.31
525.904	9.31
526.104	9.32
526.304	9.27
526.504	9.23
526.705	9.27
526.905	9.31
527.105	9.37
527.305	9.39
527.505	9.44
527.705	9.45
527.905	9.45
528.105	9.37
528.305	9.39
528.505	9.43
528.705	9.5
528.905	9.57
529.105	9.67
529.304	9.75
529.504	9.81
529.704	9.75
529.904	9.77
530.104	9.81
530.304	9.77
530.503	9.71
530.703	9.72
530.903	9.72
531.103	9.73
531.303	9.74
531.502	9.87
531.702	9.92
531.902	9.92
532.101	9.97
532.301	10.01
532.501	9.92
532.7	9.92
532.9	9.98
533.1	9.93
533.299	9.97
533.499	10.02
533.698	10.03
533.898	10.04
534.097	10.07
534.297	10.02
534.496	10.09
534.696	10.1
534.895	10.15
535.095	10.21
535.294	10.32
535.494	10.36
535.693	10.41
535.892	10.44
536.092	10.47
536.291	10.46
536.491	10.46
536.69	10.5
536.889	10.47
537.088	10.47
537.288	10.49
537.487	10.58
537.686	10.63
537.886	10.68
538.085	10.7
538.284	10.67
538.483	10.65
538.682	10.61
538.882	10.65
539.081	10.69
539.28	10.82
539.479	10.88
539.678	10.9
539.877	10.95
540.076	11.05
540.275	11.07
540.474	11.05
540.673	11.15
540.872	11.2
541.071	11.24
541.27	11.26
541.469	11.33
541.668	11.39
541.867	11.45
542.066	11.49
542.265	11.57
542.464	11.6
542.663	11.61
542.862	11.65
543.06	11.67
543.259	11.69
543.458	11.73
543.657	11.79
543.856	11.83
544.054	11.9
544.253	11.89
544.452	12
544.651	12.01
544.849	12.01
545.048	11.98
545.247	12.07
545.445	12.08
545.644	12.16
545.843	12.24
546.041	12.39
546.24	12.44
546.438	12.54
546.637	12.56
546.836	12.63
547.034	12.63
547.233	12.65
547.431	12.69
547.63	12.77
547.828	12.79
548.027	12.82
548.225	12.89
548.423	12.99
548.622	13.07
548.82	13.18
549.019	13.31
549.217	13.45
549.415	13.49
549.614	13.64
549.812	13.7
550.01	13.76
550.209	13.75
550.407	13.85
550.605	13.82
550.803	13.92
551.002	14.03
551.2	14.15
551.398	14.23
551.596	14.42
551.794	14.49
551.993	14.52
552.191	14.63
552.389	14.64
552.587	14.65
552.785	14.71
552.983	14.91
553.181	15.03
553.379	15.18
553.577	15.3
553.775	15.38
553.973	15.39
554.171	15.4
554.369	15.49
554.567	15.57
554.765	15.62
554.963	15.74
555.161	15.91
555.359	16.02
555.557	16.1
555.755	16.28
555.952	16.38
556.15	16.47
556.348	16.58
556.546	16.7
556.744	16.78
556.941	16.83
557.139	16.95
557.337	17.06
557.535	17.12
557.732	17.26
557.93	17.39
558.128	17.49
558.325	17.61
558.523	17.77
558.721	17.84
558.918	18.04
559.116	18.1
559.313	18.16
559.511	18.33
559.708	18.49
559.906	18.59
560.104	18.83
560.301	18.98
560.498	19.1
560.696	19.17
560.893	19.24
561.091	19.29
561.288	19.52
561.486	19.51
561.683	19.71
561.88	19.92
562.078	20.07
562.275	20.07
562.473	20.33
562.67	20.37
562.867	20.4
563.064	20.48
563.262	20.61
563.459	20.69
563.656	20.9
563.853	21.07
564.051	21.24
564.248	21.33
564.445	21.48
564.642	21.53
564.839	21.61
565.036	21.72
565.234	21.9
565.431	21.99
565.628	22.14
565.825	22.28
566.022	22.4
566.219	22.45
566.416	22.53
566.613	22.64
566.81	22.76
567.007	22.84
567.204	23.01
567.401	23.15
567.598	23.34
567.795	23.41
567.991	23.51
568.188	23.62
568.385	23.66
568.582	23.69
568.779	23.76
568.976	23.99
569.172	24.02
569.369	24.18
569.566	24.3
569.763	24.45
569.96	24.45
570.156	24.52
570.353	24.54
570.55	24.62
570.746	24.64
570.943	24.62
571.14	24.7
571.336	24.79
571.533	24.77
571.729	24.84
571.926	24.97
572.123	24.99
572.319	25.08
572.516	25.09
572.712	25.21
572.909	25.22
573.105	25.26
573.302	25.2
573.498	25.34
573.695	25.26
573.891	25.3
574.087	25.36
574.284	25.47
574.48	25.5
574.677	25.54
574.873	25.6
575.069	25.64
575.266	25.66
575.462	25.62
575.658	25.7
575.854	25.69
576.051	25.66
576.247	25.67
576.443	25.72
576.639	25.75
576.835	25.79
577.032	25.83
577.228	25.88
577.424	25.85
577.62	25.84
577.816	25.84
578.012	25.83
578.208	25.77
578.404	25.88
578.6	25.86
578.796	25.84
578.993	25.98
579.189	26.06
579.384	26.11
579.58	26.05
579.776	26.03
579.972	25.93
580.168	25.77
580.364	25.64
580.56	25.72
580.756	25.8
580.952	25.84
581.148	25.85
581.343	25.76
581.539	25.65
581.735	25.6
581.931	25.55
582.127	25.57
582.322	25.65
582.518	25.75
582.714	25.75
582.909	25.77
583.105	25.81
583.301	25.77
583.496	25.65
583.692	25.58
583.888	25.43
584.083	25.4
584.279	25.37
584.474	25.38
584.67	25.36
584.866	25.39
585.061	25.34
585.257	25.36
585.452	25.41
585.648	25.32
585.843	25.28
586.039	25.44
586.234	25.41
586.429	25.29
586.625	25.34
586.82	25.38
587.015	25.15
587.211	25.12
587.406	25.16
587.601	25.25
587.797	25.31
587.992	25.39
588.187	25.42
588.383	25.44
588.578	25.4
588.773	25.28
588.968	25.42
589.163	25.49
589.359	25.59
589.554	25.53
589.749	25.58
589.944	25.46
590.139	25.52
590.334	25.48
590.529	25.61
590.724	25.74
590.919	25.84
591.114	25.81
591.309	25.79
591.504	25.71
591.699	25.66
591.894	25.58
592.089	25.64
592.284	25.7
592.479	25.83
592.674	25.94
592.869	26.06
593.064	26.08
593.259	26.24
593.454	26.29
593.648	26.3
593.843	26.28
594.038	26.38
594.233	26.36
594.428	26.39
594.622	26.56
594.817	26.68
595.012	26.63
595.206	26.72
595.401	26.82
595.596	26.8
595.79	26.85
595.985	27.01
596.18	27.14
596.374	27.27
596.569	27.42
596.763	27.59
596.958	27.64
597.153	27.68
597.347	27.73
597.542	27.82
597.736	27.84
597.931	27.95
598.125	27.99
598.319	28.11
598.514	28.22
598.708	28.37
598.903	28.37
599.097	28.5
599.291	28.59
599.486	28.58
599.68	28.61
599.874	28.75
600.069	28.83
600.263	28.88
600.457	28.85
600.651	28.87
600.846	28.94
601.04	28.99
601.234	28.98
601.428	29.07
601.622	29.11
601.817	29.22
602.011	29.24
602.205	29.17
602.399	29.18
602.593	29.21
602.787	29.05
602.981	29.03
603.175	29.15
603.369	29.24
603.563	29.24
603.757	29.28
603.951	29.31
604.145	29.17
604.339	29.08
604.533	29.11
604.727	29.06
604.921	28.96
605.115	28.95
605.309	28.9
605.502	28.88
605.696	28.91
605.89	28.94
606.084	29.04
606.278	29
606.471	28.87
606.665	28.71
606.859	28.69
607.053	28.53
607.246	28.47
607.44	28.35
607.634	28.26
607.827	28.1
608.021	28.07
608.214	28
608.408	27.93
608.602	27.92
608.795	27.95
608.989	27.89
609.182	27.86
609.376	27.88
609.569	27.93
609.763	27.78
609.956	27.7
610.15	27.51
610.343	27.42
610.537	27.25
610.73	27.28
610.923	27.05
611.117	27.01
611.31	26.93
611.504	26.88
611.697	26.69
611.89	26.75
612.083	26.68
612.277	26.62
612.47	26.51
612.663	26.4
612.856	26.31
613.05	26.22
613.243	26.12
613.436	25.95
613.629	25.92
613.822	25.89
614.015	25.77
614.209	25.6
614.402	25.5
614.595	25.34
614.788	25.21
614.981	25.14
615.174	25.13
615.367	25.04
615.56	24.98
615.753	24.95
615.946	24.83
616.139	24.73
616.332	24.75
616.525	24.67
616.718	24.58
616.911	24.61
617.103	24.58
617.296	24.54
617.489	24.53
617.682	24.44
617.875	24.29
618.067	24.19
618.26	24.07
618.453	24.02
618.646	23.96
618.838	23.95
619.031	23.92
619.224	23.91
619.417	23.86
619.609	23.78
619.802	23.7
619.994	23.62
620.187	23.5
620.38	23.44
620.572	23.4
620.765	23.4
620.957	23.37
621.15	23.38
621.342	23.27
621.535	23.15
621.727	23.11
621.92	23.12
622.112	23.06
622.305	23.03
622.497	23.12
622.69	23.03
622.882	23.01
623.074	23
623.267	23.01
623.459	22.98
623.651	22.99
623.844	22.91
624.036	22.88
624.228	22.88
624.42	22.87
624.613	22.87
624.805	22.87
624.997	22.88
625.189	22.92
625.381	22.87
625.574	22.79
625.766	22.78
625.958	22.66
626.15	22.54
626.342	22.55
626.534	22.49
626.726	22.47
626.918	22.48
627.11	22.47
627.302	22.38
627.494	22.35
627.686	22.32
627.878	22.25
628.07	22.2
628.262	22.09
628.454	22.03
628.646	21.92
628.838	21.93
629.029	21.83
629.221	21.84
629.413	21.87
629.605	21.83
629.797	21.74
629.989	21.69
630.18	21.6
630.372	21.52
630.564	21.53
630.755	21.49
630.947	21.45
631.139	21.44
631.33	21.38
631.522	21.26
631.714	21.2
631.905	21.24
632.097	21.24
632.289	21.22
632.48	21.21
632.672	21.26
632.863	21.16
633.055	21.11
633.246	21.12
633.438	21.1
633.629	21.01
633.821	20.95
634.012	20.96
634.203	20.91
634.395	20.99
634.586	20.9
634.777	21
634.969	20.95
635.16	21.04
635.351	20.95
635.543	21.01
635.734	20.95
635.925	20.94
636.117	20.82
636.308	20.79
636.499	20.79
636.69	20.74
636.881	20.78
637.073	20.77
637.264	20.7
637.455	20.73
637.646	20.82
637.837	20.82
638.028	20.81
638.219	20.86
638.41	20.71
638.601	20.57
638.792	20.51
638.983	20.55
639.174	20.48
639.365	20.6
639.556	20.58
639.747	20.49
639.938	20.47
640.129	20.5
640.32	20.33
640.511	20.4
640.701	20.4
640.892	20.33
641.083	20.28
641.274	20.39
641.465	20.3
641.655	20.25
641.846	20.25
642.037	20.25
642.228	20.1
642.418	20.08
642.609	20.13
642.8	20.05
642.99	19.98
643.181	20.05
643.372	20.06
643.562	20.01
643.753	19.98
643.943	20.02
644.134	19.97
644.324	19.87
644.515	19.88
644.705	19.83
644.896	19.78
645.086	19.71
645.277	19.72
645.467	19.71
645.658	19.7
645.848	19.63
646.038	19.68
646.229	19.6
646.419	19.49
646.61	19.45
646.8	19.4
646.99	19.4
647.18	19.6
647.371	19.64
647.561	19.61
647.751	19.72
647.941	19.67
648.132	19.44
648.322	19.36
648.512	19.32
648.702	19.24
648.892	19.16
649.082	19.15
649.272	19.19
649.462	19.24
649.653	19.21
649.843	19.21
650.033	19.24
650.223	19.15
650.413	19.07
650.603	19.01
650.793	18.97
650.983	18.88
651.172	18.83
651.362	18.69
651.552	18.6
651.742	18.45
651.932	18.27
652.122	18.21
652.312	18.23
652.502	18.23
652.691	18.14
652.881	18.1
653.071	18.03
653.261	17.89
653.45	17.69
653.64	17.73
653.83	17.69
654.019	17.48
654.209	17.28
654.399	17.19
654.588	17.04
654.778	16.72
654.968	16.67
655.157	16.61
655.347	16.47
655.536	16.27
655.726	16.25
655.915	15.96
656.105	15.86
656.294	15.76
656.484	15.62
656.673	15.46
656.863	15.37
657.052	15.2
657.241	15
657.431	14.73
657.62	14.6
657.809	14.51
657.999	14.36
658.188	14.18
658.377	14.01
658.567	13.85
658.756	13.64
658.945	13.5
659.134	13.36
659.324	13.21
659.513	13.07
659.702	12.94
659.891	12.73
660.08	12.48
660.269	12.36
660.458	12.14
660.648	11.98
660.837	11.88
661.026	11.75
661.215	11.5
661.404	11.36
661.593	11.14
661.782	10.9
661.971	10.74
662.16	10.58
662.349	10.45
662.538	10.32
662.726	10.2
662.915	10.13
663.104	10.14
663.293	9.98
663.482	9.86
663.671	9.72
663.86	9.52
664.048	9.35
664.237	9.19
664.426	9.08
664.615	8.97
664.803	8.9
664.992	8.83
665.181	8.78
665.369	8.69
665.558	8.64
665.747	8.5
665.935	8.5
666.124	8.53
666.312	8.51
666.501	8.4
666.69	8.42
666.878	8.31
667.067	8.14
667.255	8.06
667.444	8.09
667.632	8.05
667.82	7.98
668.009	8.07
668.197	8.12
668.386	8.05
668.574	8.01
668.762	8.05
668.951	8.03
669.139	7.92
669.327	7.92
669.516	8
669.704	7.9
669.892	7.85
670.08	7.86
670.269	7.81
670.457	7.75
670.645	7.82
670.833	7.82
671.021	7.91
671.21	7.98
671.398	8.11
671.586	8.14
671.774	8.22
671.962	8.26
672.15	8.3
672.338	8.19
672.526	8.17
672.714	8.1
672.902	8.06
673.09	8.1
673.278	8.22
673.466	8.27
673.654	8.39
673.842	8.41
674.03	8.4
674.218	8.41
674.405	8.48
674.593	8.54
674.781	8.6
674.969	8.67
675.157	8.64
675.344	8.82
675.532	8.9
675.72	9.08
675.908	9.2
676.095	9.45
676.283	9.33
676.471	9.41
676.658	9.42
676.846	9.49
677.033	9.58
677.221	9.73
677.409	9.74
677.596	9.8
677.784	9.83
677.971	9.64
678.159	9.78
678.346	9.89
678.534	9.99
678.721	10.15
678.909	10.47
679.096	10.58
679.283	10.75
679.471	10.75
679.658	10.88
679.846	10.88
680.033	10.97
680.22	10.94
680.408	11.17
680.595	11.14
680.782	11.31
680.969	11.45
681.157	11.67
681.344	11.72
681.531	11.93
681.718	12.05
681.905	12.14
682.093	12.28
682.28	12.39
682.467	12.6
682.654	12.82
682.841	13.1
683.028	13.15
683.215	13.38
683.402	13.64
683.589	13.81
683.776	14.03
683.963	14.32
684.15	14.62
684.337	14.7
684.524	14.99
684.711	15.17
684.898	15.55
685.085	15.87
685.271	16.3
685.458	16.56
685.645	16.73
685.832	17.02
686.019	17.24
686.205	17.54
686.392	17.93
686.579	18.38
686.766	18.67
686.952	19.26
687.139	19.68
687.326	20.07
687.512	20.54
687.699	21.07
687.886	21.5
688.072	21.86
688.259	22.41
688.445	22.97
688.632	23.45
688.818	23.92
689.005	24.43
689.191	24.87
689.378	25.2
689.564	25.75
689.751	26.12
689.937	26.84
690.124	27.41
690.31	28.25
690.496	28.95
690.683	29.94
690.869	30.69
691.055	31.49
691.242	32.03
691.428	32.66
691.614	33.19
691.8	33.85
691.987	34.49
692.173	35.31
692.359	36.04
692.545	36.79
692.731	37.42
692.918	38.22
693.104	38.9
693.29	39.55
693.476	40.11
693.662	40.9
693.848	41.59
694.034	42.41
694.22	43.11
694.406	44.01
694.592	44.73
694.778	45.29
694.964	45.95
695.15	46.85
695.336	47.38
695.522	48.22
695.708	49.02
695.894	49.91
696.08	50.38
696.265	51.28
696.451	51.92
696.637	53.05
696.823	53.56
697.009	54.61
697.194	55.09
697.38	55.79
697.566	56.08
697.751	56.71
697.937	57.1
698.123	58.17
698.308	58.89
698.494	59.44
698.68	60
698.865	60.58
699.051	60.75
699.236	61.22
699.422	61.72
699.607	62.43
699.793	63.1
699.978	63.91
700.164	64.22
700.349	65.06
700.535	65.58
700.72	66
700.906	66.38
701.091	67.03
701.276	67.51
701.462	67.98
701.647	68.5
701.832	69.09
702.018	69.3
702.203	69.75
702.388	70.04
702.573	70.71
702.759	71.03
702.944	71.96
703.129	72.34
703.314	72.91
703.499	73.26
703.684	73.57
703.87	73.68
704.055	73.97
704.24	74.26
704.425	74.34
704.61	74.38
704.795	74.52
704.98	74.95
705.165	75.21
705.35	75.76
705.535	76.62
705.72	76.86
705.905	77.04
706.09	77.44
706.275	77.74
706.459	77.54
706.644	78.15
706.829	78.15
707.014	78.17
707.199	78.22
707.384	78.81
707.568	79.12
707.753	79.96
707.938	80.38
708.123	80.56
708.307	80.76
708.492	81.04
708.677	81.03
708.861	81.06
709.046	81.51
709.231	81.62
709.415	81.64
709.6	81.69
709.784	81.95
709.969	82.14
710.153	82.92
710.338	83.44
710.522	83.6
710.707	83.68
710.891	83.71
711.076	83.11
711.26	82.34
711.445	82.42
711.629	83.22
711.813	83.33
711.998	83.93
712.182	84
712.366	84.05
712.551	83.73
712.735	83.75
712.919	83.76
713.103	84.61
713.288	84.83
713.472	85.11
713.656	85.62
713.84	85.52
714.024	85.87
714.208	86.29
714.393	86.13
714.577	85.79
714.761	85.85
714.945	85.69
715.129	85.57
715.313	85.94
715.497	86.35
715.681	86.36
715.865	86.7
716.049	86.71
716.233	86.55
716.417	87.01
716.601	87.31
716.785	87.1
716.968	87.31
717.152	87.31
717.336	87.47
717.52	87.58
717.704	88.32
717.888	88.23
718.071	88.39
718.255	87.9
718.439	87.9
718.622	86.74
718.806	86.78
718.99	87.24
719.174	87.22
719.357	87.36
719.541	88.27
719.724	88.68
719.908	88.52
720.092	88.57
720.275	88.96
720.459	88.87
720.642	89.06
720.826	89.52
721.009	89.83
721.193	89.4
721.376	89.08
721.559	88.83
721.743	87.91
721.926	87.95
722.11	87.73
722.293	88.18
722.476	88.34
722.66	88.76
722.843	88.7
723.026	89.02
723.21	89.07
723.393	89.37
723.576	89.94
723.759	90.03
723.942	90.63
724.126	90.27
724.309	90.58
724.492	90.7
724.675	90.87
724.858	90.72
725.041	91.33
725.224	91.71
725.407	91.76
725.59	92.2
725.774	92.06
725.957	92.45
726.14	91.35
726.322	90.41
726.505	90.03
726.688	90.43
726.871	89.44
727.054	89.24
727.237	90.16
727.42	89.95
727.603	89.69
727.786	90.18
727.968	90.8
728.151	90.61
728.334	91.18
728.517	91.73
728.699	91.54
728.882	91.65
729.065	91.99
729.248	92.47
729.43	92.13
729.613	92.25
729.796	92.36
729.978	91.78
730.161	90.85
730.343	90.6
730.526	91.07
730.708	91.08
730.891	91.87
731.073	92.51
731.256	92.5
731.438	92.03
731.621	91.77
731.803	91.82
731.986	91.59
732.168	91.86
732.35	92.09
732.533	92.38
732.715	91.56
732.898	92.22
733.08	92.46
733.262	92.75
733.444	92.51
733.627	93.72
733.809	93.31
733.991	93.89
734.173	93.86
734.355	94.86
734.538	94.25
734.72	94.12
734.902	93.35
735.084	93.08
735.266	92.18
735.448	91.93
735.63	92.29
735.812	93
735.994	94.09
736.176	94.56
736.358	95.08
736.54	96.01
736.722	96.41
736.904	96.06
737.086	95.66
737.268	95.58
737.45	94.62
737.632	94.48
737.814	94.22
737.995	94.44
738.177	94.46
738.359	94.94
738.541	94.57
738.723	94.7
738.904	95.4
739.086	95.86
739.268	95.28
739.449	95.11
739.631	95.67
739.813	94.61
739.994	94.35
740.176	94.72
740.358	95.6
740.539	95.48
740.721	96.29
740.902	96.46
741.084	96.2
741.265	95.47
741.447	94.66
741.628	94.84
741.81	94.95
741.991	94.25
742.172	94.39
742.354	95.07
742.535	94.6
742.717	94.25
742.898	95.07
743.079	94.97
743.261	95.53
743.442	94.99
743.623	94.27
743.804	93.66
743.986	94.1
744.167	92.5
744.348	92.88
744.529	93.11
744.71	94.67
744.891	94.44
745.073	96.07
745.254	95.51
745.435	95.65
745.616	94.43
745.797	94.21
745.978	92.63
746.159	94.63
746.34	94.89
746.521	96.07
746.702	95.5
746.883	96.14
747.064	94.81
747.245	94.54
747.426	92.94
747.606	92.76
747.787	92.52
747.968	92.92
748.149	93.48
748.33	93.61
748.51	93.99
748.691	94.87
748.872	94.84
749.053	95.45
749.233	96.86
749.414	97.38
749.595	97.23
749.775	96.69
749.956	95.61
750.137	94.94
750.317	95.46
750.498	94.79
750.678	94.44
750.859	95.03
751.04	94.33
751.22	94.36
751.4	94.85
751.581	95.87
751.761	95.61
751.942	95.54
752.122	95.27
752.303	93.89
752.483	93.87
752.663	93.65
752.844	95.21
753.024	95.35
753.204	96.21
753.385	95.74
753.565	95.09
753.745	94.19
753.925	93.24
754.106	93.08
754.286	93.57
754.466	93.77
754.646	93.76
754.826	94.58
755.006	94
755.187	93.58
755.367	94.52
755.547	95.06
755.727	93.96
755.907	93.37
756.087	92.94
756.267	93.1
756.447	92.31
756.627	93.07
756.807	94.27
756.987	93.68
757.167	93.43
757.346	93.43
757.526	93.07
757.706	93.98
757.886	95.51
758.066	94.06
758.246	94
758.425	94.83
758.605	94.01
758.785	93.24
758.965	93.68
759.144	93.58
759.324	92.43
759.504	93.29
759.683	92.57
759.863	94.48
760.043	94.56
760.222	94.48
760.402	94
760.581	95.24
760.761	93.59
760.94	91.78
761.12	91.64
761.299	91.9
761.479	91.39
761.658	90.81
761.838	91.8
762.017	92.96
762.197	92.42
762.376	93.01
762.555	93.74
762.735	94.37
762.914	92.47
763.093	91.5
763.273	89.86
763.452	90.74
763.631	90.5
763.81	90.58
763.99	90.61
764.169	90.85
764.348	89.8
764.527	88.82
764.706	89.33
764.885	90.31
765.064	91.03
765.243	91.14
765.423	91.47
765.602	90.89
765.781	90.09
765.96	90.51
766.139	90.7
766.318	91
766.497	92.59
766.676	92.37
766.854	90.41
767.033	89.35
767.212	89.02
767.391	86.54
767.57	86.85
767.749	88.04
767.928	88.31
768.106	88.48
768.285	89.64
768.464	90.11
768.643	89.79
768.821	90.42
769	90.46
769.179	91.52
769.357	90.53
769.536	91.26
769.715	91.63
769.893	90.86
770.072	89.97
770.25	90.08
770.429	91.18
770.607	89.58
770.786	92.57
770.964	93.21
771.143	94.95
771.321	93.58
771.5	95.27
771.678	91.52
771.857	91.08
772.035	88.81
772.213	88.7
772.392	87.68
772.57	89.25
772.748	89.54
772.927	91.99
773.105	91.64
773.283	91.3
773.461	89.59
773.64	88.38
773.818	86.15
773.996	85.97
774.174	86.46
774.352	90.22
774.531	88.54
774.709	90.85
774.887	89.77
775.065	88.01
775.243	84.34
775.421	86.7
775.599	83.24
775.777	85.15
775.955	85.59
776.133	86.63
776.311	86.95
776.489	88.88
776.667	87.4
776.844	89.33
777.022	88.06
777.2	85.27
777.378	83.31
777.556	83.41
777.734	81.02
777.911	82.53
778.089	85.46
778.267	87.91
778.445	87.12
778.622	85.62
778.8	84.47
778.978	85.43
779.155	85.66
779.333	87.87
779.511	90.46
779.688	92.28
779.866	92.49
780.043	92.22
780.221	92.12
780.398	92.14
780.576	91.2
780.753	88.47
780.931	86.09
781.108	83.14
781.286	81.7
781.463	82.92
781.64	82.86
781.818	85.9
781.995	85.73
782.172	88.03
782.35	87.61
782.527	86.26
782.704	84.19
782.882	86.52
783.059	84.95
783.236	83.64
783.413	86.24
783.59	88.18
783.768	89.53
783.945	90.31
784.122	89.19
784.299	89.39
784.476	88.64
784.653	87.97
784.83	87.94
785.007	90.05
785.184	88.82
785.361	87.43
785.538	84.5
785.715	85.22
785.892	85.77
786.069	85.51
786.246	87.85
786.423	90.46
786.6	90.2
786.776	89.63
786.953	89.28
787.13	85.96
787.307	85.02
787.484	82.94
787.66	80.2
787.837	79.28
788.014	79.77
788.191	77.51
788.367	77.02
788.544	81.23
788.721	86.2
788.897	84.58
789.074	85.02
789.25	83.99
789.427	82.54
789.603	79.42
789.78	83.16
789.956	83.04
790.133	84.4
790.309	84.1
790.486	83.12
790.662	78.61
790.839	80.16
791.015	84.28
791.192	82.95
791.368	82.34
791.544	89.01
791.721	92.94
791.897	91.34
792.073	94.05
792.249	93.61
792.426	89.88
792.602	87.48
792.778	86.28
792.954	83.88
793.13	84.58
793.307	85.97
793.483	84.89
793.659	83.26
793.835	85.68
794.011	86.11
794.187	83.85
794.363	82.91
794.539	80.01
794.715	82.78
794.891	84.2
795.067	84.55
795.243	84.39
795.419	90.47
795.595	87.72
795.771	84.05
795.947	84.88
796.122	85.94
796.298	83.14
796.474	83.6
796.65	79.78
796.826	78.63
797.001	77.21
797.177	76.09
797.353	74.67
797.529	82.37
797.704	80.47
797.88	77.62
798.056	78.04
798.231	76.49
798.407	74.73
798.582	79.78
798.758	80.91
798.934	84.49
799.109	92.72
799.285	92.93
799.46	91.38
799.636	91.35
799.811	88.23
799.986	85.29
800.162	83.27
800.337	81.98
800.513	83.16
800.688	79.82
800.863	76.46
801.039	82.15
801.214	82.86
801.389	80.38
801.565	83.52
801.74	84.07
801.915	78.25
802.09	73.85
802.265	73.53
802.441	71.57
802.616	70.95
802.791	72.44
802.966	73.67
803.141	74.84
803.316	80.61
803.491	82.9
803.666	80.21
803.841	74.4
804.016	79.18
804.191	78.42
804.366	79.87
804.541	84.4
804.716	89.89
804.891	87.71
805.066	87.21
805.241	88.86
805.416	85.76
805.591	90.51
805.765	88.35
805.94	84.59
806.115	78.61
806.29	76.68
806.464	74.44
806.639	76.46
806.814	75.04
806.989	75.34
807.163	76.89
807.338	77.26
807.512	80.94
807.687	87.55
807.862	91.75
808.036	94.66
808.211	90.03
808.385	86.85
808.56	82.18
808.734	71.65
808.909	72.26
809.083	76.56
809.258	71.3
809.432	70.54
809.606	76.3
809.781	66.62
809.955	72.8
810.13	83.11
810.304	80.78
810.478	79.39
810.652	80.25
810.827	71.99
811.001	66.14
811.175	68.34
811.349	66.76
811.524	67.54
811.698	65.82
811.872	68.05
812.046	61.13
812.22	65.03
812.394	66.97
812.568	67.53
812.742	66.05
812.916	72.07
813.09	78.98
813.264	78.09
813.438	83.26
813.612	89.75
813.786	90.81
813.96	80.89
814.134	77.02
814.308	77.86
814.482	74.43
814.656	75.48
814.83	68.79
815.003	74.81
815.177	76.56
815.351	76.1
815.525	73.46
815.698	81.71
815.872	86.76
816.046	84.75
816.219	90.47
816.393	87.86
816.567	88.97
816.74	83.43
816.914	93.71
817.088	78.92
817.261	76.08
817.435	72.57
817.608	76.11
817.782	67.81
817.955	77.19
818.129	76.52
818.302	76.52
818.475	67.78
818.649	62.51
818.822	68.59
818.996	72.9
819.169	74.97
819.342	79.09
819.516	73.83
819.689	69.46
819.862	70.82
820.035	67.71
820.209	70.71
820.382	75.02
820.555	64.67
820.728	62.29
820.901	61.62
821.075	62.01
821.248	61.61
821.421	70.86
821.594	71.59
821.767	76.44
821.94	69.78
822.113	76.42
822.286	77.61
822.459	83.86
822.632	72.55
822.805	76.02
822.978	76.56
823.151	72.28
823.324	67.79
823.496	76.31
823.669	82.55
823.842	82.41
824.015	86.27
824.188	65.01
824.361	62.79
824.533	54.94
824.706	49.43
824.879	60.9
825.051	87.29
825.224	91.21
825.397	95.13
825.569	95.83
825.742	96.45
825.915	100.57
826.087	109.91
826.26	96.77
826.432	92.8
826.605	91.34
826.777	85.19
826.95	75.55
827.122	79.35
827.295	91.69
827.467	98.05
827.64	95.14
827.812	95.13
827.984	95.63
828.157	78.44
828.329	59.89
828.501	53.6
828.674	66.55
828.846	61.39
829.018	63.44
829.19	59.96
829.363	64.27
829.535	61.12
829.707	63.54
829.879	70.11
830.051	74.48
830.223	67.19
830.395	67.5
830.568	61.53
830.74	46.83
830.912	42.91
831.084	44.06
831.256	34.49
831.428	53.85
831.6	78
831.772	95.24
831.943	98.34
832.115	105.73
832.287	77.31
832.459	61.64
832.631	81.43
832.803	89.91
832.975	66.96
833.146	73
833.318	95.08
833.49	78.15
833.662	57.11
833.833	58.95
834.005	65.59
834.177	44.15
834.348	42.44
834.52	55.11
834.692	65.52
834.863	62.83
835.035	69.52
835.206	86.79
835.378	93.68
835.549	108.09
835.721	106.19
835.892	120.72
836.064	117.75
836.235	92.24
836.407	99.04
836.578	99.32
836.749	88.64
836.921	70.43
837.092	81.86
837.264	58.79
837.435	60.06
837.606	58.35
837.777	63.77
837.949	52.68
838.12	61.45
838.291	64.9
838.462	84.36
838.633	60.44
838.805	73.67
838.976	64.95
839.147	65.29
839.318	47.85
839.489	68.14
839.66	72.82
839.831	65.15
840.002	61.23
840.173	66.95
840.344	85.88
840.515	61.34
840.686	76.21
840.857	62.39
841.028	74.18
841.199	55.86
841.369	72.71
841.54	74.7
841.711	93.7
841.882	88.3
842.053	82.65
842.223	56.76
842.394	53.17
842.565	56.82
842.736	63.12
842.906	72.83
843.077	80.32
843.248	72.06
843.418	42.95
843.589	52.33
843.759	41.8
843.93	-8.44
844.101	47.08
844.271	62.43
844.442	34.29
844.612	55.69
844.783	149.92
844.953	48.98
845.123	-275
845.294	114.39
845.464	94.64
845.635	123.67
845.805	83.74
845.975	79.6
846.146	75.87
846.316	54.59
846.486	51.94
846.656	54.28
846.827	60.93
846.997	42.37
847.167	52.29
847.337	53.44
847.507	61.07
847.677	41.83
847.848	64.26
848.018	56.56
848.188	34.48
848.358	56.05
848.528	27.4
848.698	53.38
848.868	82.13
849.038	109.55
849.208	124.71
849.378	90.28
849.548	60.76
849.718	49.82
849.887	47.72
850.057	54.52
850.227	77.42
850.397	80.87
850.567	76.32
850.737	87.57
850.906	93.12
851.076	86.51
851.246	96.16
851.415	86.9
851.585	90.03
851.755	78.69
851.924	86.08
852.094	46.45
852.264	91.1
852.433	72.62
852.603	42.37
852.772	52.06
852.942	50.66
853.111	35.52
853.281	23.27
853.45	43.98
853.62	47.59
853.789	57.06
853.959	50.5
854.128	49.47
854.297	44.93
854.467	46.83
854.636	62.37
854.805	62.34
854.975	81.36
855.144	46.57
855.313	43.91
855.482	33.99
855.652	38.28
855.821	30.96
855.99	42.57
856.159	15.47
856.328	23.25
856.497	47.75
856.667	72
856.836	62.57
857.005	107.04
857.174	114.83
857.343	79.63
857.512	65.61
857.681	66.36
857.85	-14.96
858.019	-6.75
858.188	24.84
858.356	33.23
858.525	29.66
858.694	35.45
858.863	31.88
859.032	-0.05
859.201	10.14
859.369	39.85
859.538	-8.8
859.707	-48.65
859.876	-11.21
860.044	-48.44
860.213	10.96
860.382	40.75
860.55	52.63
860.719	74.68
860.888	78.24
861.056	44.55
861.225	47.45
861.393	67.67
861.562	62.55
861.73	65.46
861.899	73.87
862.067	80.37
862.236	45.87
862.404	72.09
862.572	84.43
862.741	65.56
862.909	77.31
863.078	93.38
863.246	65.75
863.414	33.21
863.582	21.28
863.751	-19.58
863.919	-152.65
864.087	-52.42
864.255	-24.32
864.424	227.35
864.592	118.75
864.76	73.04
864.928	41.88
865.096	54.82
865.264	38.15
865.432	36.95
865.6	48.53
865.768	64
865.936	43.65
866.104	39.78
866.272	30.44
866.44	15.17
866.608	14.28
866.776	27.93
866.944	65.14
867.112	67.92
867.28	59.7
867.448	87.14
867.615	70.28
867.783	13.3
867.951	-8.87
868.119	19.09
868.286	21.2
868.454	-14.34
868.622	7.67
868.789	13.48
868.957	30.26
869.125	38.66
869.292	44.03
869.46	-6.19
869.627	4.99
869.795	-119.49
869.963	249.15
870.13	-152.05
870.298	139.12
870.465	130.95
870.632	111.4
870.8	70.66
870.967	41.55
871.135	52.25
871.302	48.64
871.469	22.9
871.637	49.08
871.804	40.75
871.971	32.41
872.139	29.37
872.306	38.47
872.473	33.74
872.64	45.79
872.807	59.96
872.975	50.81
873.142	65.4
873.309	47.55
873.476	82.36
873.643	80.51
873.81	96.8
873.977	91.69
874.144	146.98
874.311	94.17
874.478	86.18
874.645	89.97
874.812	90.1
874.979	59.14
875.146	50.8
875.313	46.43
875.48	32.53
875.647	10.29
875.813	41.63
875.98	26.96
876.147	25
876.314	16.52
876.481	27.76
876.647	37.26
876.814	57.67
876.981	84.67
877.147	7187.5
877.314	16.92
877.481	942.05
877.647	1351.14
877.814	-9.37
877.98	49.26
878.147	80.22
878.314	172.75
878.48	125.42
878.647	143.64
878.813	86.86
878.979	80.36
879.146	54.08
879.312	58.7
879.479	60.85
879.645	78.09
879.811	139.76
879.978	74
880.144	106.95
880.31	48.75
880.477	53.2
880.643	23.99
880.809	39.3
880.975	44.11
881.142	247.97
881.308	3270.45
881.474	-328.21
881.64	-27.59
881.806	-43.83
881.972	113.67
882.138	341.44
882.304	-283.79
882.47	-89.82
882.636	-340.81
882.802	-54.82
882.968	-414.44
883.134	-58.69
883.3	17.93
883.466	59.28
883.632	61.38
883.798	60.81
883.964	98.02
884.129	215.65
884.295	93.6
884.461	169.03
884.627	117.14
884.793	128.73
884.958	102.44
885.124	139.07
885.29	99.36
885.455	87.28
885.621	45.37
885.787	193.99
885.952	57.53
886.118	36.79
886.283	78.26
886.449	107.26
886.614	74.3
886.78	53.93
886.945	74.03
887.111	48.81
887.276	45.8
887.442	60.92
887.607	81.53
887.773	70.6
887.938	73.69
888.103	176.9
888.269	168.11
888.434	142.7
888.599	305.88
888.764	222.09
888.93	140.97
889.095	88.02
889.26	124.13
889.425	84.33
889.59	27.49
889.756	21.72
889.921	35.43
890.086	20.29
890.251	5.07
890.416	13.64
890.581	66.01
890.746	42.3
890.911	17.48
891.076	-20.29
891.241	30.33
891.406	49.08
891.571	41.77
891.736	71.22
891.901	86.6
892.065	74.96
892.23	-17.53
892.395	13.92
892.56	-17.26
892.725	-21.24
892.889	11.89
893.054	49.15
893.219	79.63
893.384	65.91
893.548	118.04
893.713	264.52
893.878	169.92
