Data from Ofra_PS_Phys_1GT43_Reflection_2.txt Node
Date: Tue Jul 20 17:52:40 EDT 2021
User: USUARIO
Spectrometer: FLMT01687
Trigger mode: 0
Integration Time (sec): 1.042999E0
Scans to average: 2
Electric dark correction enabled: true
Nonlinearity correction enabled: false
Boxcar width: 2
XAxis mode: Wavelengths
Number of Pixels in Spectrum: 3648
>>>>>Begin Spectral Data<<<<<
179.494	-32.66
179.716	-105.34
179.937	-101.36
180.158	-650.54
180.38	-601.53
180.601	508.25
180.823	321.92
181.044	-10.82
181.265	-617.44
181.486	-17.47
181.708	-41.78
181.929	-18.92
182.15	42.45
182.372	-116.2
182.593	27.8
182.814	-5.52
183.035	21.96
183.257	30.03
183.478	-0.88
183.699	-1.32
183.92	21.48
184.141	43.67
184.363	22.45
184.584	56.07
184.805	71.5
185.026	67.09
185.247	58.16
185.468	51.4
185.689	36.9
185.91	16.04
186.132	-1.96
186.353	-7.41
186.574	20.83
186.795	11.14
187.016	18.3
187.237	57.01
187.458	13.3
187.679	-16.59
187.9	-51.44
188.121	-93
188.342	-424.37
188.563	-75.96
188.784	2.15
189.005	40.2
189.226	24.73
189.447	40.24
189.667	36.87
189.888	17.12
190.109	11.8
190.33	17.27
190.551	-19.24
190.772	11.59
190.993	13.67
191.214	25.67
191.434	32.74
191.655	29.49
191.876	27.54
192.097	14.12
192.318	7.87
192.538	0.24
192.759	29.67
192.98	8.55
193.201	31.76
193.421	3.96
193.642	25.83
193.863	-4.6
194.083	-0.49
194.304	-0.63
194.525	25.76
194.745	26.88
194.966	55.07
195.187	34.03
195.407	5.3
195.628	20.72
195.848	-21.38
196.069	-36.64
196.29	-11.7
196.51	17.94
196.731	-1.66
196.951	38.54
197.172	35.97
197.392	54.46
197.613	32.38
197.833	31.76
198.054	-22.45
198.274	1.64
198.495	-13.73
198.715	-6.13
198.936	-11.5
199.156	-2.58
199.377	6.96
199.597	11.16
199.817	27.4
200.038	30.84
200.258	34.64
200.479	34.17
200.699	39.43
200.919	9.53
201.14	29.66
201.36	29.61
201.58	-8.35
201.801	-4.26
202.021	38.9
202.241	-17.5
202.461	-25.88
202.682	24.6
202.902	71.21
203.122	31.42
203.342	78.42
203.563	73.45
203.783	96.24
204.003	65.88
204.223	98.52
204.443	75.91
204.663	0.73
204.884	-14.52
205.104	6.07
205.324	5.49
205.544	0.53
205.764	26.6
205.984	5.5
206.204	6.71
206.424	11.26
206.644	14.91
206.864	-1.71
207.084	7.83
207.304	26.92
207.525	11.65
207.745	-10.92
207.964	-19.99
208.184	-3.69
208.404	-6.24
208.624	-1.51
208.844	16.04
209.064	22.8
209.284	29.17
209.504	27.61
209.724	24.21
209.944	44.62
210.164	30.6
210.384	17.8
210.604	63.71
210.823	58.55
211.043	32.4
211.263	31.76
211.483	18.08
211.703	-4.01
211.922	17.06
212.142	30.37
212.362	34.42
212.582	49.52
212.801	49.48
213.021	38.77
213.241	-52.23
213.461	12.57
213.68	21.47
213.9	-28.65
214.12	-9.88
214.339	0.27
214.559	-11.38
214.779	-1.1
214.998	43.51
215.218	40.83
215.438	37.29
215.657	30.4
215.877	23.98
216.096	39.92
216.316	18.75
216.535	34.23
216.755	37
216.974	28.26
217.194	-4.94
217.413	12.97
217.633	8.1
217.852	15.27
218.072	27.84
218.291	54.73
218.511	49.53
218.73	39.04
218.95	5.5
219.169	6.72
219.389	-9.19
219.608	-2.38
219.827	18.25
220.047	35.13
220.266	29.09
220.485	13.59
220.705	14.81
220.924	16.64
221.143	7.58
221.363	3.52
221.582	6.92
221.801	1.58
222.021	-12.73
222.24	5.36
222.459	-3.38
222.678	-18.58
222.897	1.95
223.117	13.91
223.336	30.82
223.555	42.14
223.774	51.11
223.993	71.64
224.213	74.67
224.432	69.42
224.651	49.12
224.87	32.09
225.089	15.78
225.308	0.1
225.527	5.5
225.746	7.86
225.965	15.17
226.184	32.14
226.404	58.18
226.623	28.55
226.842	45.48
227.061	69.14
227.28	70.69
227.499	32.84
227.718	39.38
227.936	14.04
228.155	2.2
228.374	15.92
228.593	12.29
228.812	22.66
229.031	45.81
229.25	25.24
229.469	18.98
229.688	32.08
229.907	38.96
230.125	41.51
230.344	39.47
230.563	46.5
230.782	36.67
231.001	21.3
231.22	15.59
231.438	39.89
231.657	32.31
231.876	47.66
232.095	60.68
232.313	56.94
232.532	53.58
232.751	60.02
232.969	55.73
233.188	53.81
233.407	55.58
233.625	61.66
233.844	57.46
234.063	50.76
234.281	64.14
234.5	54.9
234.719	48.42
234.937	40.49
235.156	44.17
235.374	5.17
235.593	-8.32
235.811	-52
236.03	-105.96
236.249	-157.57
236.467	-91.91
236.686	-54.46
236.904	-34.81
237.123	8.38
237.341	20.28
237.559	36.72
237.778	41.01
237.996	34.67
238.215	40.23
238.433	36.69
238.652	29
238.87	24.97
239.088	37.21
239.307	28.65
239.525	25.05
239.743	30.1
239.962	23.17
240.18	28.52
240.398	29.12
240.617	34.47
240.835	12.12
241.053	17.02
241.271	17.9
241.49	3.54
241.708	4.02
241.926	10.94
242.144	7.8
242.363	-2.42
242.581	-0.73
242.799	5.7
243.017	29.08
243.235	36.53
243.453	30.62
243.672	43.41
243.89	33.71
244.108	21.4
244.326	10.84
244.544	-2.48
244.762	-25.95
244.98	-11.29
245.198	-34.43
245.416	-14.94
245.634	0.09
245.852	17.01
246.07	14.64
246.288	8.23
246.506	9.85
246.724	21.62
246.942	20.45
247.16	17.51
247.378	31.06
247.596	40.54
247.814	26.65
248.032	2.42
248.25	5.13
248.468	2.69
248.685	-0.8
248.903	26.47
249.121	28.9
249.339	26.61
249.557	47.44
249.775	54.58
249.992	56.91
250.21	56.74
250.428	61.51
250.646	11.74
250.863	5.17
251.081	-14.24
251.299	-51.5
251.517	-32.86
251.734	-38.34
251.952	-89.95
252.17	-61.36
252.387	2.74
252.605	-13.39
252.823	13.95
253.04	31.56
253.258	29.02
253.475	25.77
253.693	49.39
253.911	41.44
254.128	37.02
254.346	33.38
254.563	46.52
254.781	25.05
254.998	27.26
255.216	31.24
255.433	30.54
255.651	28.19
255.868	41.45
256.086	43.67
256.303	31.63
256.521	30.39
256.738	15.04
256.956	15.19
257.173	2.48
257.39	-6.82
257.608	-8.58
257.825	30.94
258.043	39.02
258.26	53.71
258.477	77.94
258.695	63.33
258.912	45.8
259.129	53.64
259.346	42.46
259.564	35.91
259.781	37.46
259.998	45.54
260.216	50.69
260.433	34.08
260.65	32.97
260.867	53.39
261.084	63.12
261.302	47.23
261.519	60.51
261.736	60.3
261.953	53.76
262.17	53.79
262.387	63.07
262.604	49.05
262.822	0.69
263.039	-16.84
263.256	-31.73
263.473	-44.36
263.69	-10.26
263.907	14.64
264.124	36.32
264.341	66.23
264.558	63.68
264.775	78.96
264.992	93.35
265.209	36.05
265.426	-17.47
265.643	3.04
265.86	-10.25
266.077	-4.41
266.294	19.02
266.51	42.15
266.727	68.2
266.944	67.51
267.161	55.31
267.378	44.74
267.595	38.52
267.812	19.09
268.028	14.94
268.245	7.85
268.462	4.88
268.679	-4.95
268.896	3.79
269.112	29.92
269.329	34.04
269.546	45.46
269.763	50.77
269.979	52.45
270.196	41.12
270.413	36.88
270.629	23.93
270.846	29.74
271.063	4.2
271.279	-8.26
271.496	-10.12
271.712	11.96
271.929	25.78
272.146	35.22
272.362	68.4
272.579	90.85
272.795	66.87
273.012	27.73
273.228	31.5
273.445	17.36
273.661	4.53
273.878	-10.37
274.094	15.11
274.311	10.39
274.527	32.96
274.744	20.36
274.96	31.27
275.177	28.7
275.393	26.14
275.609	9
275.826	25.84
276.042	39.47
276.259	42.25
276.475	49.75
276.691	60.4
276.908	37.73
277.124	32.93
277.34	13.36
277.557	15.4
277.773	-4.02
277.989	4.48
278.205	-9.83
278.422	7.15
278.638	27.9
278.854	31.48
279.07	16.78
279.286	23.07
279.503	11.99
279.719	-9.01
279.935	-4.89
280.151	28.68
280.367	19.48
280.583	4.6
280.799	0.13
281.016	2.31
281.232	-4.69
281.448	-6.83
281.664	13.03
281.88	8.21
282.096	7.72
282.312	7.97
282.528	23.68
282.744	19.49
282.96	24.55
283.176	31.81
283.392	33.37
283.608	22.95
283.824	33.82
284.04	36.64
284.256	28.29
284.471	19.69
284.687	42.51
284.903	29.91
285.119	20.69
285.335	-0.64
285.551	41.48
285.767	26.34
285.982	44.62
286.198	63.17
286.414	50.14
286.63	33.16
286.846	38.33
287.061	38.17
287.277	34.18
287.493	36.19
287.709	37.75
287.924	18.19
288.14	-7.94
288.356	-7.69
288.571	12.94
288.787	17.4
289.003	12.95
289.218	36
289.434	51.05
289.65	19.42
289.865	23.71
290.081	39.77
290.296	39.85
290.512	36.18
290.727	46.13
290.943	36.5
291.159	48.08
291.374	36.97
291.59	24.64
291.805	36.04
292.021	26.25
292.236	14.78
292.451	11.36
292.667	31.13
292.882	13.09
293.098	18.94
293.313	2.52
293.529	13.61
293.744	-27.66
293.959	-13.43
294.175	-10.59
294.39	-22.23
294.605	-36.29
294.821	-37.7
295.036	-12.13
295.251	3.33
295.467	-2.99
295.682	4.71
295.897	4.93
296.112	-9.75
296.328	-19.41
296.543	-10.07
296.758	10.22
296.973	16.33
297.188	18.77
297.404	13.45
297.619	8.36
297.834	-43.19
298.049	-33.31
298.264	-19.61
298.479	-36.22
298.694	-11.11
298.909	-14.99
299.125	-2.59
299.34	8.57
299.555	49.26
299.77	44.53
299.985	43.99
300.2	32.65
300.415	-5.41
300.63	-52.33
300.845	-8.44
301.06	4.69
301.275	-3.04
301.49	5.82
301.704	13.11
301.919	2.08
302.134	-13.66
302.349	3.77
302.564	4.87
302.779	19.99
302.994	32.9
303.209	44.05
303.423	44.24
303.638	35.19
303.853	31.86
304.068	24.57
304.283	10.56
304.497	-5.05
304.712	2.12
304.927	2.51
305.142	-21.14
305.356	-13.33
305.571	-3.6
305.786	-2.8
306	-4.53
306.215	18.25
306.43	19.54
306.644	19.33
306.859	33.28
307.074	33.91
307.288	28.84
307.503	31.85
307.717	28.31
307.932	19.96
308.147	18.77
308.361	14.43
308.576	11.86
308.79	12.08
309.005	10.48
309.219	2.63
309.434	3.27
309.648	4.28
309.863	-5.51
310.077	17.61
310.292	20.85
310.506	12.4
310.72	18.9
310.935	28.39
311.149	13.06
311.364	21.12
311.578	37.1
311.792	33.87
312.007	36.14
312.221	37.73
312.435	55.72
312.649	42.81
312.864	53.3
313.078	40.82
313.292	39.71
313.507	13.61
313.721	12.06
313.935	13.55
314.149	5.69
314.363	6.21
314.578	28.37
314.792	27.62
315.006	18.81
315.22	17.84
315.434	12.46
315.648	-14.88
315.862	-17.49
316.077	-39.84
316.291	-12.34
316.505	4.2
316.719	10.35
316.933	15.43
317.147	18.66
317.361	9.63
317.575	19.18
317.789	29.43
318.003	30.45
318.217	30.51
318.431	28.41
318.645	29.84
318.859	37.1
319.073	47.85
319.287	41.84
319.5	54.98
319.714	38.89
319.928	39
320.142	25.26
320.356	45.04
320.57	35.27
320.784	39.72
320.997	25.46
321.211	23.08
321.425	22.46
321.639	36.62
321.853	51.53
322.066	49.66
322.28	59.37
322.494	50.47
322.707	46.08
322.921	19.05
323.135	19.02
323.349	12.99
323.562	4.22
323.776	10.69
323.989	10.44
324.203	-7.44
324.417	-14.98
324.63	-33.78
324.844	-38.18
325.057	-15.22
325.271	10.54
325.485	0.13
325.698	2.74
325.912	5.16
326.125	5.79
326.339	4.22
326.552	8.76
326.766	19.57
326.979	12.87
327.193	7.02
327.406	5.97
327.619	19.53
327.833	21.94
328.046	11.8
328.26	-1
328.473	13.73
328.686	6.79
328.9	3.28
329.113	13.85
329.326	22.72
329.54	14.14
329.753	-7.66
329.966	-10.33
330.179	11.64
330.393	12.77
330.606	21.48
330.819	41
331.032	42.54
331.246	23.37
331.459	3.58
331.672	0.27
331.885	-20.72
332.098	-22.08
332.311	-19.64
332.525	-7.24
332.738	-12.98
332.951	32.02
333.164	33.38
333.377	38.31
333.59	46.38
333.803	48.25
334.016	42.39
334.229	39.27
334.442	33.85
334.655	28.12
334.868	35.83
335.081	38.31
335.294	42.38
335.507	45.64
335.72	36.95
335.933	5.87
336.146	-5.46
336.359	-10.91
336.572	-17.64
336.785	-1.93
336.997	18.48
337.21	13.92
337.423	-3.07
337.636	-18.22
337.849	-21.1
338.062	-21
338.274	-13.42
338.487	3.51
338.7	3.03
338.913	-0.69
339.125	0.84
339.338	-4.35
339.551	6.61
339.763	19.57
339.976	37.04
340.189	39.89
340.402	36.23
340.614	29.73
340.827	30.71
341.039	13.04
341.252	3.91
341.465	15.29
341.677	31.9
341.89	17.5
342.102	32.9
342.315	18.5
342.527	16.55
342.74	22.19
342.952	26.28
343.165	30.38
343.377	50.86
343.59	42.2
343.802	42.22
344.015	47.6
344.227	35.95
344.44	34.43
344.652	39.16
344.864	15.58
345.077	20.3
345.289	35.24
345.502	14.59
345.714	20.95
345.926	37.82
346.139	34.61
346.351	24.95
346.563	30.53
346.775	14.43
346.988	-12.65
347.2	-42.89
347.412	-24.7
347.624	3.93
347.837	11.47
348.049	21.96
348.261	27.29
348.473	36.73
348.685	35.03
348.897	43.86
349.11	38.41
349.322	36.71
349.534	43.47
349.746	48.02
349.958	36.51
350.17	34.42
350.382	32.96
350.594	7.67
350.806	8.27
351.018	22.96
351.23	26.83
351.442	29.65
351.654	34.51
351.866	28.06
352.078	21.81
352.29	16.18
352.502	12.21
352.714	7.03
352.926	-9.39
353.138	-0.63
353.35	1.22
353.561	-14.25
353.773	-16.3
353.985	8.07
354.197	-13.45
354.409	14.82
354.621	27.54
354.832	24.27
355.044	8.53
355.256	8.86
355.468	-12.23
355.679	-5.55
355.891	2.8
356.103	13
356.314	26.96
356.526	48.71
356.738	42.87
356.949	47.77
357.161	65.6
357.373	69.89
357.584	51.18
357.796	41.31
358.008	25.58
358.219	20.94
358.431	16.95
358.642	17.8
358.854	24.01
359.065	32.38
359.277	20.15
359.488	29.26
359.7	33.57
359.911	24.72
360.123	20.13
360.334	23.53
360.546	8.62
360.757	3.3
360.969	10.35
361.18	12.14
361.391	23.9
361.603	21.44
361.814	20.19
362.025	19.95
362.237	24.46
362.448	10.62
362.659	8.69
362.871	9.82
363.082	6
363.293	-5.19
363.504	11.47
363.716	7.8
363.927	-9.25
364.138	-14.52
364.349	-1.29
364.56	-21.18
364.772	-4.24
364.983	20.93
365.194	28.36
365.405	8.35
365.616	15.51
365.827	18.69
366.038	5.24
366.25	0.76
366.461	20.3
366.672	17.82
366.883	10.96
367.094	16.01
367.305	16.55
367.516	8.34
367.727	11.35
367.938	10.22
368.149	13.01
368.36	11.35
368.571	21.51
368.781	11.88
368.992	15.86
369.203	18.39
369.414	18.37
369.625	17.13
369.836	22.73
370.047	25.31
370.258	14.63
370.468	11.21
370.679	10.46
370.89	-1.23
371.101	-4.86
371.312	4.68
371.522	11.1
371.733	7.38
371.944	19.32
372.155	26.41
372.365	14.04
372.576	15.06
372.787	12.89
372.997	5.27
373.208	-12.6
373.419	11.38
373.629	-0.64
373.84	-9.9
374.05	-10.46
374.261	5.23
374.472	-4.3
374.682	16.44
374.893	19.56
375.103	38.29
375.314	33.88
375.524	22.91
375.735	11.62
375.945	12.19
376.156	3.03
376.366	1.28
376.577	16.53
376.787	19.78
376.997	27.18
377.208	29.18
377.418	35.42
377.629	41.1
377.839	31.49
378.049	35.92
378.26	39.63
378.47	34.5
378.68	15.68
378.89	14.57
379.101	5.91
379.311	-9.77
379.521	-4.72
379.732	12.83
379.942	20.23
380.152	16.96
380.362	14.81
380.572	14.58
380.783	9.41
380.993	6.28
381.203	13.23
381.413	13.5
381.623	4.36
381.833	6.38
382.043	-0.54
382.253	-14.14
382.463	-12.47
382.674	-11.82
382.884	-14.63
383.094	-5.45
383.304	3.55
383.514	11.99
383.724	26.77
383.934	17.9
384.144	16.44
384.353	22.81
384.563	20.13
384.773	12.09
384.983	20.52
385.193	28.08
385.403	21.8
385.613	24.45
385.823	21.93
386.033	14.71
386.242	6.27
386.452	-0.62
386.662	-1.33
386.872	6.66
387.082	9.65
387.291	7.91
387.501	11.65
387.711	10.33
387.921	4.01
388.13	3.51
388.34	10.47
388.55	9.37
388.759	8.54
388.969	13.57
389.179	16.15
389.388	16.22
389.598	17.24
389.807	13.33
390.017	9.39
390.227	8.19
390.436	4.27
390.646	0.28
390.855	2.78
391.065	0.3
391.274	0.08
391.484	2.71
391.693	7.45
391.903	10.47
392.112	12.78
392.322	11.85
392.531	11.96
392.74	9.61
392.95	7.49
393.159	6.99
393.369	7.33
393.578	8.06
393.787	7.55
393.997	7.43
394.206	6.94
394.415	8.68
394.625	8.54
394.834	9.62
395.043	9.87
395.252	10.13
395.462	8.64
395.671	7.49
395.88	7.7
396.089	7.23
396.298	7.01
396.508	7.1
396.717	7.52
396.926	7.8
397.135	7.97
397.344	7.61
397.553	8.02
397.762	7.82
397.971	7.18
398.181	6.64
398.39	6.42
398.599	5.95
398.808	5.55
399.017	5.95
399.226	6.85
399.435	6.99
399.644	7
399.853	7.65
400.062	7.26
400.27	6.95
400.479	7.36
400.688	7.4
400.897	7.3
401.106	7.19
401.315	6.88
401.524	6.78
401.733	7.09
401.941	6.88
402.15	6.98
402.359	7.08
402.568	6.76
402.777	6.7
402.985	6.36
403.194	6.21
403.403	6.21
403.612	6.47
403.82	6.07
404.029	6.28
404.238	6.48
404.446	6.41
404.655	6.24
404.864	6.31
405.072	6.27
405.281	6.23
405.489	6.28
405.698	6.42
405.906	6.5
406.115	6.42
406.324	6.32
406.532	6.15
406.741	6.1
406.949	6.02
407.158	6.11
407.366	6.07
407.574	6.07
407.783	5.9
407.991	5.84
408.2	5.85
408.408	5.75
408.617	5.72
408.825	5.7
409.033	5.77
409.242	5.71
409.45	5.84
409.658	5.82
409.867	6.01
410.075	5.97
410.283	5.84
410.491	5.63
410.7	5.56
410.908	5.47
411.116	5.55
411.324	5.63
411.533	5.85
411.741	6.12
411.949	6.2
412.157	6.21
412.365	6.23
412.573	6.02
412.781	5.9
412.99	5.79
413.198	5.69
413.406	5.77
413.614	5.98
413.822	6.05
414.03	6.18
414.238	5.98
414.446	5.73
414.654	5.71
414.862	5.65
415.07	5.4
415.278	5.54
415.486	5.56
415.694	5.4
415.902	5.35
416.109	5.26
416.317	5.42
416.525	5.36
416.733	5.4
416.941	5.26
417.149	5.38
417.357	5.31
417.564	5.42
417.772	5.37
417.98	5.32
418.188	5.41
418.395	5.29
418.603	5.26
418.811	5.16
419.019	5.13
419.226	5.02
419.434	4.9
419.642	4.85
419.849	4.91
420.057	4.94
420.265	4.79
420.472	4.97
420.68	5.03
420.887	4.96
421.095	4.95
421.302	5.05
421.51	4.89
421.717	5.06
421.925	5.07
422.132	5.13
422.34	5.13
422.547	5.23
422.755	4.91
422.962	4.86
423.17	4.78
423.377	4.63
423.585	4.48
423.792	4.6
423.999	4.59
424.207	4.5
424.414	4.64
424.621	4.77
424.829	4.65
425.036	4.6
425.243	4.61
425.451	4.59
425.658	4.54
425.865	4.63
426.072	4.71
426.28	4.89
426.487	4.96
426.694	4.94
426.901	4.97
427.108	4.9
427.315	5.03
427.523	4.98
427.73	5.06
427.937	4.97
428.144	5.16
428.351	4.89
428.558	4.8
428.765	4.58
428.972	4.6
429.179	4.58
429.386	4.67
429.593	4.65
429.8	4.65
430.007	4.66
430.214	4.52
430.421	4.36
430.628	4.56
430.835	4.76
431.042	4.75
431.249	4.94
431.456	5.14
431.662	5.13
431.869	5.13
432.076	5.2
432.283	5.14
432.49	5.11
432.697	4.97
432.903	4.97
433.11	5.04
433.317	5.06
433.524	5.17
433.73	5.17
433.937	5.2
434.144	5.09
434.35	5.12
434.557	4.97
434.764	4.99
434.97	4.88
435.177	5.05
435.384	4.88
435.59	4.94
435.797	5.14
436.003	5.15
436.21	5.06
436.416	5.1
436.623	4.97
436.829	5
437.036	5.15
437.242	5.22
437.449	5.29
437.655	5.41
437.862	5.31
438.068	5.18
438.275	5.17
438.481	5.18
438.687	5.17
438.894	5.23
439.1	5.37
439.307	5.36
439.513	5.38
439.719	5.51
439.926	5.47
440.132	5.61
440.338	5.55
440.544	5.58
440.751	5.66
440.957	5.66
441.163	5.52
441.369	5.73
441.575	5.73
441.782	5.63
441.988	5.72
442.194	5.71
442.4	5.64
442.606	5.58
442.812	5.63
443.018	5.63
443.224	5.64
443.431	5.64
443.637	5.74
443.843	5.74
444.049	5.69
444.255	5.66
444.461	5.59
444.667	5.62
444.873	5.56
445.079	5.63
445.284	5.64
445.49	5.66
445.696	5.56
445.902	5.64
446.108	5.67
446.314	5.67
446.52	5.8
446.726	6
446.931	5.97
447.137	5.92
447.343	5.9
447.549	5.86
447.755	5.78
447.96	5.86
448.166	5.87
448.372	6.08
448.578	6.1
448.783	6.2
448.989	6.22
449.195	6.28
449.4	6.11
449.606	6.1
449.812	6.03
450.017	6
450.223	5.98
450.428	6.01
450.634	5.97
450.84	6.02
451.045	6.1
451.251	6.04
451.456	6.1
451.662	6.1
451.867	6.13
452.073	6.08
452.278	6.15
452.483	6.14
452.689	6.17
452.894	6.12
453.1	6.14
453.305	6.16
453.51	6.13
453.716	6.11
453.921	6.03
454.127	6.02
454.332	6.03
454.537	6.06
454.742	6.06
454.948	6.11
455.153	6.06
455.358	6.06
455.563	6.05
455.769	6.05
455.974	6.17
456.179	6.25
456.384	6.2
456.589	6.16
456.795	6.21
457	6.04
457.205	5.97
457.41	6
457.615	6.03
457.82	6.03
458.025	6.08
458.23	6.08
458.435	6.01
458.64	5.99
458.845	6.01
459.05	5.98
459.255	6.04
459.46	6.1
459.665	6.15
459.87	6.06
460.075	6.14
460.28	6.1
460.485	6.13
460.69	6.09
460.895	6.16
461.099	6.17
461.304	6.36
461.509	6.4
461.714	6.41
461.919	6.44
462.123	6.38
462.328	6.26
462.533	6.27
462.738	6.42
462.942	6.36
463.147	6.38
463.352	6.4
463.556	6.42
463.761	6.38
463.966	6.36
464.17	6.51
464.375	6.47
464.58	6.4
464.784	6.45
464.989	6.51
465.193	6.5
465.398	6.52
465.602	6.6
465.807	6.41
466.011	6.5
466.216	6.43
466.42	6.55
466.625	6.64
466.829	6.84
467.034	6.75
467.238	6.9
467.443	6.79
467.647	6.71
467.851	6.67
468.056	6.81
468.26	6.68
468.464	6.7
468.669	6.66
468.873	6.67
469.077	6.53
469.282	6.5
469.486	6.6
469.69	6.67
469.894	6.72
470.099	6.87
470.303	7.05
470.507	7.04
470.711	7.01
470.915	6.99
471.119	6.93
471.324	6.85
471.528	6.81
471.732	6.77
471.936	6.83
472.14	6.98
472.344	7.05
472.548	7.15
472.752	7.25
472.956	7.29
473.16	7.19
473.364	7.21
473.568	7.22
473.772	7.23
473.976	7.19
474.18	7.2
474.384	7.24
474.588	7.28
474.792	7.31
474.995	7.37
475.199	7.46
475.403	7.4
475.607	7.46
475.811	7.48
476.015	7.53
476.218	7.46
476.422	7.53
476.626	7.5
476.83	7.51
477.033	7.58
477.237	7.63
477.441	7.65
477.644	7.69
477.848	7.78
478.052	7.74
478.255	7.77
478.459	7.84
478.663	7.92
478.866	7.92
479.07	7.83
479.273	7.85
479.477	7.84
479.681	7.8
479.884	7.82
480.088	7.94
480.291	8.01
480.495	8.07
480.698	8.04
480.901	8.05
481.105	8.08
481.308	8.05
481.512	8
481.715	7.98
481.919	7.95
482.122	7.94
482.325	8.06
482.529	8.02
482.732	8.11
482.935	8.14
483.138	8.15
483.342	8.03
483.545	8.15
483.748	8.14
483.952	8.14
484.155	8.17
484.358	8.24
484.561	8.15
484.764	8.15
484.967	8.14
485.171	8.15
485.374	8.15
485.577	8.23
485.78	8.24
485.983	8.3
486.186	8.23
486.389	8.21
486.592	8.2
486.795	8.23
486.998	8.17
487.201	8.27
487.404	8.28
487.607	8.26
487.81	8.3
488.013	8.31
488.216	8.25
488.419	8.34
488.622	8.32
488.825	8.25
489.028	8.37
489.231	8.34
489.433	8.3
489.636	8.27
489.839	8.32
490.042	8.26
490.245	8.28
490.447	8.29
490.65	8.35
490.853	8.28
491.056	8.27
491.258	8.32
491.461	8.27
491.664	8.28
491.866	8.29
492.069	8.36
492.272	8.4
492.474	8.44
492.677	8.42
492.879	8.38
493.082	8.35
493.285	8.33
493.487	8.34
493.69	8.37
493.892	8.43
494.095	8.5
494.297	8.52
494.5	8.59
494.702	8.6
494.905	8.65
495.107	8.59
495.309	8.6
495.512	8.56
495.714	8.59
495.917	8.64
496.119	8.68
496.321	8.81
496.524	8.89
496.726	8.86
496.928	8.82
497.13	8.84
497.333	8.69
497.535	8.7
497.737	8.77
497.939	8.88
498.142	8.89
498.344	8.99
498.546	8.96
498.748	9
498.95	9.01
499.152	9.04
499.355	9.03
499.557	9.08
499.759	9.12
499.961	9.15
500.163	9.19
500.365	9.25
500.567	9.27
500.769	9.23
500.971	9.19
501.173	9.2
501.375	9.19
501.577	9.27
501.779	9.33
501.981	9.37
502.183	9.39
502.385	9.45
502.587	9.37
502.788	9.34
502.99	9.36
503.192	9.39
503.394	9.37
503.596	9.49
503.798	9.62
503.999	9.7
504.201	9.67
504.403	9.66
504.605	9.7
504.806	9.72
505.008	9.72
505.21	9.77
505.411	9.91
505.613	9.89
505.815	9.85
506.016	9.93
506.218	9.97
506.42	9.95
506.621	10.05
506.823	10.13
507.024	10.1
507.226	10.13
507.427	10.15
507.629	10.11
507.83	10.12
508.032	10.16
508.233	10.26
508.435	10.35
508.636	10.4
508.838	10.47
509.039	10.54
509.24	10.44
509.442	10.4
509.643	10.34
509.845	10.35
510.046	10.37
510.247	10.44
510.448	10.49
510.65	10.66
510.851	10.66
511.052	10.68
511.254	10.76
511.455	10.75
511.656	10.72
511.857	10.74
512.058	10.75
512.26	10.74
512.461	10.84
512.662	10.88
512.863	10.85
513.064	10.92
513.265	10.97
513.466	10.93
513.667	10.98
513.868	11.11
514.069	11.11
514.27	11.12
514.471	11.14
514.672	11.09
514.873	11.09
515.074	11.14
515.275	11.14
515.476	11.22
515.677	11.3
515.878	11.3
516.079	11.26
516.28	11.29
516.481	11.27
516.682	11.3
516.882	11.31
517.083	11.32
517.284	11.32
517.485	11.35
517.686	11.33
517.886	11.44
518.087	11.49
518.288	11.57
518.488	11.6
518.689	11.63
518.89	11.65
519.091	11.68
519.291	11.65
519.492	11.72
519.692	11.74
519.893	11.73
520.094	11.77
520.294	11.82
520.495	11.83
520.695	11.87
520.896	11.9
521.096	11.94
521.297	11.94
521.497	11.95
521.698	11.89
521.898	11.85
522.099	11.87
522.299	11.84
522.499	11.9
522.7	12.01
522.9	12.11
523.101	12.13
523.301	12.22
523.501	12.19
523.702	12.18
523.902	12.11
524.102	12.2
524.302	12.18
524.503	12.2
524.703	12.22
524.903	12.27
525.103	12.2
525.304	12.23
525.504	12.3
525.704	12.31
525.904	12.35
526.104	12.4
526.304	12.45
526.504	12.42
526.705	12.44
526.905	12.49
527.105	12.53
527.305	12.59
527.505	12.59
527.705	12.63
527.905	12.61
528.105	12.59
528.305	12.56
528.505	12.63
528.705	12.66
528.905	12.75
529.105	12.8
529.304	12.81
529.504	12.84
529.704	12.9
529.904	12.86
530.104	12.86
530.304	12.88
530.503	12.93
530.703	12.9
530.903	12.91
531.103	12.96
531.303	13.01
531.502	13.01
531.702	13.07
531.902	13.08
532.101	13.06
532.301	13.16
532.501	13.18
532.7	13.15
532.9	13.23
533.1	13.25
533.299	13.19
533.499	13.2
533.698	13.25
533.898	13.3
534.097	13.38
534.297	13.42
534.496	13.52
534.696	13.56
534.895	13.58
535.095	13.64
535.294	13.7
535.494	13.67
535.693	13.7
535.892	13.75
536.092	13.71
536.291	13.73
536.491	13.84
536.69	13.95
536.889	14.03
537.088	14.1
537.288	14.1
537.487	14.12
537.686	14.1
537.886	14.14
538.085	14.17
538.284	14.22
538.483	14.21
538.682	14.29
538.882	14.3
539.081	14.33
539.28	14.4
539.479	14.45
539.678	14.45
539.877	14.46
540.076	14.57
540.275	14.56
540.474	14.59
540.673	14.66
540.872	14.67
541.071	14.65
541.27	14.74
541.469	14.74
541.668	14.81
541.867	14.9
542.066	14.99
542.265	15.07
542.464	15.15
542.663	15.22
542.862	15.27
543.06	15.28
543.259	15.35
543.458	15.37
543.657	15.43
543.856	15.51
544.054	15.6
544.253	15.62
544.452	15.76
544.651	15.81
544.849	15.88
545.048	15.86
545.247	15.93
545.445	15.92
545.644	15.92
545.843	15.95
546.041	16.08
546.24	16.16
546.438	16.3
546.637	16.4
546.836	16.52
547.034	16.66
547.233	16.74
547.431	16.76
547.63	16.79
547.828	16.84
548.027	16.83
548.225	16.89
548.423	17.01
548.622	17.17
548.82	17.19
549.019	17.27
549.217	17.4
549.415	17.49
549.614	17.57
549.812	17.71
550.01	17.79
550.209	17.74
550.407	17.82
550.605	17.82
550.803	17.92
551.002	18.02
551.2	18.2
551.398	18.29
551.596	18.37
551.794	18.43
551.993	18.52
552.191	18.62
552.389	18.73
552.587	18.84
552.785	18.88
552.983	19.01
553.181	19.13
553.379	19.22
553.577	19.37
553.775	19.52
553.973	19.58
554.171	19.69
554.369	19.8
554.567	19.85
554.765	19.92
554.963	20.09
555.161	20.16
555.359	20.19
555.557	20.4
555.755	20.59
555.952	20.67
556.15	20.77
556.348	20.92
556.546	21.08
556.744	21.16
556.941	21.29
557.139	21.41
557.337	21.48
557.535	21.46
557.732	21.57
557.93	21.65
558.128	21.78
558.325	21.99
558.523	22.09
558.721	22.14
558.918	22.28
559.116	22.39
559.313	22.48
559.511	22.66
559.708	22.79
559.906	22.79
560.104	22.96
560.301	23.17
560.498	23.31
560.696	23.43
560.893	23.61
561.091	23.68
561.288	23.73
561.486	23.82
561.683	23.99
561.88	24.18
562.078	24.33
562.275	24.38
562.473	24.55
562.67	24.67
562.867	24.72
563.064	24.79
563.262	24.97
563.459	25
563.656	25.09
563.853	25.25
564.051	25.38
564.248	25.48
564.445	25.6
564.642	25.7
564.839	25.77
565.036	25.86
565.234	25.86
565.431	26.05
565.628	26.19
565.825	26.35
566.022	26.45
566.219	26.61
566.416	26.66
566.613	26.73
566.81	26.81
567.007	26.84
567.204	26.83
567.401	26.99
567.598	27.08
567.795	27.16
567.991	27.24
568.188	27.44
568.385	27.43
568.582	27.46
568.779	27.58
568.976	27.76
569.172	27.79
569.369	27.87
569.566	27.96
569.763	27.99
569.96	28.05
570.156	28.15
570.353	28.16
570.55	28.19
570.746	28.28
570.943	28.4
571.14	28.33
571.336	28.44
571.533	28.54
571.729	28.58
571.926	28.54
572.123	28.66
572.319	28.8
572.516	28.86
572.712	28.97
572.909	28.93
573.105	29.09
573.302	28.96
573.498	29.03
573.695	28.96
573.891	29.02
574.087	28.96
574.284	29.07
574.48	29.04
574.677	29.1
574.873	29.11
575.069	29.14
575.266	29.09
575.462	29.15
575.658	29.22
575.854	29.3
576.051	29.31
576.247	29.37
576.443	29.34
576.639	29.25
576.835	29.21
577.032	29.13
577.228	29.18
577.424	29.18
577.62	29.22
577.816	29.23
578.012	29.3
578.208	29.3
578.404	29.29
578.6	29.24
578.796	29.3
578.993	29.19
579.189	29.15
579.384	29.12
579.58	29.17
579.776	29.08
579.972	29.15
580.168	29.17
580.364	29.15
580.56	29.04
580.756	29.04
580.952	29.06
581.148	29.03
581.343	29.12
581.539	29.16
581.735	29.2
581.931	29.17
582.127	29.1
582.322	29.07
582.518	29.09
582.714	28.98
582.909	28.96
583.105	28.91
583.301	28.82
583.496	28.72
583.692	28.7
583.888	28.61
584.083	28.62
584.279	28.69
584.474	28.71
584.67	28.71
584.866	28.79
585.061	28.79
585.257	28.72
585.452	28.75
585.648	28.7
585.843	28.68
586.039	28.65
586.234	28.6
586.429	28.5
586.625	28.61
586.82	28.61
587.015	28.61
587.211	28.58
587.406	28.59
587.601	28.56
587.797	28.54
587.992	28.56
588.187	28.64
588.383	28.73
588.578	28.71
588.773	28.72
588.968	28.78
589.163	28.83
589.359	28.81
589.554	28.75
589.749	28.83
589.944	28.8
590.139	28.82
590.334	28.84
590.529	28.99
590.724	29.02
590.919	29.13
591.114	29.19
591.309	29.18
591.504	29.22
591.699	29.21
591.894	29.12
592.089	29.15
592.284	29.28
592.479	29.23
592.674	29.32
592.869	29.4
593.064	29.36
593.259	29.46
593.454	29.61
593.648	29.63
593.843	29.73
594.038	29.93
594.233	29.96
594.428	30.01
594.622	30.13
594.817	30.28
595.012	30.25
595.206	30.29
595.401	30.34
595.596	30.37
595.79	30.32
595.985	30.38
596.18	30.44
596.374	30.55
596.569	30.68
596.763	30.82
596.958	30.85
597.153	30.9
597.347	31.02
597.542	31.05
597.736	30.99
597.931	31.16
598.125	31.3
598.319	31.25
598.514	31.24
598.708	31.39
598.903	31.39
599.097	31.36
599.291	31.42
599.486	31.44
599.68	31.53
599.874	31.61
600.069	31.68
600.263	31.79
600.457	31.85
600.651	31.98
600.846	32.03
601.04	32.06
601.234	32.14
601.428	32.32
601.622	32.19
601.817	32.29
602.011	32.37
602.205	32.24
602.399	32.18
602.593	32.31
602.787	32.15
602.981	32.22
603.175	32.41
603.369	32.41
603.563	32.44
603.757	32.61
603.951	32.52
604.145	32.41
604.339	32.47
604.533	32.37
604.727	32.25
604.921	32.26
605.115	32.13
605.309	32.06
605.502	32.04
605.696	32.06
605.89	32
606.084	32.09
606.278	31.97
606.471	31.98
606.665	31.82
606.859	31.81
607.053	31.75
607.246	31.7
607.44	31.69
607.634	31.78
607.827	31.69
608.021	31.7
608.214	31.68
608.408	31.51
608.602	31.36
608.795	31.26
608.989	31.15
609.182	30.96
609.376	30.97
609.569	30.92
609.763	30.96
609.956	30.87
610.15	30.9
610.343	30.76
610.537	30.7
610.73	30.58
610.923	30.5
611.117	30.44
611.31	30.27
611.504	30.19
611.697	30.09
611.89	29.95
612.083	29.91
612.277	29.77
612.47	29.73
612.663	29.68
612.856	29.63
613.05	29.45
613.243	29.54
613.436	29.34
613.629	29.14
613.822	28.99
614.015	28.9
614.209	28.79
614.402	28.74
614.595	28.84
614.788	28.9
614.981	28.92
615.174	28.75
615.367	28.63
615.56	28.42
615.753	28.37
615.946	28.25
616.139	28.31
616.332	28.35
616.525	28.35
616.718	28.18
616.911	28.21
617.103	28.08
617.296	27.95
617.489	27.9
617.682	27.88
617.875	27.82
618.067	27.79
618.26	27.7
618.453	27.69
618.646	27.57
618.838	27.46
619.031	27.41
619.224	27.43
619.417	27.36
619.609	27.45
619.802	27.4
619.994	27.37
620.187	27.32
620.38	27.22
620.572	27.18
620.765	27.19
620.957	27.15
621.15	27.17
621.342	27.09
621.535	26.93
621.727	26.79
621.92	26.78
622.112	26.67
622.305	26.67
622.497	26.63
622.69	26.71
622.882	26.59
623.074	26.58
623.267	26.59
623.459	26.61
623.651	26.51
623.844	26.59
624.036	26.53
624.228	26.53
624.42	26.5
624.613	26.47
624.805	26.34
624.997	26.29
625.189	26.23
625.381	26.2
625.574	26.08
625.766	26.04
625.958	26.02
626.15	26
626.342	26.05
626.534	26.1
626.726	26.12
626.918	26.13
627.11	26.15
627.302	26.08
627.494	26.02
627.686	26
627.878	25.86
628.07	25.72
628.262	25.6
628.454	25.62
628.646	25.6
628.838	25.64
629.029	25.52
629.221	25.5
629.413	25.46
629.605	25.39
629.797	25.41
629.989	25.43
630.18	25.43
630.372	25.31
630.564	25.24
630.755	25.15
630.947	25.1
631.139	25.06
631.33	25.09
631.522	25.1
631.714	25.05
631.905	25.05
632.097	24.96
632.289	24.92
632.48	24.88
632.672	24.88
632.863	24.84
633.055	24.78
633.246	24.73
633.438	24.7
633.629	24.64
633.821	24.62
634.012	24.64
634.203	24.59
634.395	24.64
634.586	24.58
634.777	24.57
634.969	24.51
635.16	24.57
635.351	24.41
635.543	24.41
635.734	24.34
635.925	24.43
636.117	24.43
636.308	24.58
636.499	24.61
636.69	24.57
636.881	24.54
637.073	24.49
637.264	24.45
637.455	24.44
637.646	24.51
637.837	24.46
638.028	24.34
638.219	24.28
638.41	24.28
638.601	24.21
638.792	24.19
638.983	24.25
639.174	24.16
639.365	24.07
639.556	24.03
639.747	24.02
639.938	24.03
640.129	24.14
640.32	24.08
640.511	24.11
640.701	24.13
640.892	23.98
641.083	23.84
641.274	23.9
641.465	23.85
641.655	23.74
641.846	23.8
642.037	23.77
642.228	23.62
642.418	23.6
642.609	23.57
642.8	23.57
642.99	23.52
643.181	23.61
643.372	23.56
643.562	23.56
643.753	23.41
643.943	23.35
644.134	23.29
644.324	23.28
644.515	23.21
644.705	23.23
644.896	23.21
645.086	23.2
645.277	23.18
645.467	23.14
645.658	23.08
645.848	23.08
646.038	23.01
646.229	22.96
646.419	22.96
646.61	22.93
646.8	22.88
646.99	22.94
647.18	22.97
647.371	23.04
647.561	23.13
647.751	23.18
647.941	23.08
648.132	22.99
648.322	22.8
648.512	22.74
648.702	22.67
648.892	22.64
649.082	22.61
649.272	22.57
649.462	22.57
649.653	22.54
649.843	22.57
650.033	22.61
650.223	22.67
650.413	22.54
650.603	22.53
650.793	22.4
650.983	22.3
651.172	22.23
651.362	22.16
651.552	22.04
651.742	22.04
651.932	21.98
652.122	21.89
652.312	21.74
652.502	21.69
652.691	21.57
652.881	21.41
653.071	21.27
653.261	21.24
653.45	21.11
653.64	20.99
653.83	21.02
654.019	20.97
654.209	20.8
654.399	20.61
654.588	20.53
654.778	20.23
654.968	20.19
655.157	20.18
655.347	20.11
655.536	19.88
655.726	19.78
655.915	19.5
656.105	19.22
656.294	19.01
656.484	18.86
656.673	18.75
656.863	18.53
657.052	18.37
657.241	18.23
657.431	18.09
657.62	17.87
657.809	17.62
657.999	17.62
658.188	17.41
658.377	17.3
658.567	17.11
658.756	17.08
658.945	16.84
659.134	16.73
659.324	16.46
659.513	16.25
659.702	15.99
659.891	15.7
660.08	15.49
660.269	15.28
660.458	15.15
660.648	15.03
660.837	14.89
661.026	14.66
661.215	14.46
661.404	14.24
661.593	14.01
661.782	13.8
661.971	13.63
662.16	13.42
662.349	13.2
662.538	12.98
662.726	12.86
662.915	12.71
663.104	12.63
663.293	12.45
663.482	12.31
663.671	12.07
663.86	11.92
664.048	11.77
664.237	11.68
664.426	11.55
664.615	11.48
664.803	11.32
664.992	11.2
665.181	11.15
665.369	11.05
665.558	10.92
665.747	10.83
665.935	10.76
666.124	10.59
666.312	10.53
666.501	10.51
666.69	10.46
666.878	10.43
667.067	10.38
667.255	10.33
667.444	10.34
667.632	10.25
667.82	10.13
668.009	10.09
668.197	10.03
668.386	9.94
668.574	9.93
668.762	9.87
668.951	9.91
669.139	9.76
669.327	9.69
669.516	9.72
669.704	9.65
669.892	9.65
670.08	9.71
670.269	9.68
670.457	9.6
670.645	9.64
670.833	9.66
671.021	9.67
671.21	9.72
671.398	9.72
671.586	9.72
671.774	9.6
671.962	9.61
672.15	9.61
672.338	9.62
672.526	9.57
672.714	9.62
672.902	9.74
673.09	9.79
673.278	9.89
673.466	10.05
673.654	10.1
673.842	10.12
674.03	10.13
674.218	10.08
674.405	10.11
674.593	10.17
674.781	10.09
674.969	10.17
675.157	10.16
675.344	10.19
675.532	10.22
675.72	10.33
675.908	10.33
676.095	10.52
676.283	10.53
676.471	10.65
676.658	10.81
676.846	11.02
677.033	11.16
677.221	11.39
677.409	11.38
677.596	11.38
677.784	11.34
677.971	11.34
678.159	11.41
678.346	11.65
678.534	11.79
678.721	11.95
678.909	12.08
679.096	12.12
679.283	12.2
679.471	12.11
679.658	12.28
679.846	12.49
680.033	12.61
680.22	12.74
680.408	12.96
680.595	13.02
680.782	13.13
680.969	13.35
681.157	13.45
681.344	13.76
681.531	13.91
681.718	14.08
681.905	14.24
682.093	14.43
682.28	14.4
682.467	14.65
682.654	14.93
682.841	15.18
683.028	15.39
683.215	15.76
683.402	16
683.589	16.08
683.776	16.23
683.963	16.51
684.15	16.72
684.337	16.96
684.524	17.38
684.711	17.74
684.898	18.09
685.085	18.56
685.271	18.9
685.458	19.12
685.645	19.32
685.832	19.64
686.019	20.02
686.205	20.4
686.392	20.78
686.579	21.21
686.766	21.45
686.952	21.58
687.139	21.91
687.326	22.34
687.512	22.82
687.699	23.5
687.886	24.18
688.072	24.6
688.259	25.02
688.445	25.48
688.632	25.86
688.818	26.52
689.005	27.14
689.191	27.76
689.378	28.21
689.564	28.73
689.751	29.07
689.937	29.67
690.124	30.23
690.31	30.84
690.496	31.48
690.683	32.23
690.869	32.89
691.055	33.5
691.242	34.18
691.428	34.65
691.614	34.96
691.8	35.43
691.987	36.09
692.173	36.92
692.359	37.82
692.545	38.66
692.731	39.24
692.918	39.95
693.104	40.38
693.29	40.88
693.476	41.55
693.662	42.43
693.848	42.96
694.034	43.51
694.22	44.1
694.406	44.61
694.592	45.21
694.778	45.69
694.964	46.49
695.15	47.28
695.336	48.04
695.522	48.7
695.708	49.49
695.894	50.05
696.08	50.56
696.265	50.99
696.451	51.57
696.637	52.19
696.823	52.67
697.009	53.44
697.194	54.09
697.38	54.51
697.566	55.13
697.751	55.72
697.937	55.98
698.123	56.52
698.308	57.04
698.494	57.35
698.68	57.76
698.865	58.56
699.051	59.39
699.236	59.78
699.422	60.24
699.607	60.83
699.793	61.06
699.978	61.12
700.164	61.79
700.349	62.36
700.535	62.94
700.72	63.16
700.906	63.35
701.091	63.63
701.276	64.09
701.462	64.4
701.647	64.93
701.832	65.62
702.018	65.84
702.203	66.15
702.388	66.37
702.573	66.82
702.759	66.92
702.944	67.51
703.129	67.71
703.314	67.98
703.499	68.08
703.684	68.7
703.87	68.54
704.055	68.97
704.24	69.4
704.425	69.82
704.61	70.15
704.795	70.87
704.98	71.04
705.165	71.08
705.35	71.23
705.535	71.43
705.72	71.55
705.905	71.8
706.09	72.24
706.275	72.28
706.459	72.34
706.644	72.49
706.829	72.51
707.014	72.71
707.199	73.37
707.384	73.68
707.568	74.2
707.753	74.75
707.938	74.79
708.123	74.75
708.307	74.86
708.492	74.89
708.677	74.87
708.861	75.08
709.046	75.46
709.231	75.9
709.415	76.01
709.6	75.89
709.784	76.01
709.969	76.01
710.153	76.02
710.338	76.23
710.522	76.56
710.707	76.73
710.891	76.64
711.076	76.4
711.26	76.06
711.445	75.97
711.629	76.57
711.813	77.12
711.998	77.65
712.182	77.69
712.366	78.11
712.551	77.52
712.735	77.04
712.919	77.1
713.103	77.66
713.288	77.58
713.472	78.18
713.656	78.6
713.84	78.46
714.024	78.66
714.208	79.02
714.393	78.58
714.577	78.62
714.761	78.75
714.945	78.83
715.129	78.98
715.313	79.59
715.497	79.94
715.681	80.02
715.865	80.51
716.049	80.28
716.233	80.25
716.417	80.14
716.601	80.15
716.785	79.51
716.968	79.7
717.152	80
717.336	80.53
717.52	80.7
717.704	80.79
717.888	81.06
718.071	80.84
718.255	80.77
718.439	80.6
718.622	80.58
718.806	80.54
718.99	80.74
719.174	80.13
719.357	80.66
719.541	81.01
719.724	81.5
719.908	81.24
720.092	81.7
720.275	81.68
720.459	81.88
720.642	81.53
720.826	82.1
721.009	81.89
721.193	82.05
721.376	81.66
721.559	81.54
721.743	81.04
721.926	81.29
722.11	80.91
722.293	81.1
722.476	81.72
722.66	81.8
722.843	82.31
723.026	82.38
723.21	82.29
723.393	81.9
723.576	82.02
723.759	81.76
723.942	82.51
724.126	82.41
724.309	82.6
724.492	82.51
724.675	82.68
724.858	82.03
725.041	82.58
725.224	83.31
725.407	83.38
725.59	83.62
725.774	83.98
725.957	84.2
726.14	83.07
726.322	83.19
726.505	82.71
726.688	82.65
726.871	82.26
727.054	82.28
727.237	82.6
727.42	83.29
727.603	83.31
727.786	83.33
727.968	83.91
728.151	83.64
728.334	83.36
728.517	83.29
728.699	83.4
728.882	83.22
729.065	83.33
729.248	83.6
729.43	83.44
729.613	83.6
729.796	83.54
729.978	83.3
730.161	82.44
730.343	82.06
730.526	82.15
730.708	82.34
730.891	82.61
731.073	82.92
731.256	84.21
731.438	83.69
731.621	83.85
731.803	84.35
731.986	84.71
732.168	84.06
732.35	84.32
732.533	83.87
732.715	83.43
732.898	83.2
733.08	83.27
733.262	83.89
733.444	84.41
733.627	84.79
733.809	84.5
733.991	84.73
734.173	84.01
734.355	83.79
734.538	83.42
734.72	83.89
734.902	84.01
735.084	84.22
735.266	84.16
735.448	83.95
735.63	84.81
735.812	84.97
735.994	86.17
736.176	86.52
736.358	87.36
736.54	87.06
736.722	86.99
736.904	86.34
737.086	86.14
737.268	85.78
737.45	85.02
737.632	85.14
737.814	84.82
737.995	85.27
738.177	85.53
738.359	85.61
738.541	85.3
738.723	85.58
738.904	85.55
739.086	85.49
739.268	86.07
739.449	86.56
739.631	86.29
739.813	85.64
739.994	85.91
740.176	85.75
740.358	85.82
740.539	86.19
740.721	86.98
740.902	87.08
741.084	87.62
741.265	87.57
741.447	87.29
741.628	87.26
741.81	87.02
741.991	86.26
742.172	86.55
742.354	86.87
742.535	87.03
742.717	86.68
742.898	86.94
743.079	86.78
743.261	87.18
743.442	86.21
743.623	86.08
743.804	85.5
743.986	85.48
744.167	84.08
744.348	84.5
744.529	84.88
744.71	85.49
744.891	85
745.073	85.95
745.254	86.16
745.435	85.7
745.616	85.37
745.797	85.03
745.978	84.12
746.159	84.68
746.34	84.7
746.521	85.51
746.702	85.53
746.883	86.82
747.064	86.75
747.245	86.85
747.426	85.23
747.606	84.83
747.787	84.29
747.968	84.27
748.149	84.85
748.33	85.11
748.51	85.41
748.691	85.2
748.872	84.62
749.053	84.18
749.233	85.3
749.414	85.94
749.595	85.86
749.775	85.46
749.956	86.01
750.137	85.61
750.317	85.45
750.498	85.71
750.678	85.89
750.859	85.71
751.04	85.07
751.22	85.67
751.4	85.33
751.581	84.54
751.761	84.59
751.942	85.31
752.122	84.42
752.303	83.14
752.483	83.74
752.663	82.04
752.844	82.29
753.024	82.39
753.204	84.24
753.385	83.28
753.565	83.88
753.745	82.35
753.925	81.41
754.106	81.19
754.286	83.25
754.466	84.16
754.646	85.12
754.826	86.26
755.006	85.81
755.187	84.5
755.367	84.71
755.547	84.73
755.727	84.79
755.907	83.43
756.087	83.68
756.267	83.83
756.447	84.41
756.627	84.57
756.807	86.1
756.987	86.14
757.167	85.06
757.346	84.67
757.526	84.88
757.706	84.31
757.886	84.66
758.066	85.15
758.246	84.93
758.425	84.79
758.605	85.79
758.785	85.66
758.965	84.4
759.144	83.54
759.324	83.44
759.504	82.78
759.683	82.45
759.863	83.55
760.043	84.74
760.222	84.68
760.402	84.37
760.581	83.69
760.761	83.05
760.94	82.09
761.12	83.08
761.299	85.14
761.479	85.52
761.658	85.31
761.838	86.01
762.017	84.39
762.197	82.51
762.376	83.44
762.555	83.03
762.735	82.21
762.914	81.9
763.093	82.02
763.273	80.91
763.452	82.2
763.631	82.49
763.81	84.05
763.99	84.3
764.169	84.15
764.348	83.55
764.527	83.13
764.706	82.39
764.885	82.22
765.064	82.67
765.243	83.96
765.423	83.68
765.602	82.81
765.781	81.61
765.96	81.5
766.139	80.38
766.318	81.6
766.497	80.87
766.676	81.95
766.854	81.39
767.033	81.13
767.212	81.26
767.391	80.68
767.57	82.49
767.749	83.28
767.928	83.4
768.106	82.68
768.285	83.48
768.464	80.69
768.643	79.86
768.821	81.73
769	82.84
769.179	82.89
769.357	83.71
769.536	85.08
769.715	82.68
769.893	81.57
770.072	81.35
770.25	80.26
770.429	79.87
770.607	80.64
770.786	79.74
770.964	81.34
771.143	83.07
771.321	83.71
771.5	83.78
771.678	85.24
771.857	84.73
772.035	82.14
772.213	81.43
772.392	81.31
772.57	79.03
772.748	78.42
772.927	82.67
773.105	81.43
773.283	79.85
773.461	80.49
773.64	79.23
773.818	77.58
773.996	78.42
774.174	80.1
774.352	81.88
774.531	80.74
774.709	80.58
774.887	80.42
775.065	79.53
775.243	77.15
775.421	79.7
775.599	80.55
775.777	77.63
775.955	76.67
776.133	77.58
776.311	76.96
776.489	75.76
776.667	78.43
776.844	79.03
777.022	78.85
777.2	79.21
777.378	79.99
777.556	79.66
777.734	79.55
777.911	81.19
778.089	80.94
778.267	79.91
778.445	78.32
778.622	79.07
778.8	75.84
778.978	77.09
779.155	76.26
779.333	78.26
779.511	78.18
779.688	80.36
779.866	80.05
780.043	78.59
780.221	77.31
780.398	75.7
780.576	76.05
780.753	75.77
780.931	79.91
781.108	79.39
781.286	79.46
781.463	77.13
781.64	73.76
781.818	72.65
781.995	73.31
782.172	74.32
782.35	77.23
782.527	80.08
782.704	79.58
782.882	80.09
783.059	80.22
783.236	79.59
783.413	81.49
783.59	82.25
783.768	83.61
783.945	84.89
784.122	84.83
784.299	85.37
784.476	84.62
784.653	84.81
784.83	82.28
785.007	82.82
785.184	79.96
785.361	81.64
785.538	77.94
785.715	77.31
785.892	75.49
786.069	75.05
786.246	76.65
786.423	77.19
786.6	78.63
786.776	80.2
786.953	78.54
787.13	73.11
787.307	72.22
787.484	71.64
787.66	69.85
787.837	70.8
788.014	72.57
788.191	72.64
788.367	70.84
788.544	74.27
788.721	76.59
788.897	75.16
789.074	75.55
789.25	75.73
789.427	75.81
789.603	76.62
789.78	78.5
789.956	79.48
790.133	81.02
790.309	78.16
790.486	78.94
790.662	74.67
790.839	75.31
791.015	78.16
791.192	77.94
791.368	73.43
791.544	77.62
791.721	78.91
791.897	78.69
792.073	83.2
792.249	83.47
792.426	81
792.602	81.68
792.778	75.53
792.954	72.21
793.13	72.78
793.307	75.22
793.483	74.45
793.659	78.69
793.835	78.95
794.011	79.36
794.187	73.72
794.363	72.18
794.539	72.46
794.715	74.03
794.891	75.32
795.067	79.56
795.243	82.34
795.419	78.96
795.595	78.67
795.771	78.33
795.947	78.9
796.122	72.61
796.298	76.18
796.474	76.11
796.65	74.27
796.826	72.55
797.001	73.65
797.177	71.81
797.353	70.3
797.529	73.19
797.704	74.42
797.88	78.4
798.056	75.11
798.231	72.83
798.407	71.24
798.582	73.92
798.758	72.85
798.934	78.61
799.109	81.52
799.285	75.89
799.46	75.9
799.636	72.99
799.811	70.55
799.986	73.95
800.162	79.82
800.337	76.6
800.513	74.71
800.688	73.76
800.863	72.73
801.039	66.81
801.214	66.49
801.389	73.09
801.565	74.8
801.74	72.92
801.915	77.87
802.09	76.77
802.265	72.69
802.441	70.77
802.616	69.82
802.791	69.72
802.966	71.26
803.141	73.33
803.316	77.52
803.491	76.24
803.666	73.79
803.841	70.75
804.016	70.37
804.191	70.74
804.366	68.04
804.541	66.53
804.716	69.09
804.891	71.4
805.066	74.12
805.241	84.53
805.416	81.11
805.591	85.27
805.765	85.4
805.94	74.36
806.115	70.17
806.29	74.76
806.464	71.21
806.639	65.15
806.814	68.27
806.989	67.56
807.163	67.93
807.338	66.39
807.512	74.88
807.687	72.58
807.862	77.18
808.036	82.33
808.211	78.08
808.385	77.3
808.56	75.9
808.734	73.41
808.909	66.11
809.083	72.88
809.258	70.43
809.432	71.48
809.606	66.96
809.781	73.98
809.955	74.84
810.13	73.57
810.304	73.7
810.478	73.41
810.652	68.63
810.827	62.75
811.001	62.37
811.175	64.68
811.349	68.45
811.524	72.3
811.698	76.03
811.872	86.29
812.046	85.04
812.22	79.93
812.394	85.87
812.568	82.39
812.742	75.61
812.916	68.42
813.09	71.53
813.264	59.66
813.438	58.48
813.612	68.42
813.786	75.72
813.96	76.8
814.134	79.56
814.308	84.07
814.482	73.13
814.656	76.08
814.83	69.82
815.003	68.76
815.177	72.7
815.351	73.18
815.525	71.08
815.698	77.67
815.872	87.94
816.046	90.6
816.219	92.74
816.393	89.33
816.567	88.01
816.74	81.18
816.914	73.81
817.088	67.95
817.261	62.63
817.435	67.81
817.608	65.63
817.782	69.4
817.955	74.21
818.129	86.67
818.302	71.34
818.475	68.82
818.649	55.17
818.822	50.4
818.996	50.29
819.169	59.58
819.342	60.16
819.516	63.07
819.689	72.26
819.862	69.32
820.035	65.2
820.209	68.29
820.382	76.76
820.555	63.52
820.728	57.94
820.901	62.04
821.075	69.24
821.248	69.29
821.421	75.18
821.594	80.95
821.767	84.37
821.94	74.34
822.113	74.62
822.286	87.4
822.459	74.91
822.632	76.38
822.805	86.68
822.978	82.78
823.151	69.09
823.324	74.22
823.496	75.8
823.669	72.24
823.842	75.84
824.015	77.08
824.188	56
824.361	47.89
824.533	40.03
824.706	35.89
824.879	42.47
825.051	72.13
825.224	69.35
825.397	74.68
825.569	74.6
825.742	73.48
825.915	63.06
826.087	67.47
826.26	65.91
826.432	64.08
826.605	65.35
826.777	76.22
826.95	70.12
827.122	61.27
827.295	61.99
827.467	73.7
827.64	69.17
827.812	71.26
827.984	80.73
828.157	75.32
828.329	67.61
828.501	56.78
828.674	67.61
828.846	56.65
829.018	52.06
829.19	51.88
829.363	56.03
829.535	53.16
829.707	57.14
829.879	66.23
830.051	64.19
830.223	63.81
830.395	63.84
830.568	69.51
830.74	70.66
830.912	61.73
831.084	51.01
831.256	51.03
831.428	52.17
831.6	62.59
831.772	71.07
831.943	75.48
832.115	56.08
832.287	50.15
832.459	39.72
832.631	54.92
832.803	53.23
832.975	49.3
833.146	36.98
833.318	40.2
833.49	36.35
833.662	41.55
833.833	73.36
834.005	89.87
834.177	75
834.348	69.25
834.52	69.53
834.692	63.94
834.863	59.83
835.035	66.02
835.206	75.85
835.378	89.41
835.549	94.7
835.721	112.5
835.892	149.58
836.064	114.99
836.235	90.56
836.407	86.22
836.578	78.06
836.749	49.47
836.921	60.32
837.092	39.75
837.264	33.2
837.435	33.8
837.606	57.39
837.777	44.05
837.949	46.89
838.12	53.6
838.291	45.14
838.462	50.24
838.633	42.97
838.805	52.43
838.976	61.51
839.147	62.43
839.318	39.59
839.489	46.67
839.66	46.73
839.831	35.13
840.002	44.8
840.173	40.08
840.344	43.47
840.515	48.41
840.686	51.6
840.857	33.32
841.028	50.58
841.199	65.51
841.369	60.05
841.54	56.53
841.711	67.34
841.882	80.32
842.053	61.94
842.223	33.7
842.394	36.81
842.565	40.62
842.736	30.65
842.906	45.46
843.077	59.39
843.248	49.11
843.418	36.56
843.589	22.12
843.759	11.49
843.93	12.22
844.101	53.39
844.271	46.7
844.442	45.8
844.612	84.24
844.783	88.91
844.953	99.59
845.123	-15150
845.294	70.15
845.464	27.56
845.635	47.34
845.805	30.42
845.975	55.65
846.146	65.58
846.316	77.46
846.486	68.6
846.656	67.87
846.827	45.08
846.997	35.25
847.167	22.15
847.337	43.33
847.507	56.75
847.677	52.83
847.848	62.85
848.018	135.55
848.188	81.73
848.358	67.86
848.528	130.78
848.698	100.43
848.868	56.65
849.038	94.89
849.208	158.06
849.378	84.28
849.548	100.42
849.718	70.63
849.887	66.07
850.057	27.77
850.227	49.53
850.397	53.74
850.567	64
850.737	75.84
850.906	79.54
851.076	65.83
851.246	65.59
851.415	43.93
851.585	30.2
851.755	27.71
851.924	35.85
852.094	41.93
852.264	92.33
852.433	115.48
852.603	65.8
852.772	71.53
852.942	42.88
853.111	36.46
853.281	12.56
853.45	43
853.62	71.55
853.789	73
853.959	49.92
854.128	47.62
854.297	32.82
854.467	11.11
854.636	21.24
854.805	51.37
854.975	75.86
855.144	59.16
855.313	66.68
855.482	35.85
855.652	36.36
855.821	38.22
855.99	33.67
856.159	25.88
856.328	41.23
856.497	57.13
856.667	40.71
856.836	70.51
857.005	96.89
857.174	72.58
857.343	27.54
857.512	39.91
857.681	32.33
857.85	-318.44
858.019	33.01
858.188	82.66
858.356	68.09
858.525	47.4
858.694	67.95
858.863	42.7
859.032	11.71
859.201	-32.97
859.369	48.63
859.538	-31.95
859.707	-39.72
859.876	6.83
860.044	8.87
860.213	-27.88
860.382	17.56
860.55	26.1
860.719	67.7
860.888	56.29
861.056	61.67
861.225	66.61
861.393	86.73
861.562	58.26
861.73	73.91
861.899	80.07
862.067	61.65
862.236	-1.63
862.404	58.12
862.572	27.57
862.741	-10.46
862.909	53.8
863.078	82.58
863.246	17.98
863.414	1.85
863.582	82.07
863.751	-3.25
863.919	-54.47
864.087	157.74
864.255	-277.4
864.424	-33.22
864.592	120.9
864.76	47.95
864.928	23.71
865.096	38.73
865.264	40.01
865.432	8.05
865.6	16.14
865.768	12.44
865.936	19.94
866.104	35.82
866.272	27.77
866.44	25.17
866.608	49.1
866.776	45.65
866.944	-9.36
867.112	22.58
867.28	41.51
867.448	10.03
867.615	41.64
867.783	34.03
867.951	4.97
868.119	-0.52
868.286	-10.44
868.454	-27.96
868.622	-15.21
868.789	22.45
868.957	27.9
869.125	32.92
869.292	11.54
869.46	-30.99
869.627	-61.94
869.795	-280.15
869.963	271.02
870.13	-140.16
870.298	134.35
870.465	153.16
870.632	92.59
870.8	84.06
870.967	54.95
871.135	42.2
871.302	42.93
871.469	17.77
871.637	31.41
871.804	40.94
871.971	30.09
872.139	12.34
872.306	30.93
872.473	16.28
872.64	19.41
872.807	6.23
872.975	40.77
873.142	31.7
873.309	44.78
873.476	41.96
873.643	85.46
873.81	54.35
873.977	69.67
874.144	39.23
874.311	18.88
874.478	11.1
874.645	50.41
874.812	43.4
874.979	23.83
875.146	14.33
875.313	9.9
875.48	-32.36
875.647	-54.57
875.813	-19.32
875.98	-8.06
876.147	-56.84
876.314	-15.52
876.481	21.89
876.647	35.07
876.814	28.58
876.981	91.96
877.147	-1425
877.314	163.58
877.481	1588.64
877.647	947.73
877.814	-3.2
877.98	17.91
878.147	25.8
878.314	106.09
878.48	74.23
878.647	98.08
878.813	85.57
878.979	99.96
879.146	55.46
879.312	44.27
879.479	44.66
879.645	49.86
879.811	43.42
879.978	87.16
880.144	79.98
880.31	50.79
880.477	27.67
880.643	15.39
880.809	20.14
880.975	25.14
881.142	-52.7
881.308	450
881.474	-19.26
881.64	13.81
881.806	60.82
881.972	-94.63
882.138	-236.3
882.304	291.8
882.47	45.69
882.636	134.52
882.802	24.29
882.968	441.55
883.134	43.21
883.3	101.27
883.466	137.84
883.632	105.59
883.798	25.99
883.964	67.75
884.129	-183.64
884.295	2.56
884.461	90.29
884.627	145.02
884.793	156.17
884.958	169.17
885.124	184.95
885.29	143.2
885.455	46.3
885.621	11.36
885.787	590.51
885.952	-196.99
886.118	-27.86
886.283	48.66
886.449	50.69
886.614	6.26
886.78	-13.89
886.945	-6.75
887.111	-7.43
887.276	26.65
887.442	39.01
887.607	61.09
887.773	72.52
887.938	53.81
888.103	37.5
888.269	93.83
888.434	106.17
888.599	63.75
888.764	91.32
888.93	93.92
889.095	66.53
889.26	67.04
889.425	83.49
889.59	90.31
889.756	70.12
889.921	64.25
890.086	68.62
890.251	93.02
890.416	35.51
890.581	54.77
890.746	42.08
890.911	40.53
891.076	-70.37
891.241	24.78
891.406	38.64
891.571	19.53
891.736	46.31
891.901	69.61
892.065	56.48
892.23	18.61
892.395	50.32
892.56	-0.23
892.725	2.48
892.889	29.84
893.054	39.22
893.219	62.24
893.384	142.82
893.548	24.68
893.713	58.06
893.878	53.39
