Data from Ofra_PS_Phys_4HS23_Reflection_1.txt Node
Date: Tue Jul 20 20:40:04 EDT 2021
User: USUARIO
Spectrometer: FLMT01687
Trigger mode: 0
Integration Time (sec): 1.042999E0
Scans to average: 2
Electric dark correction enabled: true
Nonlinearity correction enabled: false
Boxcar width: 2
XAxis mode: Wavelengths
Number of Pixels in Spectrum: 3648
>>>>>Begin Spectral Data<<<<<
179.494	-0
179.716	36
179.937	127.55
180.158	29.71
180.38	38.36
180.601	44.15
180.823	19.08
181.044	-20.71
181.265	8.99
181.486	-1.51
181.708	15.72
181.929	-37.74
182.15	-7.92
182.372	-45.1
182.593	-28.01
182.814	-92.78
183.035	-16.9
183.257	-30.01
183.478	-386.34
183.699	-209.97
183.92	-16.52
184.141	-105.92
184.363	-60.61
184.584	6.63
184.805	-4.03
185.026	-6.42
185.247	-2.14
185.468	-3.3
185.689	22.58
185.91	23.42
186.132	-14.48
186.353	-21.91
186.574	-8.44
186.795	-7.35
187.016	24.03
187.237	46.35
187.458	47.68
187.679	43.92
187.9	30.36
188.121	21.27
188.342	12.14
188.563	44.9
188.784	33.39
189.005	30.07
189.226	29.68
189.447	28.98
189.667	22.08
189.888	25.59
190.109	30.64
190.33	41.87
190.551	59.22
190.772	38.1
190.993	25.97
191.214	27.75
191.434	5.72
191.655	24.63
191.876	28.24
192.097	45.87
192.318	64.1
192.538	65.84
192.759	43.01
192.98	53.37
193.201	25.04
193.421	22.41
193.642	35.84
193.863	53.97
194.083	40.56
194.304	69.97
194.525	56.59
194.745	55.49
194.966	41.47
195.187	50.95
195.407	-7
195.628	-12.78
195.848	-30.36
196.069	16.15
196.29	13.99
196.51	27.38
196.731	39.03
196.951	47.23
197.172	45.23
197.392	55.99
197.613	61.82
197.833	59.84
198.054	52.18
198.274	42.04
198.495	23.72
198.715	4.71
198.936	-0.69
199.156	22.96
199.377	19.77
199.597	36.45
199.817	37.19
200.038	43.16
200.258	58.65
200.479	65.31
200.699	42.93
200.919	55.34
201.14	52.31
201.36	11.53
201.58	-30.99
201.801	71.48
202.021	17.03
202.241	19.09
202.461	39.81
202.682	43
202.902	46.78
203.122	88.78
203.342	81.48
203.563	50.82
203.783	49.45
204.003	-6.04
204.223	-3.47
204.443	3.21
204.663	13.43
204.884	7.09
205.104	27.99
205.324	29.1
205.544	31.6
205.764	42.76
205.984	31.63
206.204	17.6
206.424	33.87
206.644	31.21
206.864	19.68
207.084	41.51
207.304	47.07
207.525	54.63
207.745	60.17
207.964	45.87
208.184	55.28
208.404	48.07
208.624	28.37
208.844	27.89
209.064	34.58
209.284	1.19
209.504	10.65
209.724	14.69
209.944	-45.36
210.164	-11.01
210.384	19.37
210.604	24.18
210.823	21.64
211.043	34.64
211.263	15.06
211.483	-7.86
211.703	-33.8
211.922	-37.14
212.142	-29.63
212.362	24.41
212.582	17.93
212.801	35.8
213.021	31.78
213.241	26.94
213.461	3.37
213.68	-32.93
213.9	-29.89
214.12	-36.6
214.339	-64.62
214.559	-28.48
214.779	-12.18
214.998	-18.19
215.218	0.3
215.438	6.45
215.657	13.15
215.877	25.24
216.096	44.67
216.316	26.46
216.535	32.44
216.755	12.41
216.974	25.34
217.194	-7.85
217.413	12.65
217.633	10.28
217.852	24.26
218.072	9.27
218.291	15.07
218.511	11.99
218.73	7.93
218.95	12.69
219.169	7.03
219.389	11.1
219.608	24.93
219.827	33.92
220.047	18.8
220.266	22.78
220.485	32.6
220.705	1.66
220.924	-16.74
221.143	-2.66
221.363	-5.94
221.582	-35.19
221.801	-0.32
222.021	19.03
222.24	24.23
222.459	31.25
222.678	42.02
222.897	40.69
223.117	27.02
223.336	39.22
223.555	34.1
223.774	12.27
223.993	46.31
224.213	43.89
224.432	32.89
224.651	33.42
224.87	41.49
225.089	0.82
225.308	13.9
225.527	12.88
225.746	-1.03
225.965	14.75
226.184	15.7
226.404	27.67
226.623	11.62
226.842	28.63
227.061	16.65
227.28	16.99
227.499	-15.13
227.718	-0.93
227.936	6.68
228.155	17.27
228.374	34.49
228.593	48.18
228.812	50.2
229.031	45.35
229.25	32.56
229.469	21.06
229.688	5.47
229.907	4.06
230.125	0.36
230.344	21.45
230.563	29.28
230.782	28.2
231.001	39.01
231.22	55.73
231.438	25.99
231.657	-1.69
231.876	33.5
232.095	26.02
232.313	15.37
232.532	38.55
232.751	61.01
232.969	45.15
233.188	58.12
233.407	73.53
233.625	50.22
233.844	60.22
234.063	63.52
234.281	46.48
234.5	38.12
234.719	53.24
234.937	39.24
235.156	43.46
235.374	54.75
235.593	51.88
235.811	43.06
236.03	40.02
236.249	27.31
236.467	18.95
236.686	10.42
236.904	20.8
237.123	21.34
237.341	14.31
237.559	20.3
237.778	8.4
237.996	0.76
238.215	2.02
238.433	23.47
238.652	22.8
238.87	28.38
239.088	30.43
239.307	38.38
239.525	42.38
239.743	36.94
239.962	48.26
240.18	48.34
240.398	50.9
240.617	33.93
240.835	32.87
241.053	34.49
241.271	39.79
241.49	22.81
241.708	48.31
241.926	47.21
242.144	42.01
242.363	27.01
242.581	45.45
242.799	23.03
243.017	24.63
243.235	36.96
243.453	33.8
243.672	21.11
243.89	20.76
244.108	22.97
244.326	5.47
244.544	13.78
244.762	17.02
244.98	19.1
245.198	17.44
245.416	17.97
245.634	20.96
245.852	23.99
246.07	24.59
246.288	26.34
246.506	27.91
246.724	5.76
246.942	2.23
247.16	-13.74
247.378	-9.57
247.596	-0
247.814	15.56
248.032	14.17
248.25	14.94
248.468	9.19
248.685	1.04
248.903	-4.22
249.121	-2.36
249.339	1.32
249.557	4.97
249.775	9.15
249.992	17.22
250.21	26.03
250.428	33.47
250.646	54.05
250.863	60.71
251.081	12.24
251.299	-0.8
251.517	1.8
251.734	-20.3
251.952	-32.13
252.17	-19.33
252.387	-3.78
252.605	-1.85
252.823	32.8
253.04	43.82
253.258	48.09
253.475	42.78
253.693	59.44
253.911	54.15
254.128	40.95
254.346	41.18
254.563	61.16
254.781	30.98
254.998	29.98
255.216	22.08
255.433	29.9
255.651	69.36
255.868	83.04
256.086	93.51
256.303	72.05
256.521	53.82
256.738	21.38
256.956	19.77
257.173	7.75
257.39	11.1
257.608	18.7
257.825	29.27
258.043	43.12
258.26	41.82
258.477	46.97
258.695	50.29
258.912	53.04
259.129	40.39
259.346	35.15
259.564	15.6
259.781	28.1
259.998	16.9
260.216	9.51
260.433	8.74
260.65	30.22
260.867	27.67
261.084	21.42
261.302	28.77
261.519	48.2
261.736	23.16
261.953	8.81
262.17	-2.28
262.387	16.23
262.604	6.61
262.822	24.38
263.039	22.23
263.256	25.66
263.473	22.89
263.69	29.7
263.907	40.1
264.124	20.14
264.341	30.98
264.558	11.93
264.775	-17.01
264.992	-14.27
265.209	26.7
265.426	18.57
265.643	30.87
265.86	44.18
266.077	28.1
266.294	25.21
266.51	27.9
266.727	22.53
266.944	25.62
267.161	40.26
267.378	31.08
267.595	30.44
267.812	23.57
268.028	1.78
268.245	-10.73
268.462	0.71
268.679	-3.05
268.896	10.95
269.112	25.83
269.329	19
269.546	24.08
269.763	27.36
269.979	26.93
270.196	9.85
270.413	19.29
270.629	18.75
270.846	18.15
271.063	14.23
271.279	12.56
271.496	12.98
271.712	19.97
271.929	17.99
272.146	35.19
272.362	51.02
272.579	53.93
272.795	37.02
273.012	24.07
273.228	8.72
273.445	-5.29
273.661	-16.81
273.878	-0.71
274.094	13.73
274.311	22.56
274.527	33.93
274.744	38.83
274.96	46.42
275.177	59.78
275.393	44.56
275.609	7.37
275.826	4.04
276.042	-2.59
276.259	-27.72
276.475	-0.92
276.691	0.72
276.908	-12.38
277.124	-7.8
277.34	6.29
277.557	3.19
277.773	19.88
277.989	30.18
278.205	24.99
278.422	14.07
278.638	26.08
278.854	29.3
279.07	30.28
279.286	38.73
279.503	41.38
279.719	42.16
279.935	44.49
280.151	37.56
280.367	21.4
280.583	36.24
280.799	34.53
281.016	26.58
281.232	22.56
281.448	30.69
281.664	35.9
281.88	11.03
282.096	17.05
282.312	27.15
282.528	50.2
282.744	42.74
282.96	60.49
283.176	41.82
283.392	25.39
283.608	2.87
283.824	-3.99
284.04	-2.78
284.256	8.23
284.471	6.52
284.687	16.21
284.903	22.4
285.119	11.57
285.335	18.13
285.551	16.18
285.767	24
285.982	4.48
286.198	27.47
286.414	26.06
286.63	48.67
286.846	47.19
287.061	60.53
287.277	40.86
287.493	22.19
287.709	12.95
287.924	7.74
288.14	21.12
288.356	29.6
288.571	39.21
288.787	35.69
289.003	33.1
289.218	20.77
289.434	18.96
289.65	30.87
289.865	26.42
290.081	46.62
290.296	57.89
290.512	67.09
290.727	72.48
290.943	61.81
291.159	57.53
291.374	43.81
291.59	18.17
291.805	-6.77
292.021	1.68
292.236	2.13
292.451	14.28
292.667	28.93
292.882	34.04
293.098	39.31
293.313	33.85
293.529	37.54
293.744	38.57
293.959	44.52
294.175	53.42
294.39	55.01
294.605	44.69
294.821	34.64
295.036	33.26
295.251	7.93
295.467	10.66
295.682	12.38
295.897	18.67
296.112	20.93
296.328	14.08
296.543	17.59
296.758	17.34
296.973	10.22
297.188	4.23
297.404	15.06
297.619	19.88
297.834	18.43
298.049	18.59
298.264	11.9
298.479	2.39
298.694	-6.41
298.909	6.77
299.125	18.12
299.34	38.46
299.555	38.47
299.77	45.46
299.985	39.95
300.2	27.62
300.415	23.88
300.63	39.4
300.845	17.03
301.06	22.04
301.275	26.95
301.49	27.9
301.704	10.36
301.919	23.11
302.134	10.62
302.349	13.53
302.564	5.43
302.779	14.57
302.994	23.03
303.209	3.5
303.423	5.14
303.638	16.69
303.853	4.2
304.068	9.29
304.283	39.91
304.497	38.83
304.712	38.2
304.927	39.49
305.142	32.77
305.356	24.76
305.571	34.04
305.786	30.61
306	43.25
306.215	31.79
306.43	38.84
306.644	35.12
306.859	39.58
307.074	30.58
307.288	38.22
307.503	42.39
307.717	24.8
307.932	36.76
308.147	33.97
308.361	38.57
308.576	27.51
308.79	34.35
309.005	5.98
309.219	6.98
309.434	5.23
309.648	14.74
309.863	22.6
310.077	35.68
310.292	29.72
310.506	26.63
310.72	26.59
310.935	26.56
311.149	6.96
311.364	26.61
311.578	49.38
311.792	48.78
312.007	42.49
312.221	51.28
312.435	40.38
312.649	12.27
312.864	-0.12
313.078	0.11
313.292	8.17
313.507	11.84
313.721	13.21
313.935	18.7
314.149	25.98
314.363	12.22
314.578	3.36
314.792	11.37
315.006	17.6
315.22	2.18
315.434	2.23
315.648	20.2
315.862	19.41
316.077	23.27
316.291	28.97
316.505	48.45
316.719	46.64
316.933	34.98
317.147	29.35
317.361	28.51
317.575	7.92
317.789	-18.09
318.003	-25.84
318.217	-9.77
318.431	11.11
318.645	20.93
318.859	29.87
319.073	29.83
319.287	23.61
319.5	10.24
319.714	22.65
319.928	34.35
320.142	37.54
320.356	41.57
320.57	51.69
320.784	39.62
320.997	30.73
321.211	26.55
321.425	24.9
321.639	28.56
321.853	40.01
322.066	50.85
322.28	58.18
322.494	61.74
322.707	47.92
322.921	38.46
323.135	21.7
323.349	14.71
323.562	4.45
323.776	5.41
323.989	25.39
324.203	27.59
324.417	30.72
324.63	31.26
324.844	37.24
325.057	34.58
325.271	32.38
325.485	26.03
325.698	37.38
325.912	28.62
326.125	22.63
326.339	24.11
326.552	39.1
326.766	30.14
326.979	33.32
327.193	27.52
327.406	43.21
327.619	35.44
327.833	27.5
328.046	20.24
328.26	6.33
328.473	6.26
328.686	-4.11
328.9	-10.69
329.113	10.17
329.326	32.25
329.54	24.67
329.753	33.22
329.966	25.96
330.179	16.8
330.393	17.19
330.606	26.6
330.819	4.59
331.032	35.08
331.246	46.83
331.459	62.86
331.672	66.7
331.885	80.12
332.098	59.74
332.311	58.93
332.525	50.44
332.738	34.05
332.951	37.8
333.164	41.98
333.377	47.05
333.59	28.6
333.803	33.9
334.016	19.96
334.229	9.65
334.442	7.92
334.655	1.07
334.868	-2.57
335.081	14.74
335.294	30.16
335.507	28.94
335.72	39.78
335.933	38.18
336.146	49.25
336.359	32.06
336.572	22.21
336.785	20.83
336.997	20.06
337.21	-9.89
337.423	11.46
337.636	14.53
337.849	10.81
338.062	18.71
338.274	44.85
338.487	42.7
338.7	44.31
338.913	49.78
339.125	50.52
339.338	31.09
339.551	10.45
339.763	8.19
339.976	5.88
340.189	-9.36
340.402	3.61
340.614	9.88
340.827	21.87
341.039	20.32
341.252	33.68
341.465	21.27
341.677	8.37
341.89	-27.21
342.102	-20.74
342.315	-10.57
342.527	15.08
342.74	29.54
342.952	46.42
343.165	48.29
343.377	50.77
343.59	36.49
343.802	36.76
344.015	37.94
344.227	34.34
344.44	19.42
344.652	17.02
344.864	18.77
345.077	-4.82
345.289	1.41
345.502	3.67
345.714	4.46
345.926	-26.62
346.139	3
346.351	2.51
346.563	9.24
346.775	5.49
346.988	15.68
347.2	7.71
347.412	13.2
347.624	12.14
347.837	22.39
348.049	7.25
348.261	12.76
348.473	-17.55
348.685	-2.05
348.897	7.55
349.11	20.69
349.322	18.19
349.534	25.51
349.746	19.08
349.958	18.65
350.17	13.64
350.382	12.64
350.594	14.23
350.806	23.4
351.018	26.44
351.23	30.36
351.442	34.69
351.654	34.65
351.866	33.8
352.078	21.44
352.29	25.93
352.502	15.12
352.714	15.78
352.926	25.24
353.138	25.32
353.35	11.67
353.561	18.37
353.773	23.52
353.985	-0.16
354.197	4.54
354.409	29.89
354.621	35.98
354.832	26.83
355.044	37.47
355.256	43.13
355.468	27.72
355.679	18.86
355.891	17.82
356.103	22.17
356.314	15.94
356.526	21.35
356.738	18.69
356.949	24.68
357.161	27.02
357.373	28.54
357.584	28.09
357.796	33.66
358.008	32.65
358.219	28.53
358.431	25.7
358.642	27.06
358.854	21.4
359.065	11.37
359.277	4.84
359.488	9.13
359.7	-5.76
359.911	16.45
360.123	24.58
360.334	24.33
360.546	40.95
360.757	52.73
360.969	47.21
361.18	43.22
361.391	48.92
361.603	36.79
361.814	21.84
362.025	19.21
362.237	22.8
362.448	10.76
362.659	8.82
362.871	21.66
363.082	20.42
363.293	14.55
363.504	11.91
363.716	7.05
363.927	9.4
364.138	14.35
364.349	17.2
364.56	16.98
364.772	16.92
364.983	22.31
365.194	19.34
365.405	6.88
365.616	17.79
365.827	23.66
366.038	12.95
366.25	10.66
366.461	22.18
366.672	21.24
366.883	2.93
367.094	14.98
367.305	12.88
367.516	-1.95
367.727	-9.17
367.938	6.82
368.149	-6.13
368.36	-5.65
368.571	13.8
368.781	17.58
368.992	15.78
369.203	31.16
369.414	26.56
369.625	19.52
369.836	29.11
370.047	28.98
370.258	14.32
370.468	18.31
370.679	7.48
370.89	-5.04
371.101	3.04
371.312	5.86
371.522	-3.76
371.733	11.15
371.944	18.07
372.155	20.86
372.365	25.5
372.576	47.65
372.787	44.7
372.997	43.21
373.208	43.38
373.419	48.08
373.629	21.34
373.84	17.77
374.05	25.92
374.261	29.13
374.472	17.01
374.682	31.25
374.893	31.19
375.103	15.96
375.314	21.09
375.524	34.88
375.735	29.02
375.945	26.93
376.156	34.81
376.366	27.16
376.577	-0.7
376.787	-4.2
376.997	3.41
377.208	6.79
377.418	-1.98
377.629	-4.23
377.839	9.29
378.049	19.14
378.26	13.98
378.47	13.11
378.68	23.99
378.89	14.34
379.101	9.37
379.311	21.4
379.521	34.94
379.732	26.31
379.942	26.38
380.152	14.41
380.362	13.36
380.572	8.51
380.783	8.26
380.993	9.51
381.203	14.77
381.413	1.48
381.623	9.84
381.833	22.21
382.043	21.09
382.253	22.01
382.463	29.49
382.674	25.27
382.884	20.58
383.094	20.66
383.304	15.62
383.514	21.63
383.724	22.39
383.934	19.06
384.144	20.71
384.353	22.01
384.563	7.03
384.773	3.56
384.983	9.48
385.193	9.78
385.403	8.86
385.613	17.71
385.823	14.41
386.033	9.16
386.242	3.74
386.452	0.69
386.662	-0.82
386.872	1.91
387.082	-1.44
387.291	5.28
387.501	11.61
387.711	12.66
387.921	16.62
388.13	18.4
388.34	10.64
388.55	5.27
388.759	1.96
388.969	-4.38
389.179	0.93
389.388	4.67
389.598	9.04
389.807	10.83
390.017	13.91
390.227	5.87
390.436	8.41
390.646	7.47
390.855	11.34
391.065	8.9
391.274	9.96
391.484	9.38
391.693	9.46
391.903	4.65
392.112	5.35
392.322	7.6
392.531	6.04
392.74	6.03
392.95	6.98
393.159	5.6
393.369	5.93
393.578	4.86
393.787	5.15
393.997	6.43
394.206	6.56
394.415	5.82
394.625	8.17
394.834	7.56
395.043	6.03
395.252	6.75
395.462	5.67
395.671	3.49
395.88	3.16
396.089	3.07
396.298	3.28
396.508	2.87
396.717	3.4
396.926	3.72
397.135	3.76
397.344	3.3
397.553	3.68
397.762	4.17
397.971	3.94
398.181	4.34
398.39	4.13
398.599	4.77
398.808	3.99
399.017	4.76
399.226	5.79
399.435	6.16
399.644	6.47
399.853	6.81
400.062	6.07
400.27	5.35
400.479	5.63
400.688	5.12
400.897	5.04
401.106	5.18
401.315	4.9
401.524	4.49
401.733	4.48
401.941	4.01
402.15	3.77
402.359	3.71
402.568	3.55
402.777	3.44
402.985	3.59
403.194	3.81
403.403	3.94
403.612	4.12
403.82	4.04
404.029	4.22
404.238	3.99
404.446	3.89
404.655	3.83
404.864	4.13
405.072	4.01
405.281	4.35
405.489	4.39
405.698	4.31
405.906	4.09
406.115	4.23
406.324	3.98
406.532	3.88
406.741	3.94
406.949	4.03
407.158	4.03
407.366	3.87
407.574	3.67
407.783	3.57
407.991	3.46
408.2	3.51
408.408	3.67
408.617	3.78
408.825	3.93
409.033	4.09
409.242	3.97
409.45	3.84
409.658	3.86
409.867	3.73
410.075	3.63
410.283	3.5
410.491	3.54
410.7	3.67
410.908	3.55
411.116	3.62
411.324	3.79
411.533	3.73
411.741	3.5
411.949	3.71
412.157	3.56
412.365	3.61
412.573	3.69
412.781	3.81
412.99	3.65
413.198	3.79
413.406	3.61
413.614	3.68
413.822	3.6
414.03	3.59
414.238	3.54
414.446	3.59
414.654	3.61
414.862	3.6
415.07	3.69
415.278	3.64
415.486	3.75
415.694	3.6
415.902	3.54
416.109	3.43
416.317	3.48
416.525	3.38
416.733	3.35
416.941	3.49
417.149	3.52
417.357	3.52
417.564	3.45
417.772	3.6
417.98	3.56
418.188	3.64
418.395	3.61
418.603	3.68
418.811	3.52
419.019	3.42
419.226	3.44
419.434	3.38
419.642	3.19
419.849	3.22
420.057	3.18
420.265	3.14
420.472	3.16
420.68	3.19
420.887	3.22
421.095	3.3
421.302	3.09
421.51	2.9
421.717	2.9
421.925	3.1
422.132	3.1
422.34	3.25
422.547	3.36
422.755	3.52
422.962	3.25
423.17	3.18
423.377	3.17
423.585	3.1
423.792	2.9
423.999	2.91
424.207	2.97
424.414	3.03
424.621	3.09
424.829	3.11
425.036	3.26
425.243	3.25
425.451	3.16
425.658	3.08
425.865	3.22
426.072	3.06
426.28	3.09
426.487	3.15
426.694	3.28
426.901	3.14
427.108	3.19
427.315	3.1
427.523	3.03
427.73	2.94
427.937	2.97
428.144	2.9
428.351	2.83
428.558	2.93
428.765	2.87
428.972	2.93
429.179	2.93
429.386	3.13
429.593	3.02
429.8	3.13
430.007	3.17
430.214	3.2
430.421	3.09
430.628	3.04
430.835	2.94
431.042	2.71
431.249	2.8
431.456	2.78
431.662	2.88
431.869	2.96
432.076	3.19
432.283	3.03
432.49	2.95
432.697	2.8
432.903	2.72
433.11	2.49
433.317	2.58
433.524	2.68
433.73	2.67
433.937	2.61
434.144	2.75
434.35	2.69
434.557	2.65
434.764	2.63
434.97	2.63
435.177	2.64
435.384	2.67
435.59	2.75
435.797	2.89
436.003	3.05
436.21	3.14
436.416	3
436.623	2.95
436.829	2.89
437.036	2.81
437.242	2.71
437.449	2.85
437.655	2.8
437.862	2.75
438.068	2.79
438.275	2.73
438.481	2.76
438.687	2.76
438.894	2.79
439.1	2.72
439.307	2.89
439.513	2.93
439.719	2.94
439.926	2.95
440.132	2.91
440.338	2.75
440.544	2.57
440.751	2.48
440.957	2.41
441.163	2.41
441.369	2.49
441.575	2.67
441.782	2.69
441.988	2.75
442.194	2.76
442.4	2.65
442.606	2.59
442.812	2.59
443.018	2.56
443.224	2.56
443.431	2.58
443.637	2.47
443.843	2.56
444.049	2.51
444.255	2.57
444.461	2.6
444.667	2.67
444.873	2.65
445.079	2.69
445.284	2.56
445.49	2.52
445.696	2.45
445.902	2.43
446.108	2.5
446.314	2.57
446.52	2.68
446.726	2.74
446.931	2.82
447.137	2.81
447.343	2.82
447.549	2.82
447.755	2.76
447.96	2.75
448.166	2.68
448.372	2.71
448.578	2.69
448.783	2.72
448.989	2.68
449.195	2.69
449.4	2.73
449.606	2.65
449.812	2.69
450.017	2.63
450.223	2.62
450.428	2.57
450.634	2.54
450.84	2.55
451.045	2.63
451.251	2.65
451.456	2.62
451.662	2.71
451.867	2.78
452.073	2.81
452.278	2.74
452.483	2.69
452.689	2.55
452.894	2.59
453.1	2.52
453.305	2.56
453.51	2.61
453.716	2.75
453.921	2.63
454.127	2.69
454.332	2.7
454.537	2.73
454.742	2.7
454.948	2.7
455.153	2.67
455.358	2.6
455.563	2.61
455.769	2.49
455.974	2.5
456.179	2.42
456.384	2.47
456.589	2.41
456.795	2.52
457	2.55
457.205	2.67
457.41	2.67
457.615	2.73
457.82	2.69
458.025	2.62
458.23	2.59
458.435	2.54
458.64	2.47
458.845	2.51
459.05	2.46
459.255	2.42
459.46	2.58
459.665	2.67
459.87	2.67
460.075	2.69
460.28	2.77
460.485	2.64
460.69	2.57
460.895	2.55
461.099	2.58
461.304	2.5
461.509	2.49
461.714	2.48
461.919	2.56
462.123	2.58
462.328	2.62
462.533	2.73
462.738	2.77
462.942	2.69
463.147	2.68
463.352	2.76
463.556	2.66
463.761	2.69
463.966	2.72
464.17	2.64
464.375	2.69
464.58	2.77
464.784	2.69
464.989	2.65
465.193	2.72
465.398	2.58
465.602	2.59
465.807	2.65
466.011	2.69
466.216	2.65
466.42	2.67
466.625	2.72
466.829	2.7
467.034	2.73
467.238	2.83
467.443	2.8
467.647	2.71
467.851	2.65
468.056	2.62
468.26	2.65
468.464	2.64
468.669	2.6
468.873	2.66
469.077	2.63
469.282	2.52
469.486	2.51
469.69	2.55
469.894	2.6
470.099	2.7
470.303	2.78
470.507	2.89
470.711	2.88
470.915	2.92
471.119	2.93
471.324	2.93
471.528	2.88
471.732	2.91
471.936	2.78
472.14	2.76
472.344	2.8
472.548	2.86
472.752	2.89
472.956	3.04
473.16	3.11
473.364	3.03
473.568	2.97
473.772	2.99
473.976	2.98
474.18	2.9
474.384	2.95
474.588	2.97
474.792	2.99
474.995	2.99
475.199	3.05
475.403	3.12
475.607	3.13
475.811	3.11
476.015	3.14
476.218	3.15
476.422	3.04
476.626	3.05
476.83	3.04
477.033	3.04
477.237	3.02
477.441	3.05
477.644	2.99
477.848	3.04
478.052	3.01
478.255	2.97
478.459	3
478.663	3.12
478.866	3.12
479.07	3.15
479.273	3.22
479.477	3.28
479.681	3.28
479.884	3.19
480.088	3.15
480.291	3.2
480.495	3.14
480.698	3.13
480.901	3.21
481.105	3.29
481.308	3.26
481.512	3.27
481.715	3.27
481.919	3.35
482.122	3.27
482.325	3.26
482.529	3.29
482.732	3.3
482.935	3.27
483.138	3.26
483.342	3.22
483.545	3.24
483.748	3.17
483.952	3.14
484.155	3.18
484.358	3.25
484.561	3.19
484.764	3.27
484.967	3.34
485.171	3.33
485.374	3.39
485.577	3.41
485.78	3.38
485.983	3.34
486.186	3.36
486.389	3.29
486.592	3.26
486.795	3.27
486.998	3.19
487.201	3.2
487.404	3.22
487.607	3.3
487.81	3.31
488.013	3.41
488.216	3.39
488.419	3.36
488.622	3.34
488.825	3.37
489.028	3.32
489.231	3.32
489.433	3.29
489.636	3.26
489.839	3.22
490.042	3.29
490.245	3.25
490.447	3.24
490.65	3.22
490.853	3.25
491.056	3.2
491.258	3.27
491.461	3.3
491.664	3.29
491.866	3.19
492.069	3.17
492.272	3.11
492.474	3.15
492.677	3.17
492.879	3.21
493.082	3.25
493.285	3.28
493.487	3.27
493.69	3.3
493.892	3.29
494.095	3.35
494.297	3.31
494.5	3.33
494.702	3.34
494.905	3.38
495.107	3.29
495.309	3.4
495.512	3.41
495.714	3.38
495.917	3.39
496.119	3.47
496.321	3.41
496.524	3.45
496.726	3.48
496.928	3.49
497.13	3.47
497.333	3.49
497.535	3.53
497.737	3.58
497.939	3.59
498.142	3.62
498.344	3.63
498.546	3.61
498.748	3.58
498.95	3.57
499.152	3.58
499.355	3.57
499.557	3.59
499.759	3.64
499.961	3.65
500.163	3.69
500.365	3.67
500.567	3.59
500.769	3.62
500.971	3.67
501.173	3.63
501.375	3.66
501.577	3.73
501.779	3.7
501.981	3.66
502.183	3.72
502.385	3.78
502.587	3.81
502.788	3.82
502.99	3.86
503.192	3.88
503.394	3.88
503.596	3.88
503.798	3.92
503.999	3.96
504.201	3.99
504.403	3.96
504.605	3.95
504.806	3.99
505.008	3.92
505.21	3.87
505.411	3.93
505.613	3.95
505.815	3.91
506.016	3.96
506.218	3.94
506.42	3.98
506.621	3.98
506.823	4.02
507.024	4
507.226	4.11
507.427	4.07
507.629	4.08
507.83	4.12
508.032	4.18
508.233	4.19
508.435	4.24
508.636	4.26
508.838	4.26
509.039	4.27
509.24	4.25
509.442	4.23
509.643	4.26
509.845	4.23
510.046	4.28
510.247	4.3
510.448	4.29
510.65	4.27
510.851	4.28
511.052	4.24
511.254	4.28
511.455	4.33
511.656	4.35
511.857	4.41
512.058	4.4
512.26	4.42
512.461	4.44
512.662	4.48
512.863	4.51
513.064	4.53
513.265	4.53
513.466	4.51
513.667	4.58
513.868	4.55
514.069	4.59
514.27	4.54
514.471	4.51
514.672	4.44
514.873	4.42
515.074	4.41
515.275	4.49
515.476	4.54
515.677	4.54
515.878	4.63
516.079	4.66
516.28	4.68
516.481	4.72
516.682	4.8
516.882	4.8
517.083	4.79
517.284	4.81
517.485	4.79
517.686	4.75
517.886	4.77
518.087	4.73
518.288	4.77
518.488	4.82
518.689	4.83
518.89	4.76
519.091	4.85
519.291	4.84
519.492	4.8
519.692	4.84
519.893	4.91
520.094	4.89
520.294	4.88
520.495	4.91
520.695	4.89
520.896	4.89
521.096	4.95
521.297	4.93
521.497	4.96
521.698	4.93
521.898	4.99
522.099	4.94
522.299	5.01
522.499	4.95
522.7	5.02
522.9	4.96
523.101	5.01
523.301	5.01
523.501	5.08
523.702	5.1
523.902	5.16
524.102	5.17
524.302	5.15
524.503	5.16
524.703	5.21
524.903	5.21
525.103	5.2
525.304	5.2
525.504	5.22
525.704	5.2
525.904	5.19
526.104	5.19
526.304	5.26
526.504	5.27
526.705	5.27
526.905	5.36
527.105	5.42
527.305	5.4
527.505	5.38
527.705	5.37
527.905	5.33
528.105	5.31
528.305	5.34
528.505	5.39
528.705	5.49
528.905	5.52
529.105	5.55
529.304	5.61
529.504	5.58
529.704	5.53
529.904	5.56
530.104	5.59
530.304	5.54
530.503	5.57
530.703	5.59
530.903	5.59
531.103	5.58
531.303	5.64
531.502	5.69
531.702	5.69
531.902	5.75
532.101	5.79
532.301	5.8
532.501	5.81
532.7	5.9
532.9	5.86
533.1	5.89
533.299	5.93
533.499	5.94
533.698	5.89
533.898	5.91
534.097	5.93
534.297	5.9
534.496	5.91
534.696	5.95
534.895	5.93
535.095	5.94
535.294	5.94
535.494	5.99
535.693	6.04
535.892	6.1
536.092	6.1
536.291	6.15
536.491	6.17
536.69	6.12
536.889	6.1
537.088	6.14
537.288	6.16
537.487	6.23
537.686	6.26
537.886	6.36
538.085	6.35
538.284	6.4
538.483	6.37
538.682	6.41
538.882	6.42
539.081	6.44
539.28	6.39
539.479	6.43
539.678	6.46
539.877	6.47
540.076	6.53
540.275	6.65
540.474	6.62
540.673	6.66
540.872	6.67
541.071	6.72
541.27	6.74
541.469	6.81
541.668	6.84
541.867	6.93
542.066	6.91
542.265	6.96
542.464	6.96
542.663	6.99
542.862	6.97
543.06	7.03
543.259	7.04
543.458	7.15
543.657	7.23
543.856	7.34
544.054	7.34
544.253	7.38
544.452	7.42
544.651	7.42
544.849	7.44
545.048	7.55
545.247	7.55
545.445	7.54
545.644	7.56
545.843	7.6
546.041	7.57
546.24	7.65
546.438	7.76
546.637	7.84
546.836	7.92
547.034	8.02
547.233	8.05
547.431	8.09
547.63	8.11
547.828	8.19
548.027	8.19
548.225	8.28
548.423	8.34
548.622	8.41
548.82	8.34
549.019	8.45
549.217	8.49
549.415	8.48
549.614	8.53
549.812	8.62
550.01	8.66
550.209	8.72
550.407	8.82
550.605	8.87
550.803	8.93
551.002	8.98
551.2	9.05
551.398	9.13
551.596	9.19
551.794	9.26
551.993	9.31
552.191	9.37
552.389	9.47
552.587	9.56
552.785	9.61
552.983	9.66
553.181	9.72
553.379	9.7
553.577	9.86
553.775	9.97
553.973	10.08
554.171	10.15
554.369	10.3
554.567	10.28
554.765	10.28
554.963	10.39
555.161	10.48
555.359	10.5
555.557	10.59
555.755	10.76
555.952	10.79
556.15	10.87
556.348	10.97
556.546	11.06
556.744	11.18
556.941	11.29
557.139	11.37
557.337	11.48
557.535	11.61
557.732	11.6
557.93	11.7
558.128	11.74
558.325	11.76
558.523	11.78
558.721	11.86
558.918	11.94
559.116	12.13
559.313	12.24
559.511	12.37
559.708	12.54
559.906	12.59
560.104	12.59
560.301	12.69
560.498	12.76
560.696	12.76
560.893	12.89
561.091	13.04
561.288	13.13
561.486	13.23
561.683	13.35
561.88	13.41
562.078	13.49
562.275	13.59
562.473	13.66
562.67	13.74
562.867	13.83
563.064	13.91
563.262	13.98
563.459	14.15
563.656	14.26
563.853	14.33
564.051	14.41
564.248	14.5
564.445	14.54
564.642	14.55
564.839	14.69
565.036	14.89
565.234	14.92
565.431	14.98
565.628	15.16
565.825	15.25
566.022	15.22
566.219	15.36
566.416	15.42
566.613	15.45
566.81	15.53
567.007	15.6
567.204	15.63
567.401	15.67
567.598	15.78
567.795	15.82
567.991	15.88
568.188	16.02
568.385	16.1
568.582	16.2
568.779	16.29
568.976	16.36
569.172	16.4
569.369	16.48
569.566	16.53
569.763	16.62
569.96	16.64
570.156	16.67
570.353	16.71
570.55	16.72
570.746	16.71
570.943	16.79
571.14	16.85
571.336	16.88
571.533	16.94
571.729	17.04
571.926	17.09
572.123	17.08
572.319	17.1
572.516	17.08
572.712	17.11
572.909	17.09
573.105	17.16
573.302	17.22
573.498	17.25
573.695	17.19
573.891	17.23
574.087	17.17
574.284	17.22
574.48	17.24
574.677	17.34
574.873	17.37
575.069	17.42
575.266	17.36
575.462	17.4
575.658	17.3
575.854	17.3
576.051	17.35
576.247	17.36
576.443	17.36
576.639	17.42
576.835	17.39
577.032	17.33
577.228	17.38
577.424	17.36
577.62	17.36
577.816	17.37
578.012	17.46
578.208	17.45
578.404	17.46
578.6	17.37
578.796	17.41
578.993	17.31
579.189	17.22
579.384	17.16
579.58	17.17
579.776	17.18
579.972	17.19
580.168	17.22
580.364	17.26
580.56	17.24
580.756	17.19
580.952	17.19
581.148	17.25
581.343	17.22
581.539	17.29
581.735	17.3
581.931	17.27
582.127	17.15
582.322	17.11
582.518	17.09
582.714	17.06
582.909	17.02
583.105	17.12
583.301	17.13
583.496	17.03
583.692	16.93
583.888	16.83
584.083	16.74
584.279	16.66
584.474	16.65
584.67	16.67
584.866	16.75
585.061	16.71
585.257	16.73
585.452	16.74
585.648	16.73
585.843	16.67
586.039	16.66
586.234	16.59
586.429	16.51
586.625	16.53
586.82	16.57
587.015	16.56
587.211	16.59
587.406	16.67
587.601	16.66
587.797	16.66
587.992	16.64
588.187	16.63
588.383	16.58
588.578	16.52
588.773	16.48
588.968	16.53
589.163	16.55
589.359	16.47
589.554	16.52
589.749	16.52
589.944	16.47
590.139	16.55
590.334	16.64
590.529	16.64
590.724	16.67
590.919	16.73
591.114	16.71
591.309	16.73
591.504	16.78
591.699	16.8
591.894	16.83
592.089	16.83
592.284	16.78
592.479	16.78
592.674	16.74
592.869	16.76
593.064	16.81
593.259	16.93
593.454	16.89
593.648	16.88
593.843	16.9
594.038	16.96
594.233	16.96
594.428	17.14
594.622	17.39
594.817	17.46
595.012	17.41
595.206	17.42
595.401	17.4
595.596	17.31
595.79	17.41
595.985	17.5
596.18	17.63
596.374	17.72
596.569	17.82
596.763	17.81
596.958	17.97
597.153	17.92
597.347	17.98
597.542	18.05
597.736	18.14
597.931	18.14
598.125	18.3
598.319	18.41
598.514	18.45
598.708	18.36
598.903	18.37
599.097	18.32
599.291	18.28
599.486	18.24
599.68	18.42
599.874	18.45
600.069	18.57
600.263	18.62
600.457	18.66
600.651	18.6
600.846	18.71
601.04	18.68
601.234	18.71
601.428	18.81
601.622	18.91
601.817	18.88
602.011	18.9
602.205	18.89
602.399	18.9
602.593	18.95
602.787	18.96
602.981	19.01
603.175	19.06
603.369	18.96
603.563	18.81
603.757	18.76
603.951	18.82
604.145	18.7
604.339	18.85
604.533	18.92
604.727	18.93
604.921	18.76
605.115	18.78
605.309	18.67
605.502	18.61
605.696	18.57
605.89	18.6
606.084	18.62
606.278	18.53
606.471	18.44
606.665	18.45
606.859	18.4
607.053	18.3
607.246	18.27
607.44	18.22
607.634	18.17
607.827	18.18
608.021	18.07
608.214	18.06
608.408	18.02
608.602	17.93
608.795	17.81
608.989	17.8
609.182	17.67
609.376	17.72
609.569	17.62
609.763	17.53
609.956	17.42
610.15	17.46
610.343	17.33
610.537	17.25
610.73	17.23
610.923	17.25
611.117	17.15
611.31	17.13
611.504	17.08
611.697	16.93
611.89	16.84
612.083	16.71
612.277	16.56
612.47	16.5
612.663	16.49
612.856	16.35
613.05	16.3
613.243	16.21
613.436	16.12
613.629	16.05
613.822	16
614.015	15.94
614.209	15.92
614.402	15.87
614.595	15.74
614.788	15.66
614.981	15.58
615.174	15.49
615.367	15.4
615.56	15.37
615.753	15.36
615.946	15.27
616.139	15.18
616.332	15.06
616.525	15
616.718	14.91
616.911	14.89
617.103	14.85
617.296	14.92
617.489	14.85
617.682	14.89
617.875	14.87
618.067	14.87
618.26	14.81
618.453	14.74
618.646	14.65
618.838	14.49
619.031	14.45
619.224	14.4
619.417	14.41
619.609	14.41
619.802	14.46
619.994	14.4
620.187	14.33
620.38	14.33
620.572	14.29
620.765	14.24
620.957	14.21
621.15	14.21
621.342	14.15
621.535	14.05
621.727	13.97
621.92	13.99
622.112	13.95
622.305	13.97
622.497	13.95
622.69	13.96
622.882	13.87
623.074	13.82
623.267	13.76
623.459	13.81
623.651	13.83
623.844	13.88
624.036	13.92
624.228	13.83
624.42	13.72
624.613	13.71
624.805	13.71
624.997	13.67
625.189	13.73
625.381	13.69
625.574	13.62
625.766	13.51
625.958	13.44
626.15	13.41
626.342	13.41
626.534	13.39
626.726	13.38
626.918	13.32
627.11	13.21
627.302	13.18
627.494	13.11
627.686	13.06
627.878	13.1
628.07	13.12
628.262	13.03
628.454	13.04
628.646	13.02
628.838	13.01
629.029	12.89
629.221	12.94
629.413	12.91
629.605	12.96
629.797	12.86
629.989	12.84
630.18	12.8
630.372	12.74
630.564	12.61
630.755	12.64
630.947	12.65
631.139	12.63
631.33	12.6
631.522	12.68
631.714	12.58
631.905	12.59
632.097	12.59
632.289	12.6
632.48	12.5
632.672	12.43
632.863	12.38
633.055	12.33
633.246	12.24
633.438	12.25
633.629	12.29
633.821	12.3
634.012	12.2
634.203	12.21
634.395	12.15
634.586	12.1
634.777	12.02
634.969	12.04
635.16	12.02
635.351	11.99
635.543	12.03
635.734	12.04
635.925	12.03
636.117	11.99
636.308	12.02
636.499	11.97
636.69	11.9
636.881	11.9
637.073	11.91
637.264	11.86
637.455	11.89
637.646	11.97
637.837	11.93
638.028	11.81
638.219	11.78
638.41	11.7
638.601	11.64
638.792	11.65
638.983	11.74
639.174	11.73
639.365	11.69
639.556	11.61
639.747	11.58
639.938	11.56
640.129	11.51
640.32	11.53
640.511	11.56
640.701	11.55
640.892	11.45
641.083	11.38
641.274	11.32
641.465	11.2
641.655	11.15
641.846	11.17
642.037	11.15
642.228	11.18
642.418	11.16
642.609	11.13
642.8	11.09
642.99	11.12
643.181	11.04
643.372	11.09
643.562	11.04
643.753	11.04
643.943	10.98
644.134	10.99
644.324	10.89
644.515	10.87
644.705	10.8
644.896	10.76
645.086	10.74
645.277	10.74
645.467	10.74
645.658	10.73
645.848	10.71
646.038	10.67
646.229	10.76
646.419	10.71
646.61	10.7
646.8	10.67
646.99	10.64
647.18	10.53
647.371	10.5
647.561	10.5
647.751	10.49
647.941	10.47
648.132	10.4
648.322	10.41
648.512	10.31
648.702	10.29
648.892	10.23
649.082	10.27
649.272	10.3
649.462	10.37
649.653	10.43
649.843	10.52
650.033	10.52
650.223	10.43
650.413	10.39
650.603	10.37
650.793	10.33
650.983	10.27
651.172	10.23
651.362	10.24
651.552	10.11
651.742	10.05
651.932	10.03
652.122	10.01
652.312	9.95
652.502	9.95
652.691	9.88
652.881	9.85
653.071	9.78
653.261	9.71
653.45	9.67
653.64	9.61
653.83	9.56
654.019	9.52
654.209	9.39
654.399	9.23
654.588	9.16
654.778	9.03
654.968	8.95
655.157	8.82
655.347	8.86
655.536	8.76
655.726	8.64
655.915	8.63
656.105	8.6
656.294	8.46
656.484	8.36
656.673	8.33
656.863	8.23
657.052	8.16
657.241	8.04
657.431	7.96
657.62	7.91
657.809	7.69
657.999	7.58
658.188	7.56
658.377	7.51
658.567	7.36
658.756	7.23
658.945	7.21
659.134	7.07
659.324	6.95
659.513	6.81
659.702	6.7
659.891	6.61
660.08	6.5
660.269	6.36
660.458	6.33
660.648	6.34
660.837	6.19
661.026	6.12
661.215	6.12
661.404	5.99
661.593	5.81
661.782	5.76
661.971	5.65
662.16	5.54
662.349	5.38
662.538	5.36
662.726	5.21
662.915	5.16
663.104	5.02
663.293	5.06
663.482	5
663.671	5.03
663.86	4.87
664.048	4.92
664.237	4.76
664.426	4.7
664.615	4.66
664.803	4.61
664.992	4.51
665.181	4.56
665.369	4.48
665.558	4.39
665.747	4.43
665.935	4.41
666.124	4.42
666.312	4.5
666.501	4.49
666.69	4.53
666.878	4.47
667.067	4.37
667.255	4.36
667.444	4.29
667.632	4.25
667.82	4.27
668.009	4.24
668.197	4.15
668.386	4.24
668.574	4.27
668.762	4.31
668.951	4.4
669.139	4.47
669.327	4.48
669.516	4.47
669.704	4.5
669.892	4.43
670.08	4.38
670.269	4.32
670.457	4.21
670.645	4.19
670.833	4.19
671.021	4.26
671.21	4.34
671.398	4.35
671.586	4.4
671.774	4.44
671.962	4.45
672.15	4.47
672.338	4.61
672.526	4.64
672.714	4.69
672.902	4.66
673.09	4.66
673.278	4.74
673.466	4.75
673.654	4.93
673.842	5.07
674.03	5.2
674.218	5.18
674.405	5.23
674.593	5.11
674.781	5.14
674.969	5.09
675.157	5.13
675.344	5.2
675.532	5.36
675.72	5.51
675.908	5.62
676.095	5.72
676.283	5.78
676.471	5.8
676.658	5.74
676.846	5.74
677.033	5.79
677.221	5.71
677.409	5.69
677.596	5.69
677.784	5.76
677.971	5.88
678.159	6.02
678.346	6.17
678.534	6.32
678.721	6.37
678.909	6.39
679.096	6.48
679.283	6.53
679.471	6.61
679.658	6.66
679.846	6.63
680.033	6.58
680.22	6.71
680.408	6.72
680.595	6.79
680.782	6.91
680.969	7.09
681.157	7.09
681.344	7.17
681.531	7.26
681.718	7.35
681.905	7.45
682.093	7.59
682.28	7.7
682.467	7.81
682.654	7.92
682.841	7.94
683.028	7.9
683.215	8.03
683.402	8.12
683.589	8.24
683.776	8.41
683.963	8.65
684.15	8.89
684.337	9.05
684.524	9.2
684.711	9.44
684.898	9.58
685.085	9.61
685.271	9.83
685.458	9.85
685.645	9.96
685.832	10.17
686.019	10.27
686.205	10.33
686.392	10.66
686.579	10.92
686.766	11.05
686.952	11.4
687.139	11.89
687.326	12.32
687.512	12.54
687.699	12.96
687.886	13.24
688.072	13.49
688.259	13.72
688.445	13.94
688.632	14.17
688.818	14.53
689.005	14.73
689.191	14.92
689.378	15.4
689.564	15.9
689.751	16.26
689.937	16.79
690.124	17.48
690.31	17.95
690.496	18.24
690.683	18.71
690.869	19.11
691.055	19.52
691.242	19.96
691.428	20.49
691.614	21.08
691.8	21.6
691.987	22.16
692.173	22.72
692.359	23.47
692.545	23.91
692.731	24.53
692.918	25.05
693.104	25.77
693.29	26.19
693.476	26.9
693.662	27.53
693.848	28.1
694.034	28.39
694.22	29.2
694.406	29.77
694.592	30.5
694.778	31.39
694.964	32.28
695.15	32.74
695.336	33.44
695.522	34.01
695.708	34.61
695.894	35.11
696.08	35.82
696.265	36.46
696.451	37.3
696.637	37.89
696.823	38.69
697.009	39.57
697.194	40.42
697.38	40.82
697.566	41.5
697.751	42.05
697.937	42.61
698.123	43.12
698.308	44.05
698.494	44.74
698.68	45.73
698.865	46.15
699.051	46.97
699.236	47.3
699.422	47.92
699.607	48.2
699.793	49.08
699.978	49.39
700.164	50.16
700.349	50.5
700.535	51
700.72	51.57
700.906	52.13
701.091	52.66
701.276	53.17
701.462	53.79
701.647	54.36
701.832	54.9
702.018	55.43
702.203	56.12
702.388	56.85
702.573	57.23
702.759	57.91
702.944	58.8
703.129	59.17
703.314	59.79
703.499	60.47
703.684	60.93
703.87	61.29
704.055	61.86
704.24	61.93
704.425	62.19
704.61	62.49
704.795	62.27
704.98	62.87
705.165	63.55
705.35	64.12
705.535	64.45
705.72	65.34
705.905	65.62
706.09	66.09
706.275	66.64
706.459	67.2
706.644	67.34
706.829	67.87
707.014	68.11
707.199	68.11
707.384	68.58
707.568	69.23
707.753	69.64
707.938	69.73
708.123	70
708.307	70.24
708.492	70.55
708.677	70.34
708.861	70.67
709.046	70.97
709.231	71.44
709.415	71.43
709.6	72.06
709.784	72.73
709.969	72.95
710.153	73.04
710.338	73.55
710.522	73.63
710.707	73.69
710.891	73.84
711.076	74.07
711.26	74.17
711.445	74.6
711.629	74.81
711.813	75.19
711.998	75.36
712.182	75.23
712.366	75.05
712.551	75.33
712.735	75.56
712.919	75.62
713.103	76.23
713.288	76.5
713.472	76.29
713.656	76.63
713.84	76.81
714.024	77.02
714.208	77.09
714.393	77.57
714.577	77.69
714.761	77.88
714.945	78.14
715.129	78.38
715.313	78.96
715.497	79.15
715.681	79.27
715.865	79.44
716.049	80.02
716.233	79.91
716.417	80.23
716.601	80.22
716.785	80.16
716.968	80.3
717.152	80.2
717.336	80.23
717.52	80.48
717.704	80.83
717.888	80.84
718.071	81.08
718.255	81.23
718.439	81.5
718.622	81.24
718.806	81
718.99	81.02
719.174	81.08
719.357	81.46
719.541	81.75
719.724	81.89
719.908	82.44
720.092	82.34
720.275	82.43
720.459	82.81
720.642	83.18
720.826	82.59
721.009	82.8
721.193	82.89
721.376	82.8
721.559	82.8
721.743	83.52
721.926	83.61
722.11	83.44
722.293	83.63
722.476	83.69
722.66	83.84
722.843	83.96
723.026	83.97
723.21	83.89
723.393	84.21
723.576	84.16
723.759	84.23
723.942	84.51
724.126	84.39
724.309	84.76
724.492	84.75
724.675	85.52
724.858	85.58
725.041	85.32
725.224	85.75
725.407	85.9
725.59	85.08
725.774	84.97
725.957	85.51
726.14	85.21
726.322	85.28
726.505	85.55
726.688	86.05
726.871	86.24
727.054	85.97
727.237	85.78
727.42	86.25
727.603	86.41
727.786	86.46
727.968	86.67
728.151	87.27
728.334	87.27
728.517	87.65
728.699	87.15
728.882	87.22
729.065	87.03
729.248	87.26
729.43	86.82
729.613	87.77
729.796	87.99
729.978	87.58
730.161	87.61
730.343	88.29
730.526	87.79
730.708	87.56
730.891	88.05
731.073	88.05
731.256	87.69
731.438	88.74
731.621	89.25
731.803	89.63
731.986	90.05
732.168	89.98
732.35	89.07
732.533	88.45
732.715	88.42
732.898	88.63
733.08	88.8
733.262	89.36
733.444	90.23
733.627	90.39
733.809	90.03
733.991	90.1
734.173	90.2
734.355	89.76
734.538	89.59
734.72	90.37
734.902	90.36
735.084	90.9
735.266	91.04
735.448	91.37
735.63	91.24
735.812	91.73
735.994	92.07
736.176	93.01
736.358	93.03
736.54	92.47
736.722	92.2
736.904	91.54
737.086	91.1
737.268	91.55
737.45	91.27
737.632	91.47
737.814	91.49
737.995	92.01
738.177	91.68
738.359	92.63
738.541	91.77
738.723	93.49
738.904	92.55
739.086	92.58
739.268	92.44
739.449	93.95
739.631	92.5
739.813	93.2
739.994	93.76
740.176	93.68
740.358	92.87
740.539	93.06
740.721	93.2
740.902	92.32
741.084	92.59
741.265	92.38
741.447	92.83
741.628	92.96
741.81	94.39
741.991	94.22
742.172	94.08
742.354	93.22
742.535	93.13
742.717	92.73
742.898	93.11
743.079	94.31
743.261	94.96
743.442	95.3
743.623	94.86
743.804	95.2
743.986	94.46
744.167	94.38
744.348	94.35
744.529	94.34
744.71	93.88
744.891	94.56
745.073	94.88
745.254	94.27
745.435	94.26
745.616	93.15
745.797	92.94
745.978	93.09
746.159	92.21
746.34	91.88
746.521	92.65
746.702	92.87
746.883	91.96
747.064	93.61
747.245	94.37
747.426	93.99
747.606	93.57
747.787	93.54
747.968	93.15
748.149	92.35
748.33	92.97
748.51	92.78
748.691	94.13
748.872	94.87
749.053	95.56
749.233	94.57
749.414	95.07
749.595	93.31
749.775	92.29
749.956	92.06
750.137	92.56
750.317	92.89
750.498	93.96
750.678	94.61
750.859	94.61
751.04	96.28
751.22	95.97
751.4	95.93
751.581	95.3
751.761	94.89
751.942	93.31
752.122	92.92
752.303	93.1
752.483	92.24
752.663	92.49
752.844	93
753.024	93.76
753.204	93.03
753.385	94.91
753.565	95.51
753.745	96.07
753.925	95.35
754.106	94.99
754.286	92.28
754.466	91.56
754.646	89.93
754.826	89.46
755.006	89.56
755.187	91.92
755.367	91.79
755.547	92.24
755.727	92.15
755.907	93.01
756.087	92.76
756.267	92.86
756.447	92.77
756.627	92.87
756.807	92.06
756.987	91.6
757.167	92.7
757.346	92.79
757.526	93.71
757.706	94.48
757.886	93.92
758.066	92.37
758.246	92.96
758.425	92.71
758.605	92.95
758.785	93.3
758.965	93.9
759.144	93.5
759.324	92.14
759.504	91.14
759.683	91
759.863	90.91
760.043	90.45
760.222	91.31
760.402	92.05
760.581	92.28
760.761	91.67
760.94	91.72
761.12	91.73
761.299	91.85
761.479	91.95
761.658	91.86
761.838	91.89
762.017	92.33
762.197	92.5
762.376	92.24
762.555	91.77
762.735	92.02
762.914	91.98
763.093	91.08
763.273	90.31
763.452	91.04
763.631	91.18
763.81	91.28
763.99	91.32
764.169	92.58
764.348	93.77
764.527	92.11
764.706	92.53
764.885	93.93
765.064	93.39
765.243	92.23
765.423	93.9
765.602	91.87
765.781	89.54
765.96	89.32
766.139	89.98
766.318	90.34
766.497	90.44
766.676	93.09
766.854	93.81
767.033	93.5
767.212	92.33
767.391	93.74
767.57	92.3
767.749	91.41
767.928	90.64
768.106	91
768.285	90.27
768.464	88.83
768.643	87.89
768.821	89.26
769	88.91
769.179	89.7
769.357	89.95
769.536	90.45
769.715	90.32
769.893	91.42
770.072	91.08
770.25	92.48
770.429	91.84
770.607	91.46
770.786	90.3
770.964	88.62
771.143	88.2
771.321	88.83
771.5	88.41
771.678	89.51
771.857	91.68
772.035	90.21
772.213	91.44
772.392	91.64
772.57	91.12
772.748	89.66
772.927	90.32
773.105	89.96
773.283	89.73
773.461	89.67
773.64	91.05
773.818	92.02
773.996	90.92
774.174	90.79
774.352	88.68
774.531	87.01
774.709	85.6
774.887	86.22
775.065	85.49
775.243	86.31
775.421	88.55
775.599	89.03
775.777	89.09
775.955	90.06
776.133	91.43
776.311	90.14
776.489	89.76
776.667	90.56
776.844	90.28
777.022	89.6
777.2	88.68
777.378	89.74
777.556	86.99
777.734	89.29
777.911	89.77
778.089	89.89
778.267	89.39
778.445	91.6
778.622	88.33
778.8	88.21
778.978	90.57
779.155	89.03
779.333	87.4
779.511	88.14
779.688	86.61
779.866	84.36
780.043	84.15
780.221	85.32
780.398	85.06
780.576	85.07
780.753	85.12
780.931	86.11
781.108	84.73
781.286	85.09
781.463	85.25
781.64	86.36
781.818	85.37
781.995	86.06
782.172	85.08
782.35	87.04
782.527	86.56
782.704	86.49
782.882	87.85
783.059	88.38
783.236	86.58
783.413	85.53
783.59	86.38
783.768	88.14
783.945	89.79
784.122	92.32
784.299	90.39
784.476	89.4
784.653	85.62
784.83	85.04
785.007	82.32
785.184	83.29
785.361	85.26
785.538	84.94
785.715	84.49
785.892	85.24
786.069	86.05
786.246	86.84
786.423	88.86
786.6	87.3
786.776	86.83
786.953	87.65
787.13	84.37
787.307	83.14
787.484	82.43
787.66	84.01
787.837	83.46
788.014	86.63
788.191	87.43
788.367	87.96
788.544	85.62
788.721	86.48
788.897	86.8
789.074	87.62
789.25	85.68
789.427	87.14
789.603	87.84
789.78	84.96
789.956	83.58
790.133	85.05
790.309	83.87
790.486	84.22
790.662	84.75
790.839	85.38
791.015	85.82
791.192	87.25
791.368	85.01
791.544	85.47
791.721	84.17
791.897	86.06
792.073	85.43
792.249	85.22
792.426	81.52
792.602	84.06
792.778	80.11
792.954	79.66
793.13	79.94
793.307	83.84
793.483	80.68
793.659	81.94
793.835	80.87
794.011	79.41
794.187	79.49
794.363	81.59
794.539	87.32
794.715	88.52
794.891	88.79
795.067	89.24
795.243	90.06
795.419	88.3
795.595	89.7
795.771	89.52
795.947	87.39
796.122	85.61
796.298	83.61
796.474	79.89
796.65	81.12
796.826	83.95
797.001	82.24
797.177	83.01
797.353	86.94
797.529	85.84
797.704	83.02
797.88	85.7
798.056	86.16
798.231	84.92
798.407	88.8
798.582	88.72
798.758	85.27
798.934	85.86
799.109	88.02
799.285	84.85
799.46	84.15
799.636	86.84
799.811	85.09
799.986	84.55
800.162	83.56
800.337	87.84
800.513	89.84
800.688	86.58
800.863	83.98
801.039	81.7
801.214	77.5
801.389	73.36
801.565	77.17
801.74	77.48
801.915	78.13
802.09	80.97
802.265	85.01
802.441	85.86
802.616	85.53
802.791	91.2
802.966	92.76
803.141	86.67
803.316	81.18
803.491	78.26
803.666	72.55
803.841	70.72
804.016	72.34
804.191	69.55
804.366	75.32
804.541	82.21
804.716	83.13
804.891	84.79
805.066	91.16
805.241	85.77
805.416	81.43
805.591	80.59
805.765	80.08
805.94	76.53
806.115	79.16
806.29	79.15
806.464	79.91
806.639	75.71
806.814	76.85
806.989	72.87
807.163	72.89
807.338	68.57
807.512	77.74
807.687	80.27
807.862	86.29
808.036	90.45
808.211	98.15
808.385	97.6
808.56	96.36
808.734	82.73
808.909	80.92
809.083	77
809.258	71.93
809.432	72.17
809.606	86.21
809.781	81.74
809.955	84.36
810.13	79.64
810.304	81.66
810.478	77.92
810.652	79.88
810.827	76.31
811.001	85.57
811.175	83.01
811.349	88.53
811.524	87.77
811.698	91.46
811.872	88.06
812.046	89.24
812.22	81.49
812.394	86.04
812.568	81.96
812.742	84.44
812.916	77.71
813.09	80.28
813.264	77.83
813.438	83.61
813.612	80.12
813.786	85.04
813.96	87.96
814.134	87.84
814.308	91.22
814.482	89.25
814.656	82.95
814.83	71.35
815.003	68.16
815.177	68.24
815.351	66
815.525	71.96
815.698	77.49
815.872	80.9
816.046	73.1
816.219	72.99
816.393	74.73
816.567	78.98
816.74	73.73
816.914	80.94
817.088	85.94
817.261	83.07
817.435	80.53
817.608	77.06
817.782	70.93
817.955	67.67
818.129	61.09
818.302	66.3
818.475	73.98
818.649	75.81
818.822	85.89
818.996	102.7
819.169	95.77
819.342	86.65
819.516	86.65
819.689	85.03
819.862	80.02
820.035	83.23
820.209	80.44
820.382	76
820.555	74.74
820.728	79.35
820.901	72.38
821.075	81.97
821.248	82.93
821.421	83.21
821.594	76.74
821.767	82.72
821.94	84.6
822.113	84.3
822.286	81.29
822.459	85.93
822.632	89.36
822.805	78.41
822.978	89.13
823.151	95.34
823.324	93.42
823.496	83.01
823.669	86.35
823.842	89.29
824.015	83.21
824.188	89.95
824.361	103.73
824.533	103.55
824.706	94.27
824.879	83.02
825.051	91.1
825.224	85.17
825.397	88.85
825.569	84.68
825.742	96.83
825.915	79.2
826.087	87.71
826.26	82.28
826.432	85.95
826.605	71.96
826.777	77.98
826.95	74.76
827.122	73.75
827.295	76.44
827.467	83.52
827.64	77.87
827.812	76.02
827.984	76.07
828.157	71.87
828.329	66.84
828.501	62.39
828.674	50.46
828.846	45.53
829.018	49.47
829.19	56.76
829.363	57.21
829.535	59.62
829.707	84.51
829.879	65
830.051	56.62
830.223	69.7
830.395	101.13
830.568	66.42
830.74	81.12
830.912	80.82
831.084	75.26
831.256	68.54
831.428	73.4
831.6	73.22
831.772	77.94
831.943	78.13
832.115	70.94
832.287	84.2
832.459	88.33
832.631	85.05
832.803	94.69
832.975	101.27
833.146	92.83
833.318	77.6
833.49	78.79
833.662	79.89
833.833	96.2
834.005	109.02
834.177	115.92
834.348	98.24
834.52	82.65
834.692	70.91
834.863	49.59
835.035	68
835.206	75.78
835.378	69.79
835.549	64.46
835.721	69.48
835.892	59.37
836.064	69.24
836.235	68.48
836.407	70.53
836.578	88.41
836.749	80.32
836.921	85.83
837.092	108.82
837.264	120.96
837.435	95.21
837.606	108.51
837.777	90.75
837.949	68.99
838.12	67.58
838.291	68.34
838.462	72.76
838.633	98.13
838.805	117.81
838.976	87.97
839.147	71.08
839.318	56.95
839.489	57.59
839.66	70.41
839.831	76.64
840.002	90.99
840.173	115.21
840.344	97.62
840.515	67.59
840.686	84.04
840.857	90.9
841.028	75.67
841.199	81.92
841.369	69.8
841.54	68.48
841.711	65.37
841.882	71.1
842.053	77.98
842.223	72.17
842.394	64.35
842.565	65.94
842.736	48.39
842.906	35.24
843.077	57.27
843.248	57.36
843.418	58.84
843.589	73.11
843.759	72.18
843.93	91.42
844.101	74.07
844.271	64.02
844.442	56.67
844.612	65.63
844.783	49.4
844.953	52.43
845.123	37.82
845.294	51.25
845.464	45.81
845.635	35.06
845.805	37.84
845.975	59.47
846.146	55.93
846.316	56.95
846.486	66.59
846.656	74.78
846.827	56.96
846.997	51.29
847.167	60.88
847.337	84.94
847.507	72.75
847.677	94.01
847.848	110.42
848.018	121.5
848.188	109.42
848.358	90.97
848.528	73.68
848.698	56.19
848.868	39.87
849.038	28.92
849.208	34.1
849.378	34.57
849.548	46.53
849.718	50.4
849.887	59.63
850.057	63.39
850.227	54.25
850.397	53.69
850.567	63.87
850.737	84.15
850.906	86.98
851.076	109.12
851.246	126.59
851.415	117.95
851.585	95.97
851.755	138.37
851.924	90.19
852.094	64.95
852.264	63.43
852.433	42.87
852.603	54.65
852.772	67.85
852.942	82.29
853.111	70.79
853.281	78.38
853.45	57.92
853.62	49.32
853.789	36.1
853.959	47.17
854.128	49.88
854.297	47.92
854.467	47.48
854.636	63.56
854.805	60.33
854.975	28.73
855.144	21.44
855.313	29.69
855.482	47.12
855.652	91.65
855.821	83.58
855.99	111.94
856.159	120.39
856.328	78.63
856.497	22.17
856.667	37.37
856.836	37.12
857.005	-7.13
857.174	-18.51
857.343	25.82
857.512	42.44
857.681	53.82
857.85	61.41
858.019	50.93
858.188	66.49
858.356	47.98
858.525	55.85
858.694	68.13
858.863	61.56
859.032	65.84
859.201	68.57
859.369	91.26
859.538	96.46
859.707	127.65
859.876	115.46
860.044	143.52
860.213	120.26
860.382	110.54
860.55	94.54
860.719	106.35
860.888	100.98
861.056	98.81
861.225	96.35
861.393	119.86
861.562	92.03
861.73	111.83
861.899	90.89
862.067	59.39
862.236	53.92
862.404	68.72
862.572	56.15
862.741	44.08
862.909	60.48
863.078	43.21
863.246	34.7
863.414	10.28
863.582	22.11
863.751	46.37
863.919	49.79
864.087	64.22
864.255	71
864.424	49.32
864.592	27.47
864.76	28.46
864.928	1.98
865.096	23.57
865.264	21.5
865.432	13.83
865.6	18.35
865.768	18.89
865.936	0.9
866.104	58.06
866.272	42.34
866.44	23.03
866.608	23.21
866.776	33.53
866.944	0.26
867.112	14.39
867.28	32.93
867.448	21.56
867.615	4.93
867.783	42.02
867.951	43.35
868.119	38.35
868.286	46.43
868.454	63.83
868.622	64.69
868.789	71.97
868.957	102.99
869.125	141.11
869.292	109.88
869.46	93.05
869.627	78.48
869.795	42.45
869.963	15.4
870.13	31.82
870.298	53.2
870.465	63.39
870.632	83.97
870.8	52.17
870.967	30.86
871.135	35.59
871.302	-12.3
871.469	18.45
871.637	83.52
871.804	103.1
871.971	117.96
872.139	106.39
872.306	123.33
872.473	51.62
872.64	41.37
872.807	45.67
872.975	62.79
873.142	21.01
873.309	36.44
873.476	70.94
873.643	40.64
873.81	35.26
873.977	94.77
874.144	112.58
874.311	114.86
874.478	123.78
874.645	129.34
874.812	103.48
874.979	66.98
875.146	77.3
875.313	60.63
875.48	42.23
875.647	56.63
875.813	54.44
875.98	53.03
876.147	56.45
876.314	60.88
876.481	54.16
876.647	54.58
876.814	50.79
876.981	70.57
877.147	80.3
877.314	73.3
877.481	115.89
877.647	131.94
877.814	80.44
877.98	98.62
878.147	74.28
878.314	49.45
878.48	21
878.647	52.36
878.813	36.78
878.979	42.51
879.146	47.55
879.312	57.09
879.479	45.48
879.645	43.73
879.811	48.39
879.978	48.74
880.144	54.33
880.31	64.44
880.477	80.84
880.643	80.39
880.809	71.53
880.975	67.25
881.142	45.21
881.308	51.63
881.474	49.75
881.64	32.6
881.806	37.46
881.972	70.07
882.138	47.55
882.304	79.71
882.47	76.51
882.636	29.17
882.802	26.42
882.968	56.04
883.134	51.84
883.3	66.73
883.466	82.09
883.632	69.87
883.798	75.14
883.964	56.68
884.129	45.52
884.295	7.18
884.461	-26.67
884.627	-59.69
884.793	-47.6
884.958	-18.63
885.124	13.67
885.29	-32.5
885.455	-7.59
885.621	54.14
885.787	27.08
885.952	24.47
886.118	45.87
886.283	60.36
886.449	6.07
886.614	58.86
886.78	59.85
886.945	67.61
887.111	86.18
887.276	60.85
887.442	56.23
887.607	68.77
887.773	101.18
887.938	70.57
888.103	65.36
888.269	49.23
888.434	18.2
888.599	15.86
888.764	9.57
888.93	41.24
889.095	68.44
889.26	72.59
889.425	75.03
889.59	57.25
889.756	26.37
889.921	37.79
890.086	39.74
890.251	4.85
890.416	30.57
890.581	67.53
890.746	51.01
890.911	9.92
891.076	26.49
891.241	282.83
891.406	113.21
891.571	-94.12
891.736	17.85
891.901	-4.34
892.065	25.62
892.23	53.05
892.395	11.9
892.56	410.39
892.725	167.03
892.889	112.98
893.054	104.61
893.219	81.16
893.384	36.46
893.548	-8.14
893.713	-7.34
893.878	-26.67
