Data from Ofra_PS_Phys_0GT1_Reflection_1.txt Node
Date: Tue Jul 20 14:45:34 EDT 2021
User: USUARIO
Spectrometer: FLMT01687
Trigger mode: 0
Integration Time (sec): 1.200000E0
Scans to average: 2
Electric dark correction enabled: true
Nonlinearity correction enabled: false
Boxcar width: 2
XAxis mode: Wavelengths
Number of Pixels in Spectrum: 3648
>>>>>Begin Spectral Data<<<<<
179.494	-94.29
179.716	-116.67
179.937	934.36
180.158	204.37
180.38	172.15
180.601	190.76
180.823	1021.4
181.044	439.24
181.265	-93.09
181.486	216.86
181.708	-436.7
181.929	-141.43
182.15	235.01
182.372	-1035.77
182.593	206.39
182.814	-5373.33
183.035	-18
183.257	39.34
183.478	83.99
183.699	45.8
183.92	38.17
184.141	10.9
184.363	3.26
184.584	-9.94
184.805	-19.49
185.026	5.06
185.247	11
185.468	13.32
185.689	30.85
185.91	26.38
186.132	32.49
186.353	37.4
186.574	35.75
186.795	31.49
187.016	54.02
187.237	50.99
187.458	54.14
187.679	61.37
187.9	67.18
188.121	33.09
188.342	71.96
188.563	79.38
188.784	71.41
189.005	70.74
189.226	98.96
189.447	64.35
189.667	67.25
189.888	53.55
190.109	51.66
190.33	43.24
190.551	43.54
190.772	27.82
190.993	30.87
191.214	27.77
191.434	25.18
191.655	25.55
191.876	23.27
192.097	32.41
192.318	50.53
192.538	75.27
192.759	59.37
192.98	82.09
193.201	69.37
193.421	49.95
193.642	42.17
193.863	43.09
194.083	38.84
194.304	36.81
194.525	33.4
194.745	30.06
194.966	26.79
195.187	17.96
195.407	12.81
195.628	15.89
195.848	8.07
196.069	20.76
196.29	11.38
196.51	35.44
196.731	23.99
196.951	28.49
197.172	36.31
197.392	43.34
197.613	25.08
197.833	34.25
198.054	39.47
198.274	40.71
198.495	31.46
198.715	22.11
198.936	46.85
199.156	44.2
199.377	-50.48
199.597	-24.92
199.817	3.23
200.038	-44.53
200.258	-35.98
200.479	8.61
200.699	-3
200.919	31.14
201.14	66.58
201.36	76.1
201.58	88.18
201.801	83.71
202.021	62.51
202.241	48.9
202.461	42.03
202.682	40.81
202.902	42.08
203.122	37.39
203.342	38.51
203.563	38.15
203.783	27.92
204.003	20.5
204.223	34.91
204.443	33.72
204.663	42.06
204.884	61.73
205.104	70.09
205.324	65.59
205.544	75.56
205.764	59.98
205.984	47.88
206.204	23.73
206.424	21.8
206.644	-1.64
206.864	0.22
207.084	25.2
207.304	51.81
207.525	44.34
207.745	55.56
207.964	48.64
208.184	45.91
208.404	31.59
208.624	47.54
208.844	33.77
209.064	45.23
209.284	30.8
209.504	35.26
209.724	17.67
209.944	24.81
210.164	7.39
210.384	15.01
210.604	23.38
210.823	34.93
211.043	42.39
211.263	27.52
211.483	32.06
211.703	34.6
211.922	34.19
212.142	36.89
212.362	41.59
212.582	38.41
212.801	48.56
213.021	40.4
213.241	38.7
213.461	45.57
213.68	38.85
213.9	31.59
214.12	29.94
214.339	36.4
214.559	32.76
214.779	49
214.998	44.64
215.218	50.49
215.438	41.36
215.657	51.85
215.877	31.42
216.096	33.04
216.316	31.81
216.535	28.17
216.755	29.64
216.974	36.54
217.194	46.84
217.413	51.79
217.633	59.08
217.852	82.96
218.072	78.66
218.291	83.07
218.511	67.46
218.73	46.44
218.95	34.08
219.169	25.75
219.389	9.91
219.608	0.61
219.827	3.65
220.047	13.96
220.266	18.02
220.485	12.92
220.705	44.13
220.924	37.16
221.143	34.04
221.363	37.32
221.582	38.97
221.801	16.58
222.021	22.21
222.24	28.1
222.459	24.24
222.678	13.27
222.897	26.3
223.117	32.79
223.336	29.19
223.555	26.45
223.774	33.43
223.993	34.5
224.213	24.37
224.432	23.12
224.651	39.03
224.87	42.52
225.089	43.96
225.308	52.69
225.527	55.05
225.746	21.18
225.965	33.86
226.184	33.68
226.404	26.66
226.623	18.09
226.842	36.42
227.061	43.35
227.28	52.32
227.499	62.96
227.718	55.78
227.936	45.06
228.155	41.01
228.374	25.73
228.593	26.78
228.812	39.62
229.031	41.87
229.25	35.03
229.469	42.15
229.688	38.59
229.907	34.53
230.125	33.45
230.344	22.77
230.563	17.89
230.782	7.82
231.001	-6.78
231.22	9.71
231.438	25.92
231.657	34.77
231.876	49.93
232.095	63.4
232.313	61.44
232.532	66.52
232.751	52.41
232.969	38.2
233.188	29.06
233.407	18.99
233.625	-11
233.844	1.07
234.063	9.78
234.281	6.4
234.5	10.18
234.719	21.89
234.937	35.11
235.156	40.86
235.374	50.49
235.593	45.92
235.811	44.29
236.03	40.82
236.249	31.55
236.467	33.58
236.686	22.99
236.904	22.26
237.123	9.91
237.341	13.07
237.559	19.31
237.778	37.45
237.996	30.8
238.215	42.65
238.433	34.09
238.652	19.37
238.87	-5.8
239.088	8.92
239.307	0.33
239.525	-10.27
239.743	14.57
239.962	28.35
240.18	30.58
240.398	26.36
240.617	33.04
240.835	33.81
241.053	36.45
241.271	33.74
241.49	39.66
241.708	41.72
241.926	48.93
242.144	43.17
242.363	35.56
242.581	36.06
242.799	32.07
243.017	-0.03
243.235	15.38
243.453	29.37
243.672	32.93
243.89	26.07
244.108	45.1
244.326	38.3
244.544	20.53
244.762	31.38
244.98	33.71
245.198	40.97
245.416	44.48
245.634	54.86
245.852	44.49
246.07	39.79
246.288	35.95
246.506	21.48
246.724	2.56
246.942	7.91
247.16	23.46
247.378	22.35
247.596	39.11
247.814	50.59
248.032	50.17
248.25	51.73
248.468	47.25
248.685	27.88
248.903	38.92
249.121	49.88
249.339	37.81
249.557	43.32
249.775	48.89
249.992	30.58
250.21	24.29
250.428	29.78
250.646	20.79
250.863	24.91
251.081	24.72
251.299	29.28
251.517	30.54
251.734	31.9
251.952	31.31
252.17	36.73
252.387	38.4
252.605	38.52
252.823	42.32
253.04	42.52
253.258	42.74
253.475	35.03
253.693	37.85
253.911	40.38
254.128	32.58
254.346	24.97
254.563	15.24
254.781	11.49
254.998	7.81
255.216	28.61
255.433	39.51
255.651	57.99
255.868	59.18
256.086	50.07
256.303	45.88
256.521	45.37
256.738	34.15
256.956	19.01
257.173	22.29
257.39	24.5
257.608	11.69
257.825	12.74
258.043	17.68
258.26	13.92
258.477	13.96
258.695	26.35
258.912	30.88
259.129	38.49
259.346	36.54
259.564	27.05
259.781	18.31
259.998	40.69
260.216	39.58
260.433	45.24
260.65	53.75
260.867	54.23
261.084	26.64
261.302	31.25
261.519	21.44
261.736	11.32
261.953	19.84
262.17	28.08
262.387	20.25
262.604	36.16
262.822	46.86
263.039	34.76
263.256	26.2
263.473	27.59
263.69	11.47
263.907	1.57
264.124	-10.2
264.341	-0.89
264.558	-3.31
264.775	3.95
264.992	-12.25
265.209	19.66
265.426	49.3
265.643	50.71
265.86	43.52
266.077	56.05
266.294	45.39
266.51	26.93
266.727	31.15
266.944	23.37
267.161	33.67
267.378	29.07
267.595	27.9
267.812	23.08
268.028	35.62
268.245	30.49
268.462	27.95
268.679	18.59
268.896	23.45
269.112	27.84
269.329	21.13
269.546	29.96
269.763	43.97
269.979	35.69
270.196	44.89
270.413	42.8
270.629	40.8
270.846	35.59
271.063	37.38
271.279	25.24
271.496	20.59
271.712	23.88
271.929	20.87
272.146	30.49
272.362	29.33
272.579	34.37
272.795	32.92
273.012	45.32
273.228	38.4
273.445	34.67
273.661	41.48
273.878	37.74
274.094	22.37
274.311	8.1
274.527	13.18
274.744	-6.2
274.96	1.8
275.177	6.6
275.393	18.83
275.609	10.43
275.826	21.85
276.042	13.09
276.259	5.51
276.475	6.6
276.691	12.34
276.908	14.69
277.124	43.87
277.34	51.62
277.557	48.21
277.773	52.36
277.989	50.51
278.205	36.16
278.422	34.17
278.638	40.84
278.854	37.43
279.07	29.15
279.286	33.44
279.503	36.61
279.719	36.93
279.935	33.41
280.151	40.82
280.367	44.62
280.583	47.75
280.799	54.3
281.016	65.55
281.232	67.41
281.448	65.68
281.664	72.11
281.88	56.39
282.096	45.65
282.312	45.59
282.528	38.25
282.744	38.06
282.96	49.47
283.176	49.85
283.392	37.03
283.608	38.38
283.824	31.3
284.04	18.59
284.256	16.79
284.471	13.96
284.687	14.28
284.903	18.76
285.119	19.76
285.335	33.39
285.551	36.49
285.767	30.11
285.982	26.7
286.198	31.27
286.414	21.62
286.63	38.11
286.846	27.62
287.061	34.92
287.277	31.85
287.493	34.43
287.709	40.44
287.924	56.69
288.14	51.38
288.356	42.73
288.571	42.54
288.787	28.99
289.003	30.69
289.218	21.55
289.434	21.84
289.65	10
289.865	3.39
290.081	1.32
290.296	9.08
290.512	-4.76
290.727	-1.63
290.943	12.83
291.159	8.42
291.374	12.79
291.59	13.63
291.805	14.8
292.021	3.78
292.236	11.89
292.451	13.26
292.667	30.38
292.882	41.22
293.098	44.12
293.313	49.63
293.529	38.87
293.744	30.28
293.959	35.18
294.175	36.9
294.39	23.38
294.605	34
294.821	37.32
295.036	26.66
295.251	39.31
295.467	44.19
295.682	28.99
295.897	30.93
296.112	27.06
296.328	15.84
296.543	4.51
296.758	18.29
296.973	12.47
297.188	11.57
297.404	11.7
297.619	18.95
297.834	16.45
298.049	16.97
298.264	19.27
298.479	21.68
298.694	21.79
298.909	27.35
299.125	32.45
299.34	21.17
299.555	20.94
299.77	22.61
299.985	21.22
300.2	14.84
300.415	20.75
300.63	22.43
300.845	26.14
301.06	28.25
301.275	28.82
301.49	24.92
301.704	28.64
301.919	24.19
302.134	26.4
302.349	31.11
302.564	43.22
302.779	38.66
302.994	33.73
303.209	39.63
303.423	47.31
303.638	35.83
303.853	41.76
304.068	45.93
304.283	44.86
304.497	36.81
304.712	46.54
304.927	48.44
305.142	46.78
305.356	34.56
305.571	39.41
305.786	30.79
306	27.55
306.215	25.1
306.43	40.12
306.644	36.15
306.859	49.69
307.074	42.95
307.288	41.41
307.503	36.89
307.717	35.26
307.932	13.84
308.147	18.87
308.361	39.46
308.576	38.53
308.79	37.07
309.005	43.38
309.219	39.18
309.434	24.92
309.648	23.39
309.863	15.33
310.077	14.43
310.292	20.98
310.506	13.69
310.72	23.84
310.935	22.14
311.149	36.32
311.364	31.49
311.578	50.81
311.792	37.03
312.007	46.1
312.221	45.69
312.435	47.58
312.649	38.48
312.864	57.47
313.078	62.91
313.292	57.32
313.507	62.89
313.721	70.51
313.935	34.1
314.149	22.64
314.363	21.63
314.578	19
314.792	10.1
315.006	23.81
315.22	17.76
315.434	19.2
315.648	12.29
315.862	15.96
316.077	8.25
316.291	15.59
316.505	20.26
316.719	31.23
316.933	42.21
317.147	32.13
317.361	29.2
317.575	17.73
317.789	14.94
318.003	-0.67
318.217	16.04
318.431	27.96
318.645	34.85
318.859	33.77
319.073	41.94
319.287	36.47
319.5	20.84
319.714	29.93
319.928	36.8
320.142	34.31
320.356	33.34
320.57	40.9
320.784	31.35
320.997	33.42
321.211	35.91
321.425	42.3
321.639	33.13
321.853	38.7
322.066	17.34
322.28	11.22
322.494	19.59
322.707	26.69
322.921	20.1
323.135	23.85
323.349	24.17
323.562	20.5
323.776	25.91
323.989	34.7
324.203	38.51
324.417	46.4
324.63	52.53
324.844	41.59
325.057	35.34
325.271	35.69
325.485	30.02
325.698	15.92
325.912	24.61
326.125	27.45
326.339	34.34
326.552	33.56
326.766	32.37
326.979	32.37
327.193	27.43
327.406	16.05
327.619	14.5
327.833	32.06
328.046	19.95
328.26	21.55
328.473	30.17
328.686	31.27
328.9	22.65
329.113	20.96
329.326	19.24
329.54	13.02
329.753	22.33
329.966	22.72
330.179	39.34
330.393	47.47
330.606	47.5
330.819	43.37
331.032	44.76
331.246	36.96
331.459	38.52
331.672	39.84
331.885	31.36
332.098	33.39
332.311	32.7
332.525	15.88
332.738	18.53
332.951	38.74
333.164	30.21
333.377	25.09
333.59	38.44
333.803	45.82
334.016	31.21
334.229	43.21
334.442	42.4
334.655	27.17
334.868	20.48
335.081	19.76
335.294	18.62
335.507	26.87
335.72	36.32
335.933	37.78
336.146	45.6
336.359	43.99
336.572	38.67
336.785	32.16
336.997	16.69
337.21	6.83
337.423	1.75
337.636	-16.15
337.849	-9.7
338.062	4.5
338.274	22.51
338.487	26.04
338.7	33.02
338.913	35.43
339.125	38.02
339.338	34.05
339.551	36.52
339.763	35.8
339.976	47.2
340.189	38.08
340.402	26.6
340.614	30.46
340.827	32.2
341.039	24.03
341.252	33.46
341.465	28.05
341.677	12.99
341.89	15.94
342.102	16.45
342.315	15.77
342.527	28.34
342.74	30.67
342.952	31.5
343.165	28
343.377	20.13
343.59	12.77
343.802	16.76
344.015	20.77
344.227	24.84
344.44	37.92
344.652	41.18
344.864	37.77
345.077	29.64
345.289	35.66
345.502	30.64
345.714	18.15
345.926	13.71
346.139	22.36
346.351	13.65
346.563	10.07
346.775	30.67
346.988	35.26
347.2	32.92
347.412	31.9
347.624	42
347.837	33.38
348.049	30.54
348.261	30.78
348.473	37.6
348.685	32.64
348.897	32.05
349.11	29.51
349.322	26.32
349.534	19.77
349.746	17.64
349.958	18.53
350.17	27.12
350.382	24.71
350.594	19.83
350.806	23.38
351.018	31.67
351.23	30.37
351.442	31.53
351.654	36.78
351.866	37.99
352.078	35.12
352.29	30.61
352.502	40.82
352.714	36.5
352.926	31.55
353.138	29.57
353.35	31.87
353.561	19.75
353.773	23.44
353.985	26.39
354.197	25.39
354.409	22.14
354.621	33.3
354.832	31.76
355.044	26.82
355.256	27.44
355.468	21
355.679	15.76
355.891	22.8
356.103	34.2
356.314	26.44
356.526	41.3
356.738	43.98
356.949	37.53
357.161	35.54
357.373	41.52
357.584	35.21
357.796	35.93
358.008	31.24
358.219	28.04
358.431	26.15
358.642	30.91
358.854	22.68
359.065	30.95
359.277	23.45
359.488	26.54
359.7	29.7
359.911	28.59
360.123	29.61
360.334	35.28
360.546	36.43
360.757	28.74
360.969	35.92
361.18	37.46
361.391	39.24
361.603	35.81
361.814	31.21
362.025	26.18
362.237	21.53
362.448	21.16
362.659	20.72
362.871	24.17
363.082	26.63
363.293	33.25
363.504	26.52
363.716	19.89
363.927	8.61
364.138	5.7
364.349	8.05
364.56	8.77
364.772	8.9
364.983	19.62
365.194	18.99
365.405	17.66
365.616	18.41
365.827	18.96
366.038	19.85
366.25	19.08
366.461	18.42
366.672	34.55
366.883	31.22
367.094	33.48
367.305	34.26
367.516	30.29
367.727	18.29
367.938	30.25
368.149	23.55
368.36	23.38
368.571	27.5
368.781	27.77
368.992	13.16
369.203	8.52
369.414	-10.6
369.625	-19.33
369.836	-10.69
370.047	2.31
370.258	12.65
370.468	28.32
370.679	35.91
370.89	30.69
371.101	29.95
371.312	24.48
371.522	31.37
371.733	34.56
371.944	29.64
372.155	36.54
372.365	42.5
372.576	33.51
372.787	24.42
372.997	28.28
373.208	19.85
373.419	21.2
373.629	19.95
373.84	25.63
374.05	23.98
374.261	20.97
374.472	14.42
374.682	20.82
374.893	19.75
375.103	19.05
375.314	22.4
375.524	27.88
375.735	21.36
375.945	24.37
376.156	25.73
376.366	20.95
376.577	10
376.787	19.46
376.997	9.29
377.208	10.41
377.418	16.35
377.629	24.92
377.839	26.99
378.049	38.57
378.26	34.95
378.47	22.57
378.68	29.1
378.89	15.14
379.101	6.46
379.311	17.49
379.521	29.27
379.732	21.05
379.942	17.71
380.152	14.45
380.362	4.15
380.572	-1.84
380.783	8.42
380.993	19.46
381.203	31.6
381.413	36.24
381.623	33.1
381.833	31.94
382.043	26.29
382.253	14.86
382.463	14.1
382.674	19.06
382.884	15.87
383.094	22.41
383.304	27.9
383.514	25.23
383.724	25.53
383.934	20.91
384.144	18.15
384.353	10.16
384.563	8.57
384.773	7.82
384.983	16.54
385.193	15.21
385.403	18.2
385.613	22.28
385.823	18.35
386.033	11.04
386.242	14.82
386.452	16.73
386.662	13.82
386.872	18.99
387.082	19.35
387.291	14.34
387.501	15.15
387.711	14.9
387.921	13.52
388.13	17.09
388.34	19.83
388.55	18.27
388.759	18.7
388.969	13.85
389.179	12.64
389.388	12.62
389.598	10.27
389.807	8.21
390.017	10.58
390.227	9.38
390.436	5.06
390.646	6.63
390.855	6.84
391.065	6.72
391.274	5.32
391.484	7.51
391.693	8.53
391.903	8.95
392.112	8.69
392.322	8.4
392.531	9.6
392.74	9.14
392.95	8.73
393.159	9.53
393.369	9.47
393.578	7.75
393.787	6.06
393.997	6.19
394.206	5.09
394.415	7.28
394.625	7.49
394.834	7.93
395.043	7.24
395.252	7.47
395.462	5.54
395.671	4
395.88	3.02
396.089	2.3
396.298	1.76
396.508	2.73
396.717	3.39
396.926	3.55
397.135	3.26
397.344	3.62
397.553	3.73
397.762	4.32
397.971	4.44
398.181	4.8
398.39	3.95
398.599	2.91
398.808	2.27
399.017	2.81
399.226	3.02
399.435	3.31
399.644	3.63
399.853	3.89
400.062	3.59
400.27	3.56
400.479	3.51
400.688	3.83
400.897	3.85
401.106	3.66
401.315	3.72
401.524	3.77
401.733	3.57
401.941	3.62
402.15	3.61
402.359	3.6
402.568	3.74
402.777	3.48
402.985	3.45
403.194	3.45
403.403	3.4
403.612	3.32
403.82	3.21
404.029	3.01
404.238	3.21
404.446	3.17
404.655	3.03
404.864	2.95
405.072	2.8
405.281	2.83
405.489	2.88
405.698	2.94
405.906	3.06
406.115	3.37
406.324	3.16
406.532	3.04
406.741	2.99
406.949	3.02
407.158	2.85
407.366	2.78
407.574	2.88
407.783	2.91
407.991	2.9
408.2	3.14
408.408	3.24
408.617	3.09
408.825	3.03
409.033	3.05
409.242	2.82
409.45	2.81
409.658	2.75
409.867	2.73
410.075	2.68
410.283	2.61
410.491	2.54
410.7	2.57
410.908	2.67
411.116	2.53
411.324	2.7
411.533	2.69
411.741	2.83
411.949	2.88
412.157	3.02
412.365	2.95
412.573	3.05
412.781	2.94
412.99	2.81
413.198	2.84
413.406	2.73
413.614	2.49
413.822	2.42
414.03	2.44
414.238	2.32
414.446	2.33
414.654	2.39
414.862	2.5
415.07	2.46
415.278	2.43
415.486	2.34
415.694	2.37
415.902	2.28
416.109	2.37
416.317	2.45
416.525	2.43
416.733	2.39
416.941	2.36
417.149	2.35
417.357	2.4
417.564	2.48
417.772	2.62
417.98	2.6
418.188	2.49
418.395	2.44
418.603	2.41
418.811	2.38
419.019	2.55
419.226	2.6
419.434	2.55
419.642	2.57
419.849	2.47
420.057	2.34
420.265	2.31
420.472	2.29
420.68	2.29
420.887	2.23
421.095	2.28
421.302	2.26
421.51	2.3
421.717	2.3
421.925	2.27
422.132	2.21
422.34	2.29
422.547	2.37
422.755	2.42
422.962	2.54
423.17	2.57
423.377	2.38
423.585	2.27
423.792	2.17
423.999	2.09
424.207	2.06
424.414	2.29
424.621	2.26
424.829	2.35
425.036	2.26
425.243	2.29
425.451	2.3
425.658	2.43
425.865	2.47
426.072	2.53
426.28	2.58
426.487	2.48
426.694	2.37
426.901	2.14
427.108	2.13
427.315	1.98
427.523	1.96
427.73	2.12
427.937	2.37
428.144	2.4
428.351	2.46
428.558	2.42
428.765	2.34
428.972	2.26
429.179	2.21
429.386	2.46
429.593	2.57
429.8	2.48
430.007	2.48
430.214	2.65
430.421	2.51
430.628	2.33
430.835	2.29
431.042	2.41
431.249	2.33
431.456	2.17
431.662	2.29
431.869	2.52
432.076	2.45
432.283	2.32
432.49	2.5
432.697	2.43
432.903	2.26
433.11	2.13
433.317	2.29
433.524	2.23
433.73	2.27
433.937	2.36
434.144	2.5
434.35	2.43
434.557	2.39
434.764	2.48
434.97	2.53
435.177	2.52
435.384	2.46
435.59	2.59
435.797	2.6
436.003	2.48
436.21	2.54
436.416	2.7
436.623	2.64
436.829	2.64
437.036	2.66
437.242	2.57
437.449	2.6
437.655	2.62
437.862	2.62
438.068	2.67
438.275	2.68
438.481	2.69
438.687	2.64
438.894	2.66
439.1	2.68
439.307	2.73
439.513	2.69
439.719	2.73
439.926	2.67
440.132	2.72
440.338	2.75
440.544	2.76
440.751	2.78
440.957	2.9
441.163	2.92
441.369	3.01
441.575	3.01
441.782	3.12
441.988	3.04
442.194	2.93
442.4	2.89
442.606	2.91
442.812	2.87
443.018	2.85
443.224	2.93
443.431	2.95
443.637	2.89
443.843	2.84
444.049	2.94
444.255	2.91
444.461	2.92
444.667	2.96
444.873	3.03
445.079	3.1
445.284	3.15
445.49	3.14
445.696	3.14
445.902	3.1
446.108	3.03
446.314	2.95
446.52	3.02
446.726	3.04
446.931	3.17
447.137	3.19
447.343	3.35
447.549	3.26
447.755	3.31
447.96	3.19
448.166	3.2
448.372	3.07
448.578	3.14
448.783	3.11
448.989	3.13
449.195	3.05
449.4	3.08
449.606	3
449.812	3.02
450.017	3.08
450.223	3.15
450.428	3.24
450.634	3.31
450.84	3.32
451.045	3.38
451.251	3.39
451.456	3.34
451.662	3.37
451.867	3.33
452.073	3.27
452.278	3.34
452.483	3.41
452.689	3.4
452.894	3.33
453.1	3.31
453.305	3.23
453.51	3.11
453.716	3.07
453.921	3.16
454.127	3.17
454.332	3.2
454.537	3.23
454.742	3.23
454.948	3.26
455.153	3.29
455.358	3.3
455.563	3.31
455.769	3.41
455.974	3.44
456.179	3.41
456.384	3.35
456.589	3.38
456.795	3.26
457	3.24
457.205	3.3
457.41	3.31
457.615	3.33
457.82	3.38
458.025	3.4
458.23	3.32
458.435	3.39
458.64	3.37
458.845	3.41
459.05	3.33
459.255	3.45
459.46	3.42
459.665	3.45
459.87	3.52
460.075	3.58
460.28	3.39
460.485	3.36
460.69	3.46
460.895	3.38
461.099	3.37
461.304	3.57
461.509	3.67
461.714	3.61
461.919	3.66
462.123	3.69
462.328	3.7
462.533	3.67
462.738	3.7
462.942	3.64
463.147	3.72
463.352	3.61
463.556	3.65
463.761	3.55
463.966	3.62
464.17	3.59
464.375	3.69
464.58	3.71
464.784	3.74
464.989	3.7
465.193	3.64
465.398	3.61
465.602	3.6
465.807	3.67
466.011	3.75
466.216	3.83
466.42	3.77
466.625	3.79
466.829	3.78
467.034	3.76
467.238	3.77
467.443	3.78
467.647	3.84
467.851	3.96
468.056	3.97
468.26	3.99
468.464	4.13
468.669	4.09
468.873	4.1
469.077	4.07
469.282	4.09
469.486	4.03
469.69	4.1
469.894	4.02
470.099	4.09
470.303	4.14
470.507	4.23
470.711	4.23
470.915	4.34
471.119	4.43
471.324	4.44
471.528	4.45
471.732	4.49
471.936	4.36
472.14	4.36
472.344	4.33
472.548	4.36
472.752	4.4
472.956	4.55
473.16	4.52
473.364	4.53
473.568	4.5
473.772	4.54
473.976	4.48
474.18	4.58
474.384	4.66
474.588	4.59
474.792	4.5
474.995	4.51
475.199	4.45
475.403	4.43
475.607	4.52
475.811	4.62
476.015	4.7
476.218	4.7
476.422	4.74
476.626	4.77
476.83	4.82
477.033	4.81
477.237	4.88
477.441	4.83
477.644	4.84
477.848	4.75
478.052	4.71
478.255	4.74
478.459	4.78
478.663	4.79
478.866	4.83
479.07	4.91
479.273	4.86
479.477	4.96
479.681	4.98
479.884	4.98
480.088	5.01
480.291	5.06
480.495	5.04
480.698	5.06
480.901	5.09
481.105	5.11
481.308	5.14
481.512	5.17
481.715	5.2
481.919	5.24
482.122	5.22
482.325	5.2
482.529	5.18
482.732	5.14
482.935	5.16
483.138	5.14
483.342	5.13
483.545	5.15
483.748	5.18
483.952	5.12
484.155	5.18
484.358	5.21
484.561	5.2
484.764	5.16
484.967	5.23
485.171	5.25
485.374	5.23
485.577	5.23
485.78	5.31
485.983	5.36
486.186	5.33
486.389	5.4
486.592	5.45
486.795	5.47
486.998	5.43
487.201	5.49
487.404	5.47
487.607	5.46
487.81	5.5
488.013	5.51
488.216	5.45
488.419	5.44
488.622	5.41
488.825	5.36
489.028	5.37
489.231	5.42
489.433	5.4
489.636	5.42
489.839	5.51
490.042	5.53
490.245	5.51
490.447	5.57
490.65	5.57
490.853	5.52
491.056	5.48
491.258	5.5
491.461	5.49
491.664	5.47
491.866	5.48
492.069	5.56
492.272	5.53
492.474	5.57
492.677	5.63
492.879	5.67
493.082	5.67
493.285	5.76
493.487	5.78
493.69	5.76
493.892	5.7
494.095	5.71
494.297	5.71
494.5	5.77
494.702	5.71
494.905	5.75
495.107	5.72
495.309	5.71
495.512	5.65
495.714	5.75
495.917	5.79
496.119	5.85
496.321	5.84
496.524	5.91
496.726	5.93
496.928	5.97
497.13	6.02
497.333	6.09
497.535	6.13
497.737	6.09
497.939	6.06
498.142	6.06
498.344	6.03
498.546	6.05
498.748	6.13
498.95	6.17
499.152	6.12
499.355	6.07
499.557	6.02
499.759	6.07
499.961	6.06
500.163	6.11
500.365	6.25
500.567	6.32
500.769	6.25
500.971	6.24
501.173	6.2
501.375	6.17
501.577	6.22
501.779	6.33
501.981	6.37
502.183	6.45
502.385	6.55
502.587	6.54
502.788	6.5
502.99	6.57
503.192	6.6
503.394	6.57
503.596	6.65
503.798	6.72
503.999	6.74
504.201	6.79
504.403	6.85
504.605	6.85
504.806	6.87
505.008	6.88
505.21	6.84
505.411	6.85
505.613	6.89
505.815	6.94
506.016	6.98
506.218	7.07
506.42	7.09
506.621	7.07
506.823	7.12
507.024	7.16
507.226	7.21
507.427	7.23
507.629	7.29
507.83	7.28
508.032	7.35
508.233	7.4
508.435	7.43
508.636	7.47
508.838	7.52
509.039	7.46
509.24	7.48
509.442	7.56
509.643	7.51
509.845	7.54
510.046	7.63
510.247	7.63
510.448	7.62
510.65	7.7
510.851	7.76
511.052	7.75
511.254	7.78
511.455	7.84
511.656	7.89
511.857	7.88
512.058	7.95
512.26	7.94
512.461	7.94
512.662	7.96
512.863	7.96
513.064	7.97
513.265	8.05
513.466	8.1
513.667	8.06
513.868	8.09
514.069	8.13
514.27	8.11
514.471	8.13
514.672	8.19
514.873	8.22
515.074	8.23
515.275	8.27
515.476	8.22
515.677	8.25
515.878	8.3
516.079	8.35
516.28	8.35
516.481	8.41
516.682	8.49
516.882	8.49
517.083	8.53
517.284	8.58
517.485	8.6
517.686	8.57
517.886	8.59
518.087	8.56
518.288	8.6
518.488	8.69
518.689	8.71
518.89	8.68
519.091	8.73
519.291	8.71
519.492	8.73
519.692	8.73
519.893	8.84
520.094	8.85
520.294	8.9
520.495	8.83
520.695	8.91
520.896	8.97
521.096	9
521.297	9.01
521.497	9.11
521.698	9.14
521.898	9.11
522.099	9.12
522.299	9.2
522.499	9.18
522.7	9.16
522.9	9.19
523.101	9.19
523.301	9.15
523.501	9.27
523.702	9.28
523.902	9.31
524.102	9.36
524.302	9.42
524.503	9.39
524.703	9.45
524.903	9.44
525.103	9.51
525.304	9.49
525.504	9.51
525.704	9.51
525.904	9.55
526.104	9.55
526.304	9.6
526.504	9.65
526.705	9.7
526.905	9.75
527.105	9.74
527.305	9.77
527.505	9.73
527.705	9.71
527.905	9.71
528.105	9.74
528.305	9.76
528.505	9.8
528.705	9.91
528.905	10
529.105	10.04
529.304	10.08
529.504	10.17
529.704	10.14
529.904	10.15
530.104	10.17
530.304	10.19
530.503	10.17
530.703	10.16
530.903	10.19
531.103	10.24
531.303	10.26
531.502	10.31
531.702	10.38
531.902	10.38
532.101	10.37
532.301	10.42
532.501	10.48
532.7	10.49
532.9	10.48
533.1	10.52
533.299	10.51
533.499	10.53
533.698	10.59
533.898	10.66
534.097	10.72
534.297	10.78
534.496	10.76
534.696	10.81
534.895	10.84
535.095	10.91
535.294	10.97
535.494	11.03
535.693	11.01
535.892	11.05
536.092	11.06
536.291	11.06
536.491	11.09
536.69	11.15
536.889	11.15
537.088	11.18
537.288	11.23
537.487	11.22
537.686	11.26
537.886	11.34
538.085	11.31
538.284	11.31
538.483	11.41
538.682	11.41
538.882	11.41
539.081	11.52
539.28	11.56
539.479	11.57
539.678	11.61
539.877	11.71
540.076	11.73
540.275	11.76
540.474	11.81
540.673	11.86
540.872	11.83
541.071	11.88
541.27	11.97
541.469	12.02
541.668	12.06
541.867	12.18
542.066	12.23
542.265	12.26
542.464	12.27
542.663	12.33
542.862	12.38
543.06	12.4
543.259	12.5
543.458	12.6
543.657	12.69
543.856	12.7
544.054	12.75
544.253	12.8
544.452	12.87
544.651	12.91
544.849	13
545.048	13.08
545.247	13.13
545.445	13.19
545.644	13.27
545.843	13.34
546.041	13.42
546.24	13.51
546.438	13.54
546.637	13.6
546.836	13.7
547.034	13.74
547.233	13.77
547.431	13.81
547.63	13.87
547.828	13.86
548.027	13.95
548.225	14.06
548.423	14.17
548.622	14.22
548.82	14.34
549.019	14.42
549.217	14.5
549.415	14.55
549.614	14.65
549.812	14.67
550.01	14.75
550.209	14.81
550.407	14.92
550.605	14.94
550.803	15.04
551.002	15.15
551.2	15.24
551.398	15.33
551.596	15.5
551.794	15.62
551.993	15.68
552.191	15.75
552.389	15.84
552.587	15.94
552.785	16.04
552.983	16.17
553.181	16.29
553.379	16.49
553.577	16.57
553.775	16.65
553.973	16.72
554.171	16.85
554.369	16.86
554.567	16.95
554.765	17.03
554.963	17.2
555.161	17.28
555.359	17.44
555.557	17.58
555.755	17.74
555.952	17.78
556.15	17.93
556.348	18.02
556.546	18.14
556.744	18.29
556.941	18.41
557.139	18.46
557.337	18.51
557.535	18.62
557.732	18.74
557.93	18.83
558.128	18.98
558.325	19.12
558.523	19.23
558.721	19.34
558.918	19.51
559.116	19.63
559.313	19.75
559.511	19.88
559.708	20.02
559.906	20.21
560.104	20.4
560.301	20.53
560.498	20.63
560.696	20.75
560.893	20.82
561.091	20.84
561.288	21.05
561.486	21.19
561.683	21.29
561.88	21.38
562.078	21.55
562.275	21.57
562.473	21.74
562.67	21.95
562.867	22.07
563.064	22.24
563.262	22.43
563.459	22.56
563.656	22.63
563.853	22.72
564.051	22.7
564.248	22.76
564.445	22.85
564.642	22.93
564.839	23.05
565.036	23.22
565.234	23.41
565.431	23.45
565.628	23.58
565.825	23.69
566.022	23.73
566.219	23.8
566.416	23.88
566.613	24.04
566.81	24.17
567.007	24.3
567.204	24.37
567.401	24.53
567.598	24.53
567.795	24.56
567.991	24.7
568.188	24.8
568.385	24.82
568.582	24.92
568.779	25.05
568.976	25.07
569.172	25.17
569.369	25.25
569.566	25.39
569.763	25.42
569.96	25.53
570.156	25.57
570.353	25.65
570.55	25.65
570.746	25.71
570.943	25.81
571.14	25.89
571.336	25.9
571.533	25.97
571.729	26.03
571.926	26.08
572.123	26.13
572.319	26.27
572.516	26.38
572.712	26.4
572.909	26.42
573.105	26.49
573.302	26.46
573.498	26.45
573.695	26.54
573.891	26.56
574.087	26.57
574.284	26.61
574.48	26.64
574.677	26.69
574.873	26.77
575.069	26.8
575.266	26.85
575.462	26.88
575.658	26.88
575.854	26.93
576.051	27.01
576.247	26.97
576.443	27.01
576.639	27.03
576.835	27
577.032	26.89
577.228	26.99
577.424	26.99
577.62	27
577.816	27.05
578.012	27.09
578.208	27.07
578.404	27.06
578.6	27.04
578.796	26.96
578.993	27.04
579.189	27.01
579.384	26.99
579.58	27.04
579.776	27.01
579.972	26.96
580.168	27
580.364	26.97
580.56	26.99
580.756	27.06
580.952	26.99
581.148	26.94
581.343	26.94
581.539	26.9
581.735	26.88
581.931	26.88
582.127	26.92
582.322	26.89
582.518	26.7
582.714	26.58
582.909	26.64
583.105	26.58
583.301	26.65
583.496	26.78
583.692	26.85
583.888	26.84
584.083	26.91
584.279	26.73
584.474	26.73
584.67	26.77
584.866	26.82
585.061	26.74
585.257	26.88
585.452	26.99
585.648	26.93
585.843	26.82
586.039	26.89
586.234	26.8
586.429	26.67
586.625	26.71
586.82	26.72
587.015	26.65
587.211	26.65
587.406	26.69
587.601	26.59
587.797	26.64
587.992	26.59
588.187	26.78
588.383	26.81
588.578	26.88
588.773	26.89
588.968	27
589.163	26.94
589.359	26.88
589.554	26.9
589.749	26.87
589.944	26.86
590.139	26.84
590.334	26.9
590.529	27.02
590.724	27.1
590.919	27.15
591.114	27.28
591.309	27.38
591.504	27.4
591.699	27.52
591.894	27.51
592.089	27.44
592.284	27.48
592.479	27.48
592.674	27.4
592.869	27.54
593.064	27.77
593.259	27.89
593.454	27.96
593.648	28.05
593.843	28.12
594.038	28.03
594.233	28.08
594.428	28.19
594.622	28.35
594.817	28.4
595.012	28.57
595.206	28.66
595.401	28.76
595.596	28.81
595.79	28.91
595.985	28.92
596.18	28.92
596.374	28.9
596.569	29.03
596.763	29.16
596.958	29.31
597.153	29.51
597.347	29.66
597.542	29.59
597.736	29.66
597.931	29.61
598.125	29.63
598.319	29.76
598.514	29.94
598.708	29.98
598.903	30.19
599.097	30.28
599.291	30.33
599.486	30.42
599.68	30.54
599.874	30.61
600.069	30.6
600.263	30.69
600.457	30.7
600.651	30.73
600.846	30.75
601.04	30.87
601.234	30.89
601.428	30.96
601.622	31.04
601.817	31.11
602.011	31.12
602.205	31.2
602.399	31.25
602.593	31.18
602.787	31.11
602.981	31.11
603.175	31.1
603.369	31.04
603.563	31.11
603.757	31.26
603.951	31.27
604.145	31.23
604.339	31.27
604.533	31.1
604.727	30.94
604.921	30.94
605.115	30.87
605.309	30.91
605.502	31.02
605.696	31.07
605.89	31.02
606.084	31
606.278	30.85
606.471	30.84
606.665	30.71
606.859	30.7
607.053	30.54
607.246	30.61
607.44	30.51
607.634	30.41
607.827	30.29
608.021	30.34
608.214	30.21
608.408	30.23
608.602	30.28
608.795	30.22
608.989	30.18
609.182	30.07
609.376	29.96
609.569	29.9
609.763	29.85
609.956	29.79
610.15	29.82
610.343	29.83
610.537	29.72
610.73	29.7
610.923	29.66
611.117	29.59
611.31	29.34
611.504	29.34
611.697	29.25
611.89	29.1
612.083	28.97
612.277	28.96
612.47	28.81
612.663	28.69
612.856	28.65
613.05	28.51
613.243	28.44
613.436	28.38
613.629	28.26
613.822	28.14
614.015	28.12
614.209	28.03
614.402	27.96
614.595	27.88
614.788	27.9
614.981	27.83
615.174	27.83
615.367	27.8
615.56	27.8
615.753	27.69
615.946	27.55
616.139	27.47
616.332	27.4
616.525	27.38
616.718	27.27
616.911	27.29
617.103	27.22
617.296	27.07
617.489	26.93
617.682	26.84
617.875	26.75
618.067	26.66
618.26	26.75
618.453	26.76
618.646	26.8
618.838	26.7
619.031	26.67
619.224	26.57
619.417	26.53
619.609	26.48
619.802	26.49
619.994	26.32
620.187	26.21
620.38	26.15
620.572	26.04
620.765	26.02
620.957	25.98
621.15	25.94
621.342	25.9
621.535	25.97
621.727	25.9
621.92	25.95
622.112	25.93
622.305	25.84
622.497	25.81
622.69	25.77
622.882	25.74
623.074	25.76
623.267	25.88
623.459	25.8
623.651	25.83
623.844	25.8
624.036	25.78
624.228	25.71
624.42	25.72
624.613	25.69
624.805	25.66
624.997	25.58
625.189	25.47
625.381	25.45
625.574	25.42
625.766	25.36
625.958	25.34
626.15	25.38
626.342	25.33
626.534	25.25
626.726	25.25
626.918	25.29
627.11	25.21
627.302	25.18
627.494	25.15
627.686	25.16
627.878	25.07
628.07	25.01
628.262	24.95
628.454	24.93
628.646	24.88
628.838	24.88
629.029	24.81
629.221	24.77
629.413	24.69
629.605	24.59
629.797	24.44
629.989	24.51
630.18	24.41
630.372	24.46
630.564	24.46
630.755	24.62
630.947	24.5
631.139	24.43
631.33	24.31
631.522	24.31
631.714	24.11
631.905	24.13
632.097	24.24
632.289	24.29
632.48	24.24
632.672	24.18
632.863	24.12
633.055	24.06
633.246	24.02
633.438	23.97
633.629	23.99
633.821	23.95
634.012	23.99
634.203	23.95
634.395	23.89
634.586	23.96
634.777	23.89
634.969	23.7
635.16	23.71
635.351	23.72
635.543	23.61
635.734	23.76
635.925	23.79
636.117	23.78
636.308	23.82
636.499	23.87
636.69	23.7
636.881	23.8
637.073	23.76
637.264	23.73
637.455	23.62
637.646	23.66
637.837	23.59
638.028	23.61
638.219	23.5
638.41	23.53
638.601	23.47
638.792	23.43
638.983	23.4
639.174	23.44
639.365	23.39
639.556	23.35
639.747	23.27
639.938	23.22
640.129	23.19
640.32	23.25
640.511	23.23
640.701	23.27
640.892	23.21
641.083	23.15
641.274	23.07
641.465	23.05
641.655	23.03
641.846	23.03
642.037	23.05
642.228	23.04
642.418	23.08
642.609	23
642.8	22.92
642.99	22.9
643.181	22.94
643.372	22.82
643.562	22.84
643.753	22.83
643.943	22.78
644.134	22.65
644.324	22.68
644.515	22.64
644.705	22.6
644.896	22.45
645.086	22.42
645.277	22.36
645.467	22.26
645.658	22.16
645.848	22.13
646.038	22.06
646.229	22.05
646.419	22.08
646.61	22.18
646.8	22.22
646.99	22.25
647.18	22.11
647.371	22.06
647.561	21.93
647.751	21.83
647.941	21.77
648.132	21.77
648.322	21.76
648.512	21.8
648.702	21.88
648.892	21.8
649.082	21.76
649.272	21.7
649.462	21.6
649.653	21.57
649.843	21.55
650.033	21.6
650.223	21.64
650.413	21.56
650.603	21.53
650.793	21.5
650.983	21.46
651.172	21.35
651.362	21.25
651.552	21.1
651.742	21.07
651.932	20.9
652.122	20.83
652.312	20.8
652.502	20.71
652.691	20.62
652.881	20.57
653.071	20.51
653.261	20.46
653.45	20.47
653.64	20.33
653.83	20.19
654.019	19.96
654.209	19.87
654.399	19.63
654.588	19.53
654.778	19.46
654.968	19.42
655.157	19.31
655.347	19.22
655.536	18.95
655.726	18.67
655.915	18.45
656.105	18.21
656.294	18.02
656.484	17.94
656.673	17.88
656.863	17.76
657.052	17.72
657.241	17.63
657.431	17.47
657.62	17.25
657.809	17.04
657.999	16.79
658.188	16.52
658.377	16.3
658.567	16.12
658.756	15.97
658.945	15.66
659.134	15.43
659.324	15.23
659.513	15
659.702	14.71
659.891	14.55
660.08	14.4
660.269	14.22
660.458	13.98
660.648	13.86
660.837	13.65
661.026	13.45
661.215	13.29
661.404	13.12
661.593	12.8
661.782	12.57
661.971	12.37
662.16	12.12
662.349	11.96
662.538	11.94
662.726	11.86
662.915	11.75
663.104	11.64
663.293	11.49
663.482	11.23
663.671	11.09
663.86	10.93
664.048	10.86
664.237	10.71
664.426	10.63
664.615	10.45
664.803	10.26
664.992	9.99
665.181	9.85
665.369	9.81
665.558	9.66
665.747	9.63
665.935	9.52
666.124	9.37
666.312	9.16
666.501	9.11
666.69	8.93
666.878	8.86
667.067	8.79
667.255	8.69
667.444	8.63
667.632	8.52
667.82	8.41
668.009	8.28
668.197	8.22
668.386	8.17
668.574	8.24
668.762	8.2
668.951	8.22
669.139	8.15
669.327	8.01
669.516	7.91
669.704	7.93
669.892	7.99
670.08	8
670.269	7.98
670.457	7.92
670.645	7.78
670.833	7.65
671.021	7.63
671.21	7.64
671.398	7.68
671.586	7.76
671.774	7.79
671.962	7.72
672.15	7.79
672.338	7.81
672.526	7.82
672.714	7.75
672.902	7.87
673.09	7.84
673.278	7.88
673.466	7.88
673.654	8
673.842	7.88
674.03	7.88
674.218	7.81
674.405	7.78
674.593	7.8
674.781	7.93
674.969	8
675.157	8.11
675.344	8.28
675.532	8.36
675.72	8.38
675.908	8.54
676.095	8.54
676.283	8.58
676.471	8.56
676.658	8.54
676.846	8.52
677.033	8.67
677.221	8.71
677.409	8.76
677.596	8.85
677.784	8.78
677.971	8.65
678.159	8.75
678.346	8.82
678.534	8.98
678.721	9.16
678.909	9.42
679.096	9.53
679.283	9.71
679.471	9.8
679.658	9.92
679.846	9.92
680.033	10
680.22	10.07
680.408	10.22
680.595	10.36
680.782	10.51
680.969	10.69
681.157	10.8
681.344	10.89
681.531	11.11
681.718	11.29
681.905	11.39
682.093	11.54
682.28	11.66
682.467	11.77
682.654	11.96
682.841	12.14
683.028	12.34
683.215	12.67
683.402	12.82
683.589	13.04
683.776	13.3
683.963	13.66
684.15	13.89
684.337	14.23
684.524	14.57
684.711	14.81
684.898	15.09
685.085	15.22
685.271	15.56
685.458	15.84
685.645	16.43
685.832	16.72
686.019	17.12
686.205	17.43
686.392	17.75
686.579	18.01
686.766	18.41
686.952	19
687.139	19.43
687.326	19.8
687.512	20.28
687.699	20.98
687.886	21.38
688.072	21.86
688.259	22.4
688.445	22.82
688.632	23.27
688.818	23.8
689.005	24.44
689.191	25.06
689.378	25.78
689.564	26.44
689.751	27.09
689.937	27.74
690.124	28.3
690.31	28.85
690.496	29.31
690.683	30.07
690.869	30.67
691.055	31.55
691.242	32.23
691.428	32.75
691.614	33.35
691.8	33.92
691.987	34.55
692.173	35.22
692.359	36.27
692.545	36.97
692.731	37.7
692.918	38.25
693.104	38.95
693.29	39.43
693.476	40.03
693.662	40.9
693.848	41.6
694.034	42.13
694.22	42.72
694.406	43.66
694.592	44.15
694.778	44.94
694.964	45.79
695.15	46.83
695.336	47.39
695.522	48.07
695.708	49.03
695.894	49.56
696.08	50.13
696.265	50.74
696.451	51.39
696.637	51.83
696.823	52.62
697.009	53.11
697.194	53.67
697.38	54.31
697.566	54.88
697.751	55.36
697.937	55.96
698.123	56.72
698.308	57.8
698.494	58.14
698.68	58.94
698.865	59.54
699.051	59.73
699.236	59.81
699.422	60.44
699.607	60.78
699.793	61.26
699.978	62.12
700.164	62.99
700.349	63.79
700.535	64.65
700.72	65.34
700.906	65.55
701.091	65.63
701.276	65.78
701.462	66.1
701.647	66.29
701.832	67.05
702.018	67.64
702.203	68.17
702.388	68.52
702.573	69.04
702.759	69.18
702.944	69.42
703.129	69.86
703.314	70.24
703.499	70.84
703.684	71.32
703.87	71.53
704.055	71.98
704.24	72.07
704.425	72.32
704.61	72.89
704.795	73.36
704.98	73.87
705.165	74.44
705.35	74.62
705.535	74.87
705.72	75.22
705.905	75.06
706.09	75.16
706.275	75.76
706.459	76
706.644	76.13
706.829	76.29
707.014	76.55
707.199	76.63
707.384	76.64
707.568	77.1
707.753	77.75
707.938	77.7
708.123	77.68
708.307	77.89
708.492	78.36
708.677	78.41
708.861	79.01
709.046	79.49
709.231	79.58
709.415	79.86
709.6	79.75
709.784	79.96
709.969	80.04
710.153	80.37
710.338	80.09
710.522	80.41
710.707	80.67
710.891	80.73
711.076	81
711.26	81.35
711.445	81.28
711.629	81.33
711.813	81.43
711.998	81.85
712.182	82.17
712.366	82.33
712.551	82.87
712.735	83.08
712.919	82.79
713.103	82.72
713.288	83.29
713.472	82.58
713.656	82.7
713.84	82.94
714.024	82.82
714.208	82.97
714.393	83.45
714.577	83.43
714.761	83.47
714.945	83.76
715.129	84.05
715.313	84
715.497	84.05
715.681	84.29
715.865	83.97
716.049	83.61
716.233	83.92
716.417	83.91
716.601	83.78
716.785	84.35
716.968	84.37
717.152	84.62
717.336	84.97
717.52	85.38
717.704	85.55
717.888	85.81
718.071	85.56
718.255	85.51
718.439	85.46
718.622	85.29
718.806	85.45
718.99	85.48
719.174	85.85
719.357	85.99
719.541	86.04
719.724	85.97
719.908	86.05
720.092	85.33
720.275	85.18
720.459	85.32
720.642	85.56
720.826	85.97
721.009	86.37
721.193	86.68
721.376	86.62
721.559	86.34
721.743	86.2
721.926	86.37
722.11	86.01
722.293	86.52
722.476	86.51
722.66	86.36
722.843	87.1
723.026	87.22
723.21	86.76
723.393	86.99
723.576	87.42
723.759	86.77
723.942	87.1
724.126	87.02
724.309	87.08
724.492	86.97
724.675	87.38
724.858	87.09
725.041	87.38
725.224	87.7
725.407	87.97
725.59	87.68
725.774	87.87
725.957	87.79
726.14	88.16
726.322	88.2
726.505	88.59
726.688	89.1
726.871	89.56
727.054	89.46
727.237	89.4
727.42	89.68
727.603	89.49
727.786	89.43
727.968	88.9
728.151	88.69
728.334	88.23
728.517	88.23
728.699	87.87
728.882	88.6
729.065	88.33
729.248	88.98
729.43	89.1
729.613	89.76
729.796	89.64
729.978	90.27
730.161	89.85
730.343	89.44
730.526	89.47
730.708	89.09
730.891	88.56
731.073	89.16
731.256	89.48
731.438	89.18
731.621	89.59
731.803	90.08
731.986	89.64
732.168	89.59
732.35	90.33
732.533	90.19
732.715	89.91
732.898	90.24
733.08	90.03
733.262	89.02
733.444	89.73
733.627	90.14
733.809	90.41
733.991	90.46
734.173	91.29
734.355	89.84
734.538	90.08
734.72	89.56
734.902	89.63
735.084	89.31
735.266	89.81
735.448	90.09
735.63	90.07
735.812	90.19
735.994	90.24
736.176	90.73
736.358	91.05
736.54	91.17
736.722	92.34
736.904	92.23
737.086	91.94
737.268	90.78
737.45	91.07
737.632	90.42
737.814	90.03
737.995	89.65
738.177	90.41
738.359	89.53
738.541	89.14
738.723	89.97
738.904	90.72
739.086	91.28
739.268	92.65
739.449	93.54
739.631	93.7
739.813	93.85
739.994	93.24
740.176	92.53
740.358	92.6
740.539	92.22
740.721	91.33
740.902	91.79
741.084	92.31
741.265	92.15
741.447	92.12
741.628	92.47
741.81	92.11
741.991	92.27
742.172	91.86
742.354	91.85
742.535	92.73
742.717	92.69
742.898	92.2
743.079	92.39
743.261	92.76
743.442	92.36
743.623	92.58
743.804	92.5
743.986	92.58
744.167	92.89
744.348	93.6
744.529	93.13
744.71	92.78
744.891	93.41
745.073	93.89
745.254	93.43
745.435	93.23
745.616	93.16
745.797	92.21
745.978	91.22
746.159	91.69
746.34	92.44
746.521	92.82
746.702	92.54
746.883	93.05
747.064	92.49
747.245	92.5
747.426	92.2
747.606	92.63
747.787	92.4
747.968	92.29
748.149	91.66
748.33	92.71
748.51	93.02
748.691	93.24
748.872	92.6
749.053	92.76
749.233	91.96
749.414	91.07
749.595	90.78
749.775	91.62
749.956	90.95
750.137	90.85
750.317	91.26
750.498	91.66
750.678	91.21
750.859	91.78
751.04	92.56
751.22	93.77
751.4	93.42
751.581	93.61
751.761	94.65
751.942	95.01
752.122	93.96
752.303	93.79
752.483	94.77
752.663	94.77
752.844	95
753.024	95.26
753.204	95.65
753.385	94.61
753.565	93.07
753.745	92.87
753.925	93.09
754.106	93.55
754.286	93.48
754.466	93.98
754.646	93.01
754.826	93.11
755.006	91.51
755.187	91.67
755.367	91.78
755.547	92.8
755.727	92.39
755.907	93.5
756.087	92.35
756.267	92.62
756.447	91.79
756.627	91.55
756.807	90.68
756.987	92.08
757.167	91.69
757.346	91.99
757.526	90.75
757.706	91.81
757.886	91.54
758.066	91.61
758.246	91.87
758.425	92.83
758.605	91.67
758.785	91.25
758.965	92.17
759.144	91.27
759.324	91.01
759.504	92.4
759.683	92.97
759.863	91.79
760.043	91.57
760.222	92.17
760.402	91.46
760.581	90.36
760.761	90.56
760.94	90.49
761.12	89.98
761.299	90.42
761.479	92.06
761.658	91.39
761.838	91.67
762.017	92.34
762.197	90.04
762.376	89.37
762.555	89.94
762.735	90.11
762.914	90.15
763.093	92.11
763.273	91.38
763.452	91.19
763.631	91.19
763.81	91.08
763.99	91.68
764.169	92.11
764.348	91.32
764.527	90.91
764.706	90.79
764.885	90.91
765.064	90.46
765.243	92.2
765.423	93.17
765.602	93.94
765.781	93.15
765.96	93.03
766.139	92.83
766.318	92.58
766.497	91.16
766.676	91.94
766.854	92.22
767.033	92.74
767.212	93.01
767.391	93.29
767.57	91.24
767.749	92.62
767.928	89.62
768.106	88.08
768.285	87.65
768.464	88.31
768.643	86.9
768.821	88.75
769	90.38
769.179	90.32
769.357	90.33
769.536	90.73
769.715	90.62
769.893	90.66
770.072	90.72
770.25	90.54
770.429	90.76
770.607	91.23
770.786	89.27
770.964	89.57
771.143	91.16
771.321	89.34
771.5	89.47
771.678	88.53
771.857	89.08
772.035	86.59
772.213	87.85
772.392	86.01
772.57	89.4
772.748	89.4
772.927	90.59
773.105	92.53
773.283	93.54
773.461	92.66
773.64	91.31
773.818	91.58
773.996	89.56
774.174	88.09
774.352	85.18
774.531	85.69
774.709	86.02
774.887	86.46
775.065	88.99
775.243	90.13
775.421	90
775.599	88.91
775.777	88.56
775.955	85.61
776.133	85.97
776.311	87.66
776.489	87.65
776.667	87.47
776.844	90.9
777.022	91.78
777.2	92.01
777.378	92.83
777.556	93.32
777.734	91
777.911	90.88
778.089	90.06
778.267	89.16
778.445	90.67
778.622	91.03
778.8	90.83
778.978	89.73
779.155	92.36
779.333	90
779.511	91.28
779.688	90.9
779.866	92.92
780.043	90.53
780.221	91.59
780.398	91.55
780.576	91.66
780.753	90.35
780.931	92.43
781.108	92.76
781.286	91.19
781.463	90.9
781.64	88.96
781.818	86.97
781.995	84.48
782.172	84.9
782.35	83.64
782.527	83.45
782.704	81.9
782.882	82.81
783.059	82.3
783.236	84.41
783.413	84.49
783.59	88.43
783.768	89.26
783.945	87.55
784.122	86.77
784.299	88.03
784.476	84.55
784.653	85.38
784.83	88.18
785.007	87.18
785.184	86.72
785.361	86.63
785.538	85.56
785.715	85.44
785.892	87.64
786.069	85.44
786.246	88.66
786.423	89.13
786.6	89.32
786.776	89.13
786.953	93.03
787.13	90.24
787.307	88.13
787.484	86.88
787.66	84.32
787.837	82.74
788.014	84.02
788.191	83.17
788.367	82.46
788.544	83.69
788.721	82.38
788.897	79.25
789.074	77.21
789.25	78.07
789.427	77.22
789.603	80.47
789.78	82.63
789.956	85.98
790.133	84.83
790.309	86.64
790.486	84.13
790.662	82.93
790.839	82.52
791.015	82.48
791.192	82.15
791.368	82.65
791.544	85.54
791.721	86.77
791.897	86.22
792.073	83.87
792.249	86.66
792.426	83.52
792.602	81.72
792.778	81.35
792.954	83.3
793.13	81.71
793.307	82.64
793.483	85.44
793.659	89.03
793.835	90.28
794.011	88.88
794.187	88.87
794.363	83.25
794.539	81.51
794.715	84.31
794.891	83.79
795.067	83.4
795.243	89.7
795.419	87.98
795.595	86.1
795.771	87.34
795.947	92.68
796.122	88.82
796.298	92.89
796.474	91.14
796.65	90.66
796.826	87.14
797.001	87.78
797.177	81.37
797.353	80.31
797.529	80.42
797.704	80.58
797.88	86.16
798.056	91.38
798.231	94.01
798.407	98.19
798.582	98.04
798.758	92.54
798.934	92.82
799.109	93.69
799.285	88.13
799.46	90.05
799.636	89.97
799.811	88.54
799.986	82
800.162	80.39
800.337	78.19
800.513	75.37
800.688	75.21
800.863	77.67
801.039	80.82
801.214	77.33
801.389	82.18
801.565	81.36
801.74	82.04
801.915	82.06
802.09	84.27
802.265	82.2
802.441	82.58
802.616	81.23
802.791	83.11
802.966	80.95
803.141	79.63
803.316	78.16
803.491	83.29
803.666	79.11
803.841	78.74
804.016	80.01
804.191	81.88
804.366	77.05
804.541	75.22
804.716	80.43
804.891	81.9
805.066	85.11
805.241	82.07
805.416	82.9
805.591	76.7
805.765	71.15
805.94	70.75
806.115	75.79
806.29	75.46
806.464	87.15
806.639	92.49
806.814	87.67
806.989	87.72
807.163	88.76
807.338	80.92
807.512	78.44
807.687	81.68
807.862	81.81
808.036	81.98
808.211	83.08
808.385	84.74
808.56	82.13
808.734	83.45
808.909	83.98
809.083	85.57
809.258	83.44
809.432	84.06
809.606	75.34
809.781	79.06
809.955	77.28
810.13	85.79
810.304	83.21
810.478	85.53
810.652	76.28
810.827	83.66
811.001	75.96
811.175	77.37
811.349	79.08
811.524	83.42
811.698	78.53
811.872	78.81
812.046	85.6
812.22	94.11
812.394	96.43
812.568	101.61
812.742	97.74
812.916	88.8
813.09	78.61
813.264	79.02
813.438	71.07
813.612	74.65
813.786	77.78
813.96	83.08
814.134	84.46
814.308	84.04
814.482	72.64
814.656	74.85
814.83	76.6
815.003	71.91
815.177	75.51
815.351	81.5
815.525	78.94
815.698	78.01
815.872	86.24
816.046	91.87
816.219	93.85
816.393	96.08
816.567	99.19
816.74	91.68
816.914	86.23
817.088	92.47
817.261	84
817.435	77.35
817.608	79.72
817.782	75.97
817.955	75.22
818.129	81.6
818.302	93.95
818.475	86.51
818.649	87.8
818.822	78.87
818.996	72.97
819.169	65.05
819.342	67.14
819.516	68.55
819.689	74.44
819.862	77.94
820.035	76.03
820.209	75.4
820.382	76.11
820.555	79.29
820.728	79.33
820.901	80.73
821.075	79.75
821.248	75.3
821.421	74.69
821.594	71.94
821.767	75.64
821.94	75.22
822.113	85.26
822.286	87.51
822.459	89.76
822.632	80.73
822.805	77.96
822.978	64.97
823.151	56.72
823.324	61.28
823.496	63.14
823.669	68.75
823.842	73.78
824.015	75.16
824.188	74.76
824.361	79.77
824.533	73.98
824.706	72.41
824.879	70.33
825.051	70.48
825.224	72.11
825.397	77.55
825.569	80.44
825.742	87.67
825.915	101.56
826.087	95.59
826.26	90.77
826.432	84.64
826.605	89.53
826.777	77.77
826.95	77.33
827.122	79.81
827.295	79.92
827.467	75.09
827.64	67.05
827.812	76.6
827.984	84.29
828.157	91.25
828.329	82.15
828.501	80.91
828.674	77.92
828.846	72.88
829.018	73.27
829.19	68.25
829.363	72.21
829.535	60.22
829.707	55.6
829.879	51.9
830.051	66.76
830.223	59.5
830.395	65.78
830.568	63.76
830.74	69.29
830.912	70.43
831.084	74.27
831.256	64.63
831.428	66.67
831.6	64.42
831.772	66.7
831.943	73.13
832.115	83.21
832.287	90.93
832.459	78.07
832.631	73.67
832.803	72.48
832.975	74.33
833.146	68.15
833.318	77.64
833.49	91.88
833.662	94.47
833.833	95.81
834.005	83.5
834.177	72.85
834.348	55.28
834.52	46.28
834.692	46.39
834.863	56.93
835.035	62.12
835.206	59.12
835.378	66.19
835.549	70.31
835.721	73.47
835.892	70.94
836.064	80.18
836.235	77.45
836.407	87.99
836.578	81.11
836.749	94.72
836.921	83.18
837.092	82.22
837.264	63.47
837.435	60.13
837.606	57.24
837.777	68.75
837.949	71.05
838.12	72.59
838.291	67.37
838.462	63.01
838.633	59.79
838.805	59.89
838.976	66.43
839.147	74.12
839.318	78.38
839.489	75.8
839.66	77.13
839.831	73.85
840.002	71.82
840.173	64.79
840.344	63.25
840.515	52.2
840.686	43.69
840.857	37.62
841.028	40.28
841.199	42.09
841.369	65.4
841.54	71.27
841.711	84.89
841.882	69.05
842.053	71.68
842.223	60.81
842.394	67.96
842.565	56.96
842.736	105.94
842.906	127.84
843.077	130.07
843.248	110.49
843.418	113.93
843.589	83.43
843.759	67.28
843.93	54.5
844.101	45.5
844.271	45.39
844.442	46.7
844.612	52.65
844.783	51.44
844.953	48.73
845.123	51.43
845.294	67.8
845.464	71.98
845.635	88.47
845.805	87.25
845.975	81.57
846.146	54.72
846.316	53.74
846.486	54.77
846.656	68.05
846.827	63.06
846.997	83.61
847.167	78.87
847.337	81.95
847.507	77.96
847.677	76.12
847.848	69.07
848.018	70.92
848.188	69.74
848.358	70.87
848.528	77.32
848.698	74.74
848.868	65.51
849.038	56.88
849.208	61.23
849.378	62.03
849.548	56.14
849.718	59.2
849.887	64.45
850.057	65.79
850.227	57.9
850.397	62.54
850.567	62.11
850.737	41.25
850.906	12.83
851.076	33.23
851.246	42.4
851.415	35.68
851.585	64.1
851.755	66.09
851.924	52.3
852.094	27.52
852.264	36.25
852.433	38.73
852.603	32.78
852.772	34.16
852.942	41.31
853.111	42.16
853.281	44.7
853.45	51.28
853.62	51.96
853.789	61.67
853.959	73.85
854.128	59.19
854.297	70.93
854.467	81.34
854.636	69.05
854.805	68.56
854.975	71.28
855.144	58.89
855.313	55.89
855.482	59.33
855.652	21.44
855.821	35.52
855.99	46.43
856.159	57.38
856.328	56.51
856.497	75.96
856.667	75.29
856.836	66.43
857.005	34.01
857.174	43.98
857.343	44.65
857.512	32.22
857.681	32.82
857.85	66.92
858.019	59.66
858.188	62.97
858.356	52.29
858.525	42.1
858.694	22.48
858.863	35.87
859.032	50.46
859.201	54.29
859.369	66.17
859.538	70.19
859.707	58.87
859.876	42.77
860.044	52.81
860.213	64.67
860.382	33.65
860.55	44.26
860.719	35.8
860.888	30.27
861.056	18.45
861.225	32.44
861.393	19.99
861.562	19.84
861.73	17.23
861.899	20.62
862.067	41.78
862.236	38.92
862.404	39.55
862.572	42.94
862.741	44.7
862.909	35.09
863.078	29.67
863.246	30.89
863.414	30.09
863.582	28.92
863.751	29.58
863.919	55.73
864.087	79.21
864.255	104.93
864.424	111.84
864.592	116.97
864.76	139.08
864.928	208.38
865.096	145.11
865.264	172.91
865.432	200.26
865.6	137.93
865.768	75.98
865.936	77.16
866.104	93.74
866.272	82.92
866.44	30.88
866.608	24.59
866.776	18.45
866.944	2.54
867.112	4.2
867.28	45.95
867.448	121.01
867.615	100.9
867.783	104.09
867.951	144.53
868.119	134.48
868.286	95.09
868.454	91.06
868.622	63.54
868.789	37.61
868.957	62.12
869.125	59.33
869.292	46.47
869.46	70.07
869.627	82.23
869.795	51.34
869.963	48.35
870.13	69.22
870.298	63.67
870.465	95.56
870.632	99.69
870.8	102.14
870.967	75.39
871.135	70.96
871.302	43.26
871.469	16.03
871.637	-1.71
871.804	-46.4
871.971	15.87
872.139	81
872.306	69.12
872.473	72.63
872.64	72.77
872.807	64.97
872.975	58.78
873.142	42.46
873.309	64.93
873.476	52.99
873.643	53.17
873.81	27.51
873.977	89.21
874.144	45.86
874.311	39.39
874.478	44.68
874.645	40.93
874.812	22.5
874.979	40.64
875.146	52.8
875.313	52.34
875.48	59.12
875.647	49.68
875.813	25.73
875.98	14.66
876.147	32.54
876.314	26.15
876.481	34.88
876.647	72.5
876.814	77.98
876.981	79.22
877.147	74.83
877.314	77.91
877.481	104.16
877.647	149.76
877.814	135.78
877.98	102.89
878.147	123.95
878.314	84.31
878.48	85.19
878.647	84.37
878.813	85.36
878.979	37.53
879.146	7.65
879.312	5.53
879.479	9.43
879.645	40.17
879.811	59.4
879.978	91.6
880.144	52.29
880.31	35.11
880.477	24.65
880.643	39.64
880.809	35.81
880.975	78.16
881.142	111.63
881.308	110.49
881.474	118.7
881.64	104.69
881.806	66.81
881.972	79.1
882.138	94.47
882.304	148.09
882.47	150.6
882.636	503.15
882.802	443.18
882.968	567.08
883.134	96.49
883.3	160.03
883.466	114.7
883.632	134.26
883.798	155.32
883.964	133.78
884.129	115.75
884.295	98.45
884.461	65.76
884.627	69.4
884.793	66.25
884.958	98.78
885.124	113.09
885.29	116.92
885.455	88.51
885.621	85.91
885.787	48.59
885.952	32.14
886.118	11.12
886.283	13.11
886.449	19.07
886.614	8.47
886.78	3.04
886.945	26.81
887.111	20.26
887.276	29.25
887.442	30.12
887.607	37.47
887.773	39.2
887.938	53.42
888.103	39.13
888.269	61.56
888.434	73.47
888.599	78.57
888.764	68.6
888.93	88.47
889.095	107.45
889.26	84.99
889.425	53.45
889.59	69.58
889.756	59.56
889.921	38.83
890.086	41.83
890.251	57.53
890.416	62.03
890.581	51.92
890.746	59.67
890.911	67.44
891.076	48.54
891.241	30.81
891.406	32.68
891.571	-2.69
891.736	33.54
891.901	39.6
892.065	43.01
892.23	133.6
892.395	98.54
892.56	50.07
892.725	87.33
892.889	74.74
893.054	43.41
893.219	44.09
893.384	64.17
893.548	34
893.713	41.93
893.878	5.17
