Data from Ofra_PS_Phys_0GT1_Reflection_3.txt Node
Date: Tue Jul 20 14:46:10 EDT 2021
User: USUARIO
Spectrometer: FLMT01687
Trigger mode: 0
Integration Time (sec): 1.200000E0
Scans to average: 2
Electric dark correction enabled: true
Nonlinearity correction enabled: false
Boxcar width: 2
XAxis mode: Wavelengths
Number of Pixels in Spectrum: 3648
>>>>>Begin Spectral Data<<<<<
179.494	181.08
179.716	959.09
179.937	-1170.77
180.158	-76.83
180.38	2.03
180.601	64.75
180.823	453.09
181.044	637.59
181.265	-658.56
181.486	-463.22
181.708	210.11
181.929	-0.58
182.15	316.99
182.372	-2441.46
182.593	462.87
182.814	-13620
183.035	-260.58
183.257	1.69
183.478	71.55
183.699	56.84
183.92	74.58
184.141	81.89
184.363	52.57
184.584	38.89
184.805	30.72
185.026	34.48
185.247	18.46
185.468	24.02
185.689	35.54
185.91	36.52
186.132	41.28
186.353	50.51
186.574	64.62
186.795	41.68
187.016	48.54
187.237	38.59
187.458	25.18
187.679	9.53
187.9	29.8
188.121	7.04
188.342	-0.9
188.563	26.76
188.784	39.64
189.005	34.33
189.226	39.45
189.447	65.44
189.667	49.91
189.888	48.58
190.109	47
190.33	58.53
190.551	57.9
190.772	44.55
190.993	33.45
191.214	20.85
191.434	4.01
191.655	-5.31
191.876	-5.37
192.097	1.35
192.318	11.56
192.538	25.77
192.759	12.15
192.98	36.81
193.201	28.39
193.421	23.69
193.642	25.13
193.863	38.88
194.083	39.91
194.304	39.98
194.525	40.13
194.745	51.72
194.966	50.59
195.187	34.77
195.407	29.24
195.628	29.63
195.848	9.23
196.069	6.34
196.29	7.74
196.51	33.99
196.731	34.48
196.951	26.33
197.172	36.02
197.392	41.12
197.613	25.5
197.833	29.12
198.054	39.6
198.274	36.41
198.495	32.47
198.715	20.02
198.936	8.4
199.156	-10.81
199.377	-147.17
199.597	-171.72
199.817	-86.46
200.038	-57.78
200.258	-34.52
200.479	14.87
200.699	10.3
200.919	21.88
201.14	16.85
201.36	17.96
201.58	20.23
201.801	25.81
202.021	4.67
202.241	19.81
202.461	14.97
202.682	2.46
202.902	11.12
203.122	16.9
203.342	15.59
203.563	17.82
203.783	31.61
204.003	41.33
204.223	55.58
204.443	60.56
204.663	57.82
204.884	62.71
205.104	41.52
205.324	34
205.544	45.82
205.764	53.94
205.984	62.05
206.204	50.24
206.424	48.78
206.644	14.09
206.864	4.84
207.084	-2.99
207.304	18.04
207.525	17.91
207.745	45.84
207.964	44.35
208.184	51.81
208.404	39.13
208.624	41.42
208.844	24.72
209.064	26.85
209.284	5.25
209.504	13.93
209.724	10.52
209.944	19.36
210.164	21.38
210.384	35.41
210.604	27.7
210.823	22.17
211.043	15.44
211.263	0.84
211.483	-2.06
211.703	14.82
211.922	33.67
212.142	46.6
212.362	41.09
212.582	35.97
212.801	45.39
213.021	26.02
213.241	28.08
213.461	25.23
213.68	17.21
213.9	24.27
214.12	33.56
214.339	13.78
214.559	24.87
214.779	39.43
214.998	23.19
215.218	12.54
215.438	35.1
215.657	32.81
215.877	22.09
216.096	35.04
216.316	36.93
216.535	17.75
216.755	29.34
216.974	28.22
217.194	28.77
217.413	34.87
217.633	43.3
217.852	47.07
218.072	49.06
218.291	56.76
218.511	36.73
218.73	13.34
218.95	20.32
219.169	17.67
219.389	-2.26
219.608	6.79
219.827	29.59
220.047	14.46
220.266	15.92
220.485	33.41
220.705	50.24
220.924	54.04
221.143	52.36
221.363	39.17
221.582	30.88
221.801	17.89
222.021	24.19
222.24	20.46
222.459	32.26
222.678	35.67
222.897	31.48
223.117	21.34
223.336	29.67
223.555	20.65
223.774	23.65
223.993	30.8
224.213	34.72
224.432	43.33
224.651	54.06
224.87	46.71
225.089	40.1
225.308	38.45
225.527	24.15
225.746	9.56
225.965	13.85
226.184	20.12
226.404	10.99
226.623	14.72
226.842	21.04
227.061	9.87
227.28	29.45
227.499	37.64
227.718	52.4
227.936	49.54
228.155	67.3
228.374	48.7
228.593	47.48
228.812	45.04
229.031	40.98
229.25	17.9
229.469	19.55
229.688	18.97
229.907	14.29
230.125	9.17
230.344	22.01
230.563	16.62
230.782	-4.45
231.001	0.17
231.22	16.9
231.438	25.22
231.657	42.84
231.876	52.06
232.095	42.05
232.313	43.32
232.532	45.68
232.751	41.35
232.969	43.97
233.188	51.26
233.407	54.03
233.625	26.14
233.844	26.21
234.063	26.4
234.281	23.25
234.5	19.13
234.719	31.21
234.937	36.86
235.156	41
235.374	38.54
235.593	39.95
235.811	31.92
236.03	30.31
236.249	24.7
236.467	24.47
236.686	27.87
236.904	39.18
237.123	36.38
237.341	35.61
237.559	41.22
237.778	41.63
237.996	49.41
238.215	64.06
238.433	52.61
238.652	42.77
238.87	34.75
239.088	30.86
239.307	21.23
239.525	29.45
239.743	40.74
239.962	32.85
240.18	27.76
240.398	22.6
240.617	30.67
240.835	38.51
241.053	61.09
241.271	61.59
241.49	58
241.708	57.78
241.926	57.3
242.144	33.87
242.363	39.03
242.581	40.52
242.799	24.56
243.017	2.48
243.235	22.47
243.453	24.64
243.672	32.22
243.89	30.78
244.108	50.55
244.326	41.58
244.544	28.53
244.762	7.95
244.98	4.1
245.198	-3.24
245.416	16.88
245.634	19.57
245.852	37.91
246.07	54.99
246.288	65.11
246.506	45.3
246.724	47.76
246.942	32.81
247.16	33.92
247.378	27.01
247.596	27.48
247.814	31.38
248.032	33.19
248.25	15.21
248.468	12.9
248.685	19.84
248.903	33.07
249.121	40.12
249.339	53.02
249.557	57.46
249.775	47.57
249.992	36.65
250.21	19.67
250.428	18.03
250.646	14.7
250.863	26.52
251.081	21.9
251.299	31.3
251.517	34.3
251.734	40.01
251.952	30.51
252.17	35.47
252.387	38.39
252.605	29.69
252.823	14.13
253.04	17.8
253.258	16.17
253.475	19.22
253.693	27.77
253.911	28.79
254.128	31.63
254.346	27.37
254.563	12.08
254.781	6.52
254.998	24.64
255.216	30.07
255.433	43.03
255.651	55.26
255.868	59.84
256.086	42.25
256.303	39.22
256.521	37.81
256.738	30.68
256.956	15.51
257.173	18.89
257.39	25.29
257.608	19.5
257.825	14.26
258.043	19.02
258.26	29.56
258.477	22.6
258.695	-8.12
258.912	11.7
259.129	19.75
259.346	9.35
259.564	7.11
259.781	4.83
259.998	26.87
260.216	29.67
260.433	33.87
260.65	41.65
260.867	53.78
261.084	28.64
261.302	29.98
261.519	20.59
261.736	15.33
261.953	27.12
262.17	42.33
262.387	43.78
262.604	52.22
262.822	60.77
263.039	49.72
263.256	42.95
263.473	39.41
263.69	34.43
263.907	27.68
264.124	29.89
264.341	33.19
264.558	34.53
264.775	36.73
264.992	26.09
265.209	20.06
265.426	34.18
265.643	17.38
265.86	9.23
266.077	32.68
266.294	28.16
266.51	17.89
266.727	27.46
266.944	22.38
267.161	17.6
267.378	20.08
267.595	12.77
267.812	14.39
268.028	26.8
268.245	28.37
268.462	29.14
268.679	19.36
268.896	17.98
269.112	24.48
269.329	18.69
269.546	12.35
269.763	20.88
269.979	22.62
270.196	16.88
270.413	32.95
270.629	40.36
270.846	45.25
271.063	39.19
271.279	27.03
271.496	3.23
271.712	13.82
271.929	9.8
272.146	24.99
272.362	25.68
272.579	23.19
272.795	18.89
273.012	14.87
273.228	6.26
273.445	16.63
273.661	27.75
273.878	16.47
274.094	29.14
274.311	27.39
274.527	28.78
274.744	18.45
274.96	34.55
275.177	10.1
275.393	8.33
275.609	-13.39
275.826	9.51
276.042	-3.9
276.259	-0.81
276.475	0.26
276.691	16.29
276.908	5.41
277.124	24.63
277.34	29.21
277.557	37.27
277.773	36.92
277.989	43.44
278.205	39.19
278.422	31.1
278.638	28.49
278.854	32.11
279.07	26.24
279.286	16.9
279.503	28.16
279.719	27.63
279.935	18.59
280.151	24.87
280.367	31.43
280.583	33.66
280.799	34.15
281.016	42.12
281.232	39.92
281.448	38.38
281.664	40.72
281.88	38.98
282.096	26.24
282.312	13.46
282.528	20.82
282.744	19.41
282.96	16.76
283.176	15.79
283.392	23.74
283.608	11.03
283.824	9.79
284.04	5.5
284.256	6.64
284.471	0.89
284.687	-3.03
284.903	-9.21
285.119	1.14
285.335	21.57
285.551	29.15
285.767	27.59
285.982	32.57
286.198	24.57
286.414	9.39
286.63	14.66
286.846	14.27
287.061	11.51
287.277	12.92
287.493	20.7
287.709	14.82
287.924	28.41
288.14	40.61
288.356	35.62
288.571	37.83
288.787	34.18
289.003	37.02
289.218	32.74
289.434	26.05
289.65	16.67
289.865	7.94
290.081	11.95
290.296	7.76
290.512	8.72
290.727	-3.07
290.943	-0.37
291.159	-13.55
291.374	-7.34
291.59	-5.61
291.805	10.45
292.021	23.35
292.236	32.08
292.451	35.6
292.667	42.03
292.882	40.42
293.098	26.78
293.313	32.93
293.529	26.81
293.744	16.39
293.959	12.4
294.175	25.98
294.39	9.22
294.605	21.62
294.821	26.82
295.036	31.54
295.251	28.28
295.467	41.29
295.682	31.99
295.897	31.84
296.112	32.37
296.328	35.46
296.543	29.86
296.758	29.26
296.973	23.58
297.188	23.15
297.404	28.4
297.619	23.89
297.834	26.38
298.049	27.62
298.264	30.64
298.479	27.59
298.694	22.9
298.909	11.9
299.125	33.97
299.34	27.35
299.555	31.02
299.77	57.82
299.985	43.15
300.2	40.22
300.415	39.77
300.63	31.48
300.845	15.11
301.06	24.31
301.275	7.92
301.49	-1.66
301.704	3
301.919	3.77
302.134	10.51
302.349	9.31
302.564	17.76
302.779	25.67
302.994	35.32
303.209	47.91
303.423	62.43
303.638	69.07
303.853	59.31
304.068	36.59
304.283	25.77
304.497	16.32
304.712	10.67
304.927	18.14
305.142	24.1
305.356	13.7
305.571	23.16
305.786	32.65
306	25.5
306.215	36.57
306.43	50.6
306.644	53.79
306.859	44.4
307.074	38.9
307.288	34.12
307.503	20.26
307.717	24.72
307.932	22.7
308.147	31.61
308.361	40.84
308.576	49.31
308.79	39.79
309.005	47.55
309.219	39.02
309.434	38.79
309.648	37.7
309.863	36.97
310.077	21.99
310.292	18.42
310.506	12.61
310.72	29.33
310.935	39.07
311.149	25.23
311.364	46.99
311.578	46.75
311.792	23.83
312.007	19.69
312.221	25.58
312.435	21.27
312.649	16.04
312.864	36.88
313.078	50.02
313.292	56.04
313.507	56.76
313.721	76.84
313.935	42.69
314.149	33.16
314.363	25.53
314.578	30.74
314.792	23.3
315.006	17.81
315.22	5.64
315.434	16.62
315.648	10.19
315.862	5.57
316.077	8.62
316.291	21.56
316.505	13.75
316.719	6.88
316.933	13.68
317.147	12.76
317.361	11.27
317.575	8.94
317.789	13.96
318.003	11.93
318.217	11.12
318.431	3.86
318.645	12.43
318.859	12.02
319.073	11.25
319.287	10.91
319.5	11
319.714	19.39
319.928	17.25
320.142	16.35
320.356	15.99
320.57	20.49
320.784	8.89
320.997	16.24
321.211	17.81
321.425	24.09
321.639	16.06
321.853	35.54
322.066	28.47
322.28	8.5
322.494	13.16
322.707	26.54
322.921	19.96
323.135	19.55
323.349	21.44
323.562	12.68
323.776	6.8
323.989	10.52
324.203	10.23
324.417	14.35
324.63	20.01
324.844	33.46
325.057	28.06
325.271	32.22
325.485	35.06
325.698	31.86
325.912	18.56
326.125	21.63
326.339	22.72
326.552	24.07
326.766	21.22
326.979	27.29
327.193	21.6
327.406	22.62
327.619	16.58
327.833	40.31
328.046	29.33
328.26	21.18
328.473	17.57
328.686	24.12
328.9	16.89
329.113	30.89
329.326	41.87
329.54	39.88
329.753	39.02
329.966	40.74
330.179	36.55
330.393	41.67
330.606	35.09
330.819	29.31
331.032	22.8
331.246	19.65
331.459	21.81
331.672	27.79
331.885	34.02
332.098	36.48
332.311	43.38
332.525	26.26
332.738	36.63
332.951	37.01
333.164	27.78
333.377	25.67
333.59	35.37
333.803	28.01
334.016	20.69
334.229	40.88
334.442	32.14
334.655	27.4
334.868	39.57
335.081	46.04
335.294	39.77
335.507	45.33
335.72	47.3
335.933	32.37
336.146	23.65
336.359	23.27
336.572	23.25
336.785	5.75
336.997	10.41
337.21	0.96
337.423	-0.53
337.636	-10.86
337.849	1.09
338.062	-3.96
338.274	23.26
338.487	29.03
338.7	30.37
338.913	29.66
339.125	32.89
339.338	25.39
339.551	23.8
339.763	28.43
339.976	45.3
340.189	38.22
340.402	32.96
340.614	32.83
340.827	27.37
341.039	13.06
341.252	23.51
341.465	26.07
341.677	18.36
341.89	19.15
342.102	19.85
342.315	30.28
342.527	30.61
342.74	32.36
342.952	41.44
343.165	39.4
343.377	25.61
343.59	15.85
343.802	16.28
344.015	20.64
344.227	23.44
344.44	28.66
344.652	36.1
344.864	34.82
345.077	23.02
345.289	32.52
345.502	24.05
345.714	10.02
345.926	4.26
346.139	10.69
346.351	1.13
346.563	12.82
346.775	31.14
346.988	31.56
347.2	25.59
347.412	26.02
347.624	27.13
347.837	22.56
348.049	22.35
348.261	12.29
348.473	20.4
348.685	13.12
348.897	4.88
349.11	-4.47
349.322	4.78
349.534	-3.48
349.746	1.82
349.958	12.26
350.17	30.44
350.382	28.58
350.594	31.74
350.806	25.38
351.018	26.76
351.23	18.87
351.442	7.42
351.654	3.36
351.866	11.18
352.078	17.12
352.29	25.47
352.502	47.33
352.714	40.58
352.926	43.21
353.138	37.05
353.35	32.49
353.561	26.39
353.773	28.75
353.985	15.89
354.197	4.79
354.409	-2.82
354.621	-3.16
354.832	-4.65
355.044	3.84
355.256	4.78
355.468	12.55
355.679	6.37
355.891	3.71
356.103	17.08
356.314	18.95
356.526	17.43
356.738	30.6
356.949	33.81
357.161	27.74
357.373	29.4
357.584	31.86
357.796	30.57
358.008	24.03
358.219	25.62
358.431	28.45
358.642	32.23
358.854	29.98
359.065	42.9
359.277	35.98
359.488	40.36
359.7	37.17
359.911	31.55
360.123	28.78
360.334	34.44
360.546	26.25
360.757	31.22
360.969	24.83
361.18	32.08
361.391	31.97
361.603	33.61
361.814	18.2
362.025	27.32
362.237	18.77
362.448	11.92
362.659	3.96
362.871	10.34
363.082	6.37
363.293	8.32
363.504	0.11
363.716	10.45
363.927	12.38
364.138	13.84
364.349	24.55
364.56	22.93
364.772	20.67
364.983	25.23
365.194	25.54
365.405	14.03
365.616	22.98
365.827	24.58
366.038	22.07
366.25	15.87
366.461	24.66
366.672	30.41
366.883	28.83
367.094	31.43
367.305	35.63
367.516	26.79
367.727	14.99
367.938	14.29
368.149	12.32
368.36	16.07
368.571	18.35
368.781	23.13
368.992	16.75
369.203	8.06
369.414	1.87
369.625	12.32
369.836	11.4
370.047	19.6
370.258	29.61
370.468	27.36
370.679	21.49
370.89	20.62
371.101	16.5
371.312	6.12
371.522	14.19
371.733	14.09
371.944	15.12
372.155	28.51
372.365	35.02
372.576	34.02
372.787	29.05
372.997	30.44
373.208	23.96
373.419	30.27
373.629	16.15
373.84	19.1
374.05	15.09
374.261	14.32
374.472	10.8
374.682	23.63
374.893	23.71
375.103	27.7
375.314	24.62
375.524	19.88
375.735	17.79
375.945	23.96
376.156	25.41
376.366	24.23
376.577	27.66
376.787	33.25
376.997	28.66
377.208	24.5
377.418	27.13
377.629	30.26
377.839	23.32
378.049	20.21
378.26	19.43
378.47	13.75
378.68	9.53
378.89	3.1
379.101	2.75
379.311	8.44
379.521	12.28
379.732	7.23
379.942	2.54
380.152	2.4
380.362	-6.87
380.572	-3.77
380.783	-0.64
380.993	21.74
381.203	22.28
381.413	33.31
381.623	32.36
381.833	38.55
382.043	28.81
382.253	21.42
382.463	15.26
382.674	16.44
382.884	10.38
383.094	15.19
383.304	24.55
383.514	24.53
383.724	25.39
383.934	27.43
384.144	24.07
384.353	21.16
384.563	18.27
384.773	15.88
384.983	20.06
385.193	20.44
385.403	20.67
385.613	18.88
385.823	12.63
386.033	5.84
386.242	3.14
386.452	3.59
386.662	4.93
386.872	16.81
387.082	15.52
387.291	14.61
387.501	14.94
387.711	13.49
387.921	11.15
388.13	11.38
388.34	14.18
388.55	14.94
388.759	14.53
388.969	10.5
389.179	11.13
389.388	11.49
389.598	8.7
389.807	14.55
390.017	14.2
390.227	11.24
390.436	7.83
390.646	9.31
390.855	4.98
391.065	4.98
391.274	6.97
391.484	7.53
391.693	4.95
391.903	5.09
392.112	4.92
392.322	6.09
392.531	6.44
392.74	9.08
392.95	9.78
393.159	8.44
393.369	6.94
393.578	6.79
393.787	4.51
393.997	4.07
394.206	5.8
394.415	6.81
394.625	6.21
394.834	5.97
395.043	4.9
395.252	3.93
395.462	4.21
395.671	3.8
395.88	3.81
396.089	3.94
396.298	4.38
396.508	5.01
396.717	6.01
396.926	6.37
397.135	5.59
397.344	5.44
397.553	4.9
397.762	4.15
397.971	3.93
398.181	4.12
398.39	3.9
398.599	3.04
398.808	2.32
399.017	2.42
399.226	2.81
399.435	2.52
399.644	2.44
399.853	3
400.062	2.91
400.27	2.6
400.479	2.55
400.688	2.95
400.897	3.03
401.106	2.98
401.315	3.2
401.524	3.29
401.733	2.97
401.941	3.08
402.15	2.9
402.359	2.72
402.568	2.92
402.777	3.1
402.985	3.05
403.194	3.07
403.403	3.22
403.612	3.11
403.82	2.77
404.029	2.58
404.238	2.68
404.446	2.57
404.655	2.65
404.864	2.81
405.072	3.1
405.281	3.2
405.489	3.35
405.698	3.14
405.906	3.09
406.115	2.75
406.324	2.59
406.532	2.38
406.741	2.19
406.949	2.27
407.158	2.41
407.366	2.31
407.574	2.57
407.783	2.86
407.991	2.77
408.2	2.88
408.408	3
408.617	2.72
408.825	2.57
409.033	2.58
409.242	2.38
409.45	2.41
409.658	2.33
409.867	2.33
410.075	2.26
410.283	2.29
410.491	2.08
410.7	2.03
410.908	2.2
411.116	2.24
411.324	2.2
411.533	2.28
411.741	2.5
411.949	2.35
412.157	2.35
412.365	2.36
412.573	2.36
412.781	2.24
412.99	2.31
413.198	2.33
413.406	2.27
413.614	2.21
413.822	2.27
414.03	2.34
414.238	2.32
414.446	2.35
414.654	2.34
414.862	2.33
415.07	2.3
415.278	2.18
415.486	2.26
415.694	2.24
415.902	2.16
416.109	2.04
416.317	2.16
416.525	2.02
416.733	2.1
416.941	2.11
417.149	2.18
417.357	2.24
417.564	2.14
417.772	2.25
417.98	2.22
418.188	2.23
418.395	2.22
418.603	2.33
418.811	2.32
419.019	2.42
419.226	2.39
419.434	2.35
419.642	2.3
419.849	2.12
420.057	1.93
420.265	1.97
420.472	1.86
420.68	1.98
420.887	1.94
421.095	2.05
421.302	1.96
421.51	1.97
421.717	1.81
421.925	1.95
422.132	1.94
422.34	1.92
422.547	1.97
422.755	1.95
422.962	1.85
423.17	1.84
423.377	1.64
423.585	1.65
423.792	1.77
423.999	1.84
424.207	1.89
424.414	2.12
424.621	2.09
424.829	1.99
425.036	1.91
425.243	1.9
425.451	2.03
425.658	2.05
425.865	2.17
426.072	2.07
426.28	2.06
426.487	1.91
426.694	1.89
426.901	1.73
427.108	1.88
427.315	1.77
427.523	1.84
427.73	1.91
427.937	2.06
428.144	2.01
428.351	2.23
428.558	2.25
428.765	2.24
428.972	2.08
429.179	2.11
429.386	2.13
429.593	2.05
429.8	1.89
430.007	2.02
430.214	2.21
430.421	2.09
430.628	2.02
430.835	2.1
431.042	2.13
431.249	2.06
431.456	2.11
431.662	2.16
431.869	2.33
432.076	2.36
432.283	2.22
432.49	2.19
432.697	2.17
432.903	1.96
433.11	1.88
433.317	1.93
433.524	2.02
433.73	2
433.937	2
434.144	1.97
434.35	2.02
434.557	1.9
434.764	1.99
434.97	2.01
435.177	2.01
435.384	2.07
435.59	2.13
435.797	2.17
436.003	2.12
436.21	2.22
436.416	2.29
436.623	2.29
436.829	2.28
437.036	2.35
437.242	2.29
437.449	2.22
437.655	2.3
437.862	2.23
438.068	2.29
438.275	2.33
438.481	2.39
438.687	2.3
438.894	2.44
439.1	2.46
439.307	2.56
439.513	2.48
439.719	2.52
439.926	2.45
440.132	2.47
440.338	2.45
440.544	2.44
440.751	2.44
440.957	2.57
441.163	2.55
441.369	2.6
441.575	2.62
441.782	2.68
441.988	2.57
442.194	2.53
442.4	2.39
442.606	2.41
442.812	2.39
443.018	2.42
443.224	2.4
443.431	2.48
443.637	2.34
443.843	2.25
444.049	2.34
444.255	2.33
444.461	2.37
444.667	2.47
444.873	2.6
445.079	2.53
445.284	2.6
445.49	2.56
445.696	2.56
445.902	2.52
446.108	2.59
446.314	2.58
446.52	2.68
446.726	2.69
446.931	2.74
447.137	2.75
447.343	2.88
447.549	2.7
447.755	2.79
447.96	2.68
448.166	2.63
448.372	2.53
448.578	2.66
448.783	2.63
448.989	2.7
449.195	2.67
449.4	2.66
449.606	2.61
449.812	2.6
450.017	2.7
450.223	2.71
450.428	2.68
450.634	2.7
450.84	2.75
451.045	2.71
451.251	2.75
451.456	2.85
451.662	2.86
451.867	2.8
452.073	2.76
452.278	2.8
452.483	2.8
452.689	2.86
452.894	2.83
453.1	2.82
453.305	2.75
453.51	2.79
453.716	2.76
453.921	2.88
454.127	2.84
454.332	2.83
454.537	2.66
454.742	2.65
454.948	2.66
455.153	2.74
455.358	2.78
455.563	2.75
455.769	2.8
455.974	2.78
456.179	2.75
456.384	2.75
456.589	2.85
456.795	2.79
457	2.77
457.205	2.82
457.41	2.81
457.615	2.82
457.82	2.88
458.025	2.85
458.23	2.74
458.435	2.8
458.64	2.73
458.845	2.66
459.05	2.66
459.255	2.87
459.46	2.83
459.665	2.83
459.87	2.99
460.075	3.06
460.28	2.82
460.485	2.84
460.69	2.98
460.895	2.84
461.099	2.78
461.304	2.93
461.509	2.93
461.714	2.86
461.919	2.95
462.123	3
462.328	3.09
462.533	3.18
462.738	3.19
462.942	3.14
463.147	3.18
463.352	3.05
463.556	3.02
463.761	2.97
463.966	2.93
464.17	2.94
464.375	3.08
464.58	3.15
464.784	3.22
464.989	3.31
465.193	3.26
465.398	3.16
465.602	3.08
465.807	3.07
466.011	3.11
466.216	3.08
466.42	3.1
466.625	3.15
466.829	3.17
467.034	3.14
467.238	3.26
467.443	3.22
467.647	3.19
467.851	3.29
468.056	3.26
468.26	3.28
468.464	3.35
468.669	3.32
468.873	3.29
469.077	3.31
469.282	3.34
469.486	3.27
469.69	3.41
469.894	3.41
470.099	3.43
470.303	3.44
470.507	3.56
470.711	3.56
470.915	3.59
471.119	3.65
471.324	3.62
471.528	3.64
471.732	3.63
471.936	3.58
472.14	3.59
472.344	3.58
472.548	3.61
472.752	3.62
472.956	3.67
473.16	3.71
473.364	3.71
473.568	3.67
473.772	3.67
473.976	3.65
474.18	3.7
474.384	3.75
474.588	3.73
474.792	3.72
474.995	3.71
475.199	3.61
475.403	3.65
475.607	3.69
475.811	3.72
476.015	3.76
476.218	3.84
476.422	3.86
476.626	3.93
476.83	3.96
477.033	4.02
477.237	4.02
477.441	3.99
477.644	3.95
477.848	3.94
478.052	3.89
478.255	3.91
478.459	3.91
478.663	3.91
478.866	3.9
479.07	3.99
479.273	3.93
479.477	3.93
479.681	3.97
479.884	3.99
480.088	3.97
480.291	4.04
480.495	4.02
480.698	4
480.901	4.04
481.105	4.13
481.308	4.12
481.512	4.12
481.715	4.2
481.919	4.27
482.122	4.23
482.325	4.23
482.529	4.31
482.732	4.28
482.935	4.21
483.138	4.19
483.342	4.23
483.545	4.17
483.748	4.19
483.952	4.21
484.155	4.25
484.358	4.22
484.561	4.22
484.764	4.22
484.967	4.22
485.171	4.25
485.374	4.21
485.577	4.31
485.78	4.29
485.983	4.35
486.186	4.3
486.389	4.44
486.592	4.37
486.795	4.43
486.998	4.35
487.201	4.38
487.404	4.3
487.607	4.34
487.81	4.33
488.013	4.35
488.216	4.31
488.419	4.33
488.622	4.3
488.825	4.24
489.028	4.24
489.231	4.31
489.433	4.27
489.636	4.25
489.839	4.3
490.042	4.32
490.245	4.35
490.447	4.4
490.65	4.42
490.853	4.41
491.056	4.36
491.258	4.31
491.461	4.33
491.664	4.35
491.866	4.37
492.069	4.43
492.272	4.42
492.474	4.4
492.677	4.48
492.879	4.5
493.082	4.51
493.285	4.57
493.487	4.6
493.69	4.54
493.892	4.47
494.095	4.45
494.297	4.44
494.5	4.5
494.702	4.52
494.905	4.58
495.107	4.55
495.309	4.55
495.512	4.48
495.714	4.52
495.917	4.49
496.119	4.58
496.321	4.62
496.524	4.68
496.726	4.64
496.928	4.72
497.13	4.7
497.333	4.69
497.535	4.69
497.737	4.71
497.939	4.72
498.142	4.75
498.344	4.74
498.546	4.73
498.748	4.8
498.95	4.81
499.152	4.84
499.355	4.8
499.557	4.81
499.759	4.84
499.961	4.84
500.163	4.8
500.365	4.94
500.567	4.99
500.769	4.96
500.971	4.92
501.173	4.96
501.375	4.96
501.577	4.98
501.779	5.04
501.981	5.09
502.183	5.13
502.385	5.13
502.587	5.16
502.788	5.13
502.99	5.17
503.192	5.19
503.394	5.21
503.596	5.18
503.798	5.22
503.999	5.21
504.201	5.23
504.403	5.24
504.605	5.29
504.806	5.38
505.008	5.45
505.21	5.39
505.411	5.38
505.613	5.41
505.815	5.43
506.016	5.42
506.218	5.54
506.42	5.58
506.621	5.56
506.823	5.55
507.024	5.58
507.226	5.59
507.427	5.6
507.629	5.68
507.83	5.69
508.032	5.69
508.233	5.73
508.435	5.76
508.636	5.78
508.838	5.81
509.039	5.81
509.24	5.81
509.442	5.87
509.643	5.92
509.845	5.95
510.046	6
510.247	6.02
510.448	6.04
510.65	6.05
510.851	6.06
511.052	6.11
511.254	6.16
511.455	6.17
511.656	6.19
511.857	6.26
512.058	6.25
512.26	6.26
512.461	6.33
512.662	6.37
512.863	6.31
513.064	6.34
513.265	6.37
513.466	6.4
513.667	6.4
513.868	6.44
514.069	6.47
514.27	6.42
514.471	6.45
514.672	6.46
514.873	6.5
515.074	6.5
515.275	6.56
515.476	6.5
515.677	6.53
515.878	6.55
516.079	6.64
516.28	6.66
516.481	6.72
516.682	6.72
516.882	6.73
517.083	6.74
517.284	6.8
517.485	6.76
517.686	6.73
517.886	6.71
518.087	6.66
518.288	6.62
518.488	6.69
518.689	6.74
518.89	6.78
519.091	6.82
519.291	6.82
519.492	6.81
519.692	6.82
519.893	6.88
520.094	6.93
520.294	6.98
520.495	7.04
520.695	7.08
520.896	7.09
521.096	7.15
521.297	7.2
521.497	7.26
521.698	7.26
521.898	7.3
522.099	7.24
522.299	7.25
522.499	7.23
522.7	7.25
522.9	7.23
523.101	7.31
523.301	7.35
523.501	7.34
523.702	7.36
523.902	7.34
524.102	7.34
524.302	7.29
524.503	7.3
524.703	7.33
524.903	7.41
525.103	7.41
525.304	7.46
525.504	7.53
525.704	7.55
525.904	7.55
526.104	7.54
526.304	7.58
526.504	7.55
526.705	7.57
526.905	7.64
527.105	7.65
527.305	7.62
527.505	7.63
527.705	7.62
527.905	7.63
528.105	7.73
528.305	7.79
528.505	7.83
528.705	7.92
528.905	7.9
529.105	7.9
529.304	7.93
529.504	8.02
529.704	7.98
529.904	8.01
530.104	8.03
530.304	8.05
530.503	7.99
530.703	8.02
530.903	8.07
531.103	8.12
531.303	8.12
531.502	8.19
531.702	8.26
531.902	8.27
532.101	8.26
532.301	8.32
532.501	8.41
532.7	8.41
532.9	8.42
533.1	8.44
533.299	8.44
533.499	8.37
533.698	8.38
533.898	8.43
534.097	8.47
534.297	8.51
534.496	8.56
534.696	8.61
534.895	8.65
535.095	8.71
535.294	8.75
535.494	8.74
535.693	8.74
535.892	8.8
536.092	8.82
536.291	8.83
536.491	8.94
536.69	9
536.889	8.96
537.088	8.98
537.288	9
537.487	8.98
537.686	9
537.886	9.07
538.085	9.07
538.284	9.13
538.483	9.19
538.682	9.25
538.882	9.27
539.081	9.37
539.28	9.39
539.479	9.44
539.678	9.46
539.877	9.53
540.076	9.5
540.275	9.5
540.474	9.5
540.673	9.54
540.872	9.55
541.071	9.58
541.27	9.65
541.469	9.7
541.668	9.74
541.867	9.82
542.066	9.95
542.265	9.96
542.464	10
542.663	10.03
542.862	10.03
543.06	10.04
543.259	10.1
543.458	10.13
543.657	10.24
543.856	10.31
544.054	10.28
544.253	10.38
544.452	10.46
544.651	10.51
544.849	10.52
545.048	10.68
545.247	10.69
545.445	10.77
545.644	10.76
545.843	10.86
546.041	10.9
546.24	10.93
546.438	10.95
546.637	11.02
546.836	11.15
547.034	11.2
547.233	11.34
547.431	11.4
547.63	11.47
547.828	11.49
548.027	11.58
548.225	11.6
548.423	11.65
548.622	11.78
548.82	11.8
549.019	11.85
549.217	12.01
549.415	12.11
549.614	12.15
549.812	12.27
550.01	12.33
550.209	12.32
550.407	12.42
550.605	12.48
550.803	12.57
551.002	12.64
551.2	12.73
551.398	12.8
551.596	12.93
551.794	13.04
551.993	13.16
552.191	13.26
552.389	13.4
552.587	13.5
552.785	13.52
552.983	13.66
553.181	13.81
553.379	13.93
553.577	14.02
553.775	14.2
553.973	14.25
554.171	14.37
554.369	14.42
554.567	14.5
554.765	14.53
554.963	14.65
555.161	14.73
555.359	14.84
555.557	14.97
555.755	15.09
555.952	15.15
556.15	15.31
556.348	15.42
556.546	15.47
556.744	15.57
556.941	15.64
557.139	15.76
557.337	15.87
557.535	15.99
557.732	16.16
557.93	16.37
558.128	16.43
558.325	16.49
558.523	16.62
558.721	16.76
558.918	16.82
559.116	16.95
559.313	17.09
559.511	17.17
559.708	17.23
559.906	17.34
560.104	17.45
560.301	17.53
560.498	17.7
560.696	17.8
560.893	17.9
561.091	18.03
561.288	18.27
561.486	18.34
561.683	18.4
561.88	18.53
562.078	18.65
562.275	18.74
562.473	18.88
562.67	19.12
562.867	19.24
563.064	19.32
563.262	19.39
563.459	19.58
563.656	19.7
563.853	19.86
564.051	19.96
564.248	20.08
564.445	20.21
564.642	20.28
564.839	20.37
565.036	20.51
565.234	20.74
565.431	20.79
565.628	20.97
565.825	21.13
566.022	21.28
566.219	21.32
566.416	21.41
566.613	21.58
566.81	21.68
567.007	21.75
567.204	21.88
567.401	21.98
567.598	22
567.795	22.01
567.991	22.13
568.188	22.2
568.385	22.2
568.582	22.29
568.779	22.39
568.976	22.46
569.172	22.6
569.369	22.72
569.566	22.74
569.763	22.81
569.96	22.84
570.156	22.79
570.353	22.94
570.55	23.04
570.746	23.06
570.943	23.17
571.14	23.27
571.336	23.27
571.533	23.3
571.729	23.38
571.926	23.35
572.123	23.41
572.319	23.48
572.516	23.49
572.712	23.51
572.909	23.61
573.105	23.66
573.302	23.66
573.498	23.73
573.695	23.83
573.891	23.77
574.087	23.73
574.284	23.77
574.48	23.72
574.677	23.72
574.873	23.78
575.069	23.84
575.266	23.91
575.462	24.04
575.658	24.05
575.854	24.14
576.051	24.19
576.247	24.12
576.443	24.07
576.639	24.21
576.835	24.22
577.032	24.16
577.228	24.27
577.424	24.32
577.62	24.26
577.816	24.26
578.012	24.27
578.208	24.26
578.404	24.21
578.6	24.2
578.796	24.16
578.993	24.27
579.189	24.25
579.384	24.23
579.58	24.14
579.776	24.14
579.972	24.04
580.168	23.99
580.364	24.04
580.56	24.15
580.756	24.15
580.952	24.17
581.148	24.15
581.343	24.19
581.539	24.13
581.735	24.15
581.931	24.1
582.127	24.12
582.322	24.07
582.518	24.01
582.714	23.94
582.909	23.97
583.105	23.98
583.301	23.91
583.496	23.84
583.692	23.87
583.888	23.84
584.083	23.79
584.279	23.76
584.474	23.8
584.67	23.79
584.866	23.77
585.061	23.73
585.257	23.73
585.452	23.83
585.648	23.82
585.843	23.85
586.039	23.94
586.234	23.98
586.429	23.95
586.625	23.95
586.82	23.88
587.015	23.9
587.211	23.96
587.406	23.92
587.601	23.85
587.797	23.97
587.992	23.9
588.187	23.89
588.383	23.93
588.578	23.96
588.773	23.92
588.968	23.91
589.163	23.87
589.359	23.83
589.554	23.92
589.749	23.92
589.944	23.97
590.139	24.02
590.334	24.07
590.529	24.06
590.724	24.13
590.919	24.24
591.114	24.28
591.309	24.36
591.504	24.42
591.699	24.48
591.894	24.45
592.089	24.49
592.284	24.58
592.479	24.7
592.674	24.7
592.869	24.71
593.064	24.92
593.259	24.97
593.454	24.96
593.648	24.99
593.843	25.19
594.038	25.16
594.233	25.31
594.428	25.4
594.622	25.55
594.817	25.64
595.012	25.72
595.206	25.73
595.401	25.86
595.596	25.94
595.79	25.94
595.985	26.01
596.18	26.11
596.374	26.16
596.569	26.32
596.763	26.4
596.958	26.56
597.153	26.68
597.347	26.73
597.542	26.69
597.736	26.82
597.931	26.81
598.125	26.81
598.319	26.87
598.514	26.95
598.708	27.02
598.903	27.21
599.097	27.19
599.291	27.26
599.486	27.39
599.68	27.4
599.874	27.46
600.069	27.56
600.263	27.65
600.457	27.71
600.651	27.85
600.846	27.85
601.04	28.01
601.234	28.03
601.428	28.07
601.622	28.01
601.817	28.13
602.011	28.14
602.205	28.22
602.399	28.26
602.593	28.37
602.787	28.32
602.981	28.22
603.175	28.22
603.369	28.23
603.563	28.27
603.757	28.32
603.951	28.43
604.145	28.4
604.339	28.38
604.533	28.29
604.727	28.25
604.921	28.23
605.115	28.24
605.309	28.28
605.502	28.29
605.696	28.18
605.89	28.12
606.084	28.04
606.278	27.89
606.471	27.93
606.665	27.92
606.859	27.88
607.053	27.85
607.246	27.84
607.44	27.54
607.634	27.53
607.827	27.4
608.021	27.36
608.214	27.38
608.408	27.49
608.602	27.46
608.795	27.44
608.989	27.29
609.182	27.11
609.376	26.95
609.569	26.89
609.763	26.77
609.956	26.74
610.15	26.7
610.343	26.69
610.537	26.56
610.73	26.63
610.923	26.54
611.117	26.46
611.31	26.34
611.504	26.31
611.697	26.18
611.89	26.16
612.083	26.14
612.277	26.08
612.47	25.89
612.663	25.76
612.856	25.66
613.05	25.64
613.243	25.55
613.436	25.51
613.629	25.38
613.822	25.31
614.015	25.1
614.209	25.01
614.402	24.99
614.595	24.94
614.788	24.78
614.981	24.78
615.174	24.71
615.367	24.61
615.56	24.61
615.753	24.58
615.946	24.47
616.139	24.41
616.332	24.39
616.525	24.28
616.718	24.16
616.911	24.13
617.103	24.02
617.296	23.89
617.489	23.73
617.682	23.81
617.875	23.68
618.067	23.68
618.26	23.7
618.453	23.72
618.646	23.59
618.838	23.51
619.031	23.47
619.224	23.35
619.417	23.4
619.609	23.31
619.802	23.3
619.994	23.23
620.187	23.2
620.38	23.13
620.572	23.13
620.765	23.15
620.957	23.13
621.15	23.12
621.342	23.03
621.535	23.03
621.727	22.94
621.92	22.86
622.112	22.83
622.305	22.84
622.497	22.86
622.69	22.85
622.882	22.84
623.074	22.8
623.267	22.7
623.459	22.61
623.651	22.58
623.844	22.58
624.036	22.6
624.228	22.56
624.42	22.57
624.613	22.59
624.805	22.51
624.997	22.39
625.189	22.38
625.381	22.34
625.574	22.24
625.766	22.25
625.958	22.26
626.15	22.23
626.342	22.17
626.534	22.19
626.726	22.16
626.918	22.13
627.11	22.11
627.302	22.03
627.494	21.98
627.686	21.96
627.878	21.96
628.07	21.9
628.262	21.87
628.454	21.85
628.646	21.78
628.838	21.75
629.029	21.69
629.221	21.68
629.413	21.62
629.605	21.57
629.797	21.45
629.989	21.48
630.18	21.49
630.372	21.48
630.564	21.48
630.755	21.47
630.947	21.41
631.139	21.28
631.33	21.14
631.522	21.14
631.714	21.07
631.905	21.03
632.097	21.09
632.289	21.12
632.48	21.11
632.672	21.11
632.863	20.99
633.055	20.93
633.246	20.93
633.438	20.95
633.629	21
633.821	21.09
634.012	21.07
634.203	20.96
634.395	20.84
634.586	20.76
634.777	20.71
634.969	20.7
635.16	20.76
635.351	20.77
635.543	20.72
635.734	20.7
635.925	20.65
636.117	20.73
636.308	20.75
636.499	20.74
636.69	20.63
636.881	20.68
637.073	20.59
637.264	20.58
637.455	20.57
637.646	20.63
637.837	20.6
638.028	20.58
638.219	20.5
638.41	20.47
638.601	20.44
638.792	20.4
638.983	20.39
639.174	20.31
639.365	20.3
639.556	20.35
639.747	20.38
639.938	20.42
640.129	20.51
640.32	20.52
640.511	20.37
640.701	20.32
640.892	20.2
641.083	20.11
641.274	20.1
641.465	20.13
641.655	20.14
641.846	20.12
642.037	20.16
642.228	20.14
642.418	20.09
642.609	20.03
642.8	20
642.99	19.93
643.181	19.89
643.372	19.87
643.562	19.85
643.753	19.77
643.943	19.69
644.134	19.56
644.324	19.58
644.515	19.51
644.705	19.51
644.896	19.54
645.086	19.65
645.277	19.5
645.467	19.47
645.658	19.5
645.848	19.33
646.038	19.3
646.229	19.36
646.419	19.28
646.61	19.16
646.8	19.15
646.99	19.1
647.18	19.01
647.371	19.05
647.561	19.04
647.751	19.04
647.941	18.99
648.132	18.9
648.322	18.82
648.512	18.84
648.702	18.85
648.892	18.77
649.082	18.8
649.272	18.76
649.462	18.7
649.653	18.7
649.843	18.76
650.033	18.62
650.223	18.62
650.413	18.59
650.603	18.59
650.793	18.51
650.983	18.62
651.172	18.57
651.362	18.49
651.552	18.33
651.742	18.17
651.932	18.09
652.122	18.07
652.312	18.03
652.502	17.94
652.691	17.91
652.881	17.82
653.071	17.68
653.261	17.51
653.45	17.41
653.64	17.34
653.83	17.14
654.019	16.99
654.209	17.01
654.399	16.91
654.588	16.81
654.778	16.72
654.968	16.6
655.157	16.48
655.347	16.25
655.536	16.04
655.726	15.81
655.915	15.67
656.105	15.35
656.294	15.21
656.484	15.04
656.673	15.07
656.863	14.99
657.052	14.91
657.241	14.74
657.431	14.59
657.62	14.36
657.809	14.09
657.999	13.91
658.188	13.78
658.377	13.53
658.567	13.32
658.756	13.08
658.945	12.8
659.134	12.6
659.324	12.44
659.513	12.28
659.702	12.07
659.891	11.96
660.08	11.76
660.269	11.64
660.458	11.37
660.648	11.28
660.837	10.99
661.026	10.82
661.215	10.61
661.404	10.46
661.593	10.31
661.782	10.2
661.971	10.03
662.16	9.84
662.349	9.64
662.538	9.45
662.726	9.3
662.915	9.17
663.104	9.06
663.293	8.97
663.482	8.81
663.671	8.66
663.86	8.53
664.048	8.38
664.237	8.22
664.426	8.1
664.615	7.96
664.803	7.85
664.992	7.68
665.181	7.58
665.369	7.52
665.558	7.48
665.747	7.35
665.935	7.33
666.124	7.26
666.312	7.12
666.501	7.01
666.69	6.9
666.878	6.76
667.067	6.81
667.255	6.73
667.444	6.78
667.632	6.73
667.82	6.71
668.009	6.52
668.197	6.49
668.386	6.38
668.574	6.29
668.762	6.21
668.951	6.22
669.139	6.08
669.327	5.93
669.516	5.96
669.704	5.97
669.892	5.98
670.08	6.02
670.269	6.04
670.457	6
670.645	5.94
670.833	5.85
671.021	5.9
671.21	5.96
671.398	5.99
671.586	5.99
671.774	6.04
671.962	5.93
672.15	6.08
672.338	6.08
672.526	6.06
672.714	6.03
672.902	6.09
673.09	5.92
673.278	5.98
673.466	6.1
673.654	6.09
673.842	6.13
674.03	6.08
674.218	6.01
674.405	5.92
674.593	6.03
674.781	6.09
674.969	6.21
675.157	6.29
675.344	6.43
675.532	6.39
675.72	6.37
675.908	6.39
676.095	6.46
676.283	6.37
676.471	6.38
676.658	6.53
676.846	6.57
677.033	6.59
677.221	6.83
677.409	6.84
677.596	6.76
677.784	6.82
677.971	6.8
678.159	6.74
678.346	6.8
678.534	7.01
678.721	7.11
678.909	7.18
679.096	7.25
679.283	7.4
679.471	7.34
679.658	7.5
679.846	7.62
680.033	7.84
680.22	7.96
680.408	8.18
680.595	8.19
680.782	8.36
680.969	8.45
681.157	8.55
681.344	8.56
681.531	8.73
681.718	8.83
681.905	8.92
682.093	9.05
682.28	9.28
682.467	9.47
682.654	9.63
682.841	9.73
683.028	9.86
683.215	10.03
683.402	10.12
683.589	10.35
683.776	10.53
683.963	10.87
684.15	11.18
684.337	11.46
684.524	11.8
684.711	12.06
684.898	12.25
685.085	12.45
685.271	12.73
685.458	12.91
685.645	13.41
685.832	13.78
686.019	14.16
686.205	14.46
686.392	14.78
686.579	15.03
686.766	15.36
686.952	15.67
687.139	16.13
687.326	16.57
687.512	16.95
687.699	17.6
687.886	18.11
688.072	18.73
688.259	19.3
688.445	19.78
688.632	20.21
688.818	20.7
689.005	21.01
689.191	21.53
689.378	22.18
689.564	22.62
689.751	23.14
689.937	23.84
690.124	24.42
690.31	24.97
690.496	25.61
690.683	26.51
690.869	27.12
691.055	27.81
691.242	28.58
691.428	29.27
691.614	29.92
691.8	30.64
691.987	31.42
692.173	32.12
692.359	32.98
692.545	33.63
692.731	34.38
692.918	34.99
693.104	35.77
693.29	36.47
693.476	37.18
693.662	37.85
693.848	38.7
694.034	39.28
694.22	40
694.406	40.75
694.592	41.58
694.778	42.17
694.964	43.14
695.15	43.95
695.336	44.48
695.522	45.2
695.708	46.01
695.894	46.44
696.08	46.99
696.265	47.76
696.451	48.44
696.637	49.21
696.823	50.08
697.009	51.02
697.194	51.86
697.38	52.51
697.566	53.13
697.751	53.56
697.937	53.76
698.123	54.31
698.308	55.24
698.494	55.64
698.68	56.45
698.865	57.2
699.051	57.76
699.236	58.08
699.422	58.79
699.607	59.24
699.793	60.14
699.978	60.77
700.164	61.43
700.349	62.03
700.535	62.62
700.72	62.69
700.906	63.11
701.091	63.45
701.276	63.83
701.462	64.55
701.647	65.15
701.832	65.82
702.018	66.34
702.203	67.1
702.388	67.52
702.573	67.97
702.759	68.05
702.944	68.31
703.129	68.67
703.314	68.95
703.499	69.4
703.684	69.94
703.87	70.32
704.055	70.59
704.24	70.75
704.425	70.88
704.61	71.32
704.795	71.7
704.98	72.49
705.165	73.18
705.35	73.75
705.535	74.14
705.72	74.56
705.905	74.4
706.09	74.56
706.275	75.24
706.459	75.57
706.644	75.87
706.829	75.97
707.014	75.9
707.199	75.93
707.384	75.92
707.568	76.27
707.753	76.44
707.938	76.74
708.123	77.01
708.307	77.3
708.492	77.47
708.677	77.83
708.861	78.38
709.046	78.54
709.231	78.69
709.415	79.04
709.6	79.4
709.784	79.61
709.969	79.58
710.153	79.75
710.338	79.91
710.522	80.04
710.707	80.23
710.891	80.83
711.076	81.02
711.26	81.37
711.445	81.53
711.629	81.63
711.813	81.6
711.998	82.12
712.182	81.86
712.366	81.7
712.551	82.28
712.735	82.72
712.919	82.87
713.103	83.2
713.288	83.38
713.472	82.9
713.656	82.61
713.84	82.74
714.024	83.04
714.208	83.42
714.393	83.41
714.577	83.57
714.761	83.28
714.945	82.97
715.129	83.34
715.313	83.53
715.497	83.52
715.681	84.01
715.865	83.92
716.049	83.69
716.233	83.75
716.417	84.09
716.601	83.87
716.785	84.58
716.968	84.82
717.152	85.32
717.336	85.51
717.52	85.6
717.704	85.55
717.888	85.82
718.071	85.42
718.255	85.3
718.439	85.71
718.622	85.76
718.806	85.81
718.99	85.99
719.174	86.27
719.357	86.23
719.541	86.22
719.724	86.08
719.908	86.28
720.092	86.09
720.275	86.19
720.459	85.81
720.642	86.26
720.826	86.1
721.009	85.62
721.193	85.48
721.376	85.62
721.559	85.46
721.743	85.76
721.926	86.74
722.11	86.53
722.293	86.97
722.476	86.88
722.66	86.55
722.843	85.98
723.026	85.86
723.21	85.49
723.393	85.34
723.576	85.9
723.759	86.32
723.942	87.04
724.126	87.34
724.309	87.44
724.492	86.98
724.675	87.47
724.858	87.07
725.041	86.83
725.224	87.21
725.407	87.9
725.59	87.53
725.774	88
725.957	88.36
726.14	88.03
726.322	88.15
726.505	88.05
726.688	88.68
726.871	88.85
727.054	89.12
727.237	88.88
727.42	88.56
727.603	88.07
727.786	87.95
727.968	88.23
728.151	88.27
728.334	88.73
728.517	88.76
728.699	89.3
728.882	89.4
729.065	89.26
729.248	89.33
729.43	89.37
729.613	89.33
729.796	89.11
729.978	89.25
730.161	89.46
730.343	89.64
730.526	89.38
730.708	89.05
730.891	89.07
731.073	89.15
731.256	88.74
731.438	88.78
731.621	89.56
731.803	89.61
731.986	89.3
732.168	89.28
732.35	88.85
732.533	88.34
732.715	88.31
732.898	88.71
733.08	89.09
733.262	89.57
733.444	90.37
733.627	90.68
733.809	90.62
733.991	90.36
734.173	91.27
734.355	90.34
734.538	89.99
734.72	89.85
734.902	89.64
735.084	89.18
735.266	89.23
735.448	89.98
735.63	89.79
735.812	90.13
735.994	89.84
736.176	89.76
736.358	89.58
736.54	90.53
736.722	90.54
736.904	90.49
737.086	90.65
737.268	90.41
737.45	89.55
737.632	90.11
737.814	90.57
737.995	90.58
738.177	90.38
738.359	90.61
738.541	89.98
738.723	89.97
738.904	90.43
739.086	91.64
739.268	92.63
739.449	93.13
739.631	93.06
739.813	93.45
739.994	92.53
740.176	91.42
740.358	91.54
740.539	91.88
740.721	91.15
740.902	92.2
741.084	92.5
741.265	92.45
741.447	91.75
741.628	92.62
741.81	91.85
741.991	92.39
742.172	92.52
742.354	92.02
742.535	92.19
742.717	92.05
742.898	91.88
743.079	91.72
743.261	92.6
743.442	92.12
743.623	92.13
743.804	92.21
743.986	92.41
744.167	91.52
744.348	91.63
744.529	91.3
744.71	90.72
744.891	90.5
745.073	92.46
745.254	91.72
745.435	91.24
745.616	91.12
745.797	90.99
745.978	90.02
746.159	90.73
746.34	91.24
746.521	91.38
746.702	90.78
746.883	90.58
747.064	90.63
747.245	91.12
747.426	91.46
747.606	92.12
747.787	92.62
747.968	92.33
748.149	92.25
748.33	91.99
748.51	92.1
748.691	91.71
748.872	91.43
749.053	91.25
749.233	91.03
749.414	90.33
749.595	90.14
749.775	89.78
749.956	89.01
750.137	89.09
750.317	89.68
750.498	90.47
750.678	90.92
750.859	91.77
751.04	92.65
751.22	93.51
751.4	93.29
751.581	93.84
751.761	93.77
751.942	93.71
752.122	92.7
752.303	91.61
752.483	92.65
752.663	93.11
752.844	92.16
753.024	92.3
753.204	92.58
753.385	91.28
753.565	90.04
753.745	91.89
753.925	92.51
754.106	93.23
754.286	93.29
754.466	93.41
754.646	91.61
754.826	90.74
755.006	90.01
755.187	90.33
755.367	91.35
755.547	91.06
755.727	91.91
755.907	91.69
756.087	90.25
756.267	90.56
756.447	91.83
756.627	91.62
756.807	92.19
756.987	93.41
757.167	93.44
757.346	94.08
757.526	92.54
757.706	93.91
757.886	95.11
758.066	94.47
758.246	92.7
758.425	93.21
758.605	91.88
758.785	89.68
758.965	90.26
759.144	89.95
759.324	89.72
759.504	89.82
759.683	89.86
759.863	89.21
760.043	90.57
760.222	90.07
760.402	88.64
760.581	88.57
760.761	89.12
760.94	88.67
761.12	89.51
761.299	90.89
761.479	92.23
761.658	91.69
761.838	91.13
762.017	90.93
762.197	89.87
762.376	88.87
762.555	88.9
762.735	88.6
762.914	87.97
763.093	88.56
763.273	88.58
763.452	88.36
763.631	88.8
763.81	89.41
763.99	89.91
764.169	89.65
764.348	89.28
764.527	87.95
764.706	87.26
764.885	87.64
765.064	87.62
765.243	88.44
765.423	89.43
765.602	91.07
765.781	90.67
765.96	91.55
766.139	90.76
766.318	91.1
766.497	90.75
766.676	91.07
766.854	90
767.033	91.2
767.212	91.55
767.391	90.93
767.57	89.9
767.749	90.96
767.928	89.08
768.106	87.6
768.285	87.86
768.464	87.34
768.643	88.16
768.821	89.1
769	90.33
769.179	89.88
769.357	91.04
769.536	89.34
769.715	89.73
769.893	89.43
770.072	89.89
770.25	89.16
770.429	90.18
770.607	90.21
770.786	89.33
770.964	89.14
771.143	89.2
771.321	88.61
771.5	89.17
771.678	89.77
771.857	90.18
772.035	90.1
772.213	91.01
772.392	88.77
772.57	90.35
772.748	91.08
772.927	91.86
773.105	93.03
773.283	94.73
773.461	94.21
773.64	93.7
773.818	93.44
773.996	90.7
774.174	89.09
774.352	85.94
774.531	84.06
774.709	84.38
774.887	84.07
775.065	84.53
775.243	85.43
775.421	85.2
775.599	84.22
775.777	84.18
775.955	83.78
776.133	84.72
776.311	86.58
776.489	86.5
776.667	86.81
776.844	90.18
777.022	90.01
777.2	89.82
777.378	89.27
777.556	89.16
777.734	85.13
777.911	84.97
778.089	86.34
778.267	87.27
778.445	87.98
778.622	88.63
778.8	87.88
778.978	87.36
779.155	89.07
779.333	88.45
779.511	88.98
779.688	91.57
779.866	92.16
780.043	88.84
780.221	89.41
780.398	90.57
780.576	88.88
780.753	86.37
780.931	88.55
781.108	89.75
781.286	88.62
781.463	86.72
781.64	83.85
781.818	83.32
781.995	80.75
782.172	80.93
782.35	81.76
782.527	84.16
782.704	83.45
782.882	84.42
783.059	83.08
783.236	84.55
783.413	85.72
783.59	87.94
783.768	89.53
783.945	87.08
784.122	86.94
784.299	87.96
784.476	84.72
784.653	84.46
784.83	89.16
785.007	86.1
785.184	82.6
785.361	84.39
785.538	85.6
785.715	86.53
785.892	89.93
786.069	89.81
786.246	90.81
786.423	88.64
786.6	87.84
786.776	88.25
786.953	92.56
787.13	92.38
787.307	89.11
787.484	87.16
787.66	86.33
787.837	83.11
788.014	81.84
788.191	81.46
788.367	80.38
788.544	78.87
788.721	77.89
788.897	76.42
789.074	78.15
789.25	79.19
789.427	80.64
789.603	84.36
789.78	86.49
789.956	81.82
790.133	81.45
790.309	81.91
790.486	79.3
790.662	80.18
790.839	86.82
791.015	86.51
791.192	84.12
791.368	85.62
791.544	85.76
791.721	85.91
791.897	85.45
792.073	83.56
792.249	82.4
792.426	78.48
792.602	78.81
792.778	76.01
792.954	79.98
793.13	79.77
793.307	80
793.483	79.89
793.659	84.31
793.835	84.79
794.011	85.61
794.187	89.78
794.363	86.2
794.539	86.38
794.715	82.44
794.891	79.07
795.067	78.04
795.243	82.53
795.419	82.68
795.595	85.89
795.771	89.71
795.947	91.37
796.122	87.31
796.298	86.43
796.474	83.83
796.65	82.58
796.826	80.55
797.001	78.87
797.177	77.91
797.353	76.62
797.529	77.76
797.704	78.2
797.88	84.07
798.056	85.26
798.231	89.04
798.407	88.43
798.582	87.76
798.758	85.86
798.934	86.7
799.109	86.41
799.285	89.23
799.46	88.68
799.636	89.32
799.811	88.29
799.986	88.19
800.162	85.42
800.337	86.84
800.513	83.98
800.688	85.64
800.863	86.13
801.039	86.72
801.214	84.46
801.389	87.36
801.565	85.88
801.74	84.27
801.915	83.52
802.09	82.6
802.265	77.35
802.441	75.83
802.616	72.43
802.791	74.38
802.966	74.8
803.141	73.64
803.316	72.24
803.491	75.62
803.666	71.16
803.841	66.04
804.016	70.25
804.191	72.28
804.366	73.17
804.541	77.13
804.716	80.66
804.891	79.38
805.066	78.74
805.241	77.81
805.416	76.03
805.591	75.95
805.765	78.47
805.94	76.95
806.115	71.87
806.29	71.64
806.464	81.92
806.639	77.46
806.814	78.35
806.989	82.8
807.163	77.93
807.338	70.27
807.512	70.93
807.687	71.28
807.862	72.36
808.036	77.03
808.211	77.18
808.385	79.64
808.56	79.13
808.734	74.27
808.909	69.92
809.083	74.45
809.258	73.74
809.432	77.16
809.606	74.29
809.781	77.91
809.955	74.19
810.13	77.51
810.304	74.15
810.478	78.12
810.652	75.43
810.827	77.53
811.001	72.81
811.175	74.46
811.349	71.45
811.524	74.59
811.698	70.32
811.872	70.01
812.046	68.35
812.22	77.39
812.394	79.03
812.568	87.46
812.742	89.55
812.916	88.43
813.09	83.32
813.264	82.47
813.438	76.99
813.612	79.66
813.786	82.64
813.96	90.49
814.134	89.11
814.308	86.82
814.482	76.46
814.656	66.57
814.83	58.62
815.003	58.72
815.177	61.04
815.351	64.99
815.525	70.28
815.698	73.01
815.872	77.82
816.046	79.27
816.219	88.1
816.393	97.04
816.567	103.03
816.74	98.65
816.914	96.89
817.088	87.44
817.261	79.85
817.435	69.28
817.608	65.99
817.782	69.62
817.955	76.47
818.129	82.01
818.302	90.05
818.475	80.33
818.649	74.26
818.822	70.14
818.996	70.35
819.169	72.47
819.342	79.91
819.516	82.28
819.689	78.06
819.862	70.31
820.035	54.23
820.209	54.83
820.382	66.54
820.555	68.85
820.728	72.65
820.901	79.25
821.075	78.85
821.248	68.07
821.421	73.32
821.594	72.01
821.767	76.37
821.94	78.51
822.113	83.74
822.286	82.81
822.459	81.87
822.632	76.3
822.805	68.93
822.978	70.05
823.151	66.29
823.324	74.16
823.496	77.7
823.669	84.78
823.842	88.02
824.015	93.34
824.188	82.18
824.361	81.84
824.533	82.44
824.706	73.89
824.879	60.35
825.051	70.36
825.224	73.02
825.397	71.52
825.569	74.76
825.742	97.97
825.915	94.37
826.087	94.62
826.26	91.63
826.432	81.32
826.605	69.66
826.777	67.38
826.95	61.85
827.122	53.81
827.295	59.98
827.467	56.78
827.64	51.23
827.812	59.11
827.984	64.2
828.157	58.49
828.329	62.08
828.501	66.18
828.674	57.2
828.846	56.91
829.018	58.16
829.19	49.36
829.363	52.31
829.535	47.27
829.707	49.62
829.879	60.56
830.051	65.22
830.223	62.78
830.395	82.99
830.568	71.95
830.74	64.42
830.912	79.53
831.084	72.25
831.256	49
831.428	42.92
831.6	52.69
831.772	53.21
831.943	63.95
832.115	88.13
832.287	109.08
832.459	102.33
832.631	91.79
832.803	93.57
832.975	83.82
833.146	74.69
833.318	68.97
833.49	70.71
833.662	67.72
833.833	56.13
834.005	56.13
834.177	64.06
834.348	70.42
834.52	56.88
834.692	59.12
834.863	54.66
835.035	49.65
835.206	49.88
835.378	58.42
835.549	54.31
835.721	66.61
835.892	72.1
836.064	63.93
836.235	66.95
836.407	80.53
836.578	73.31
836.749	69.31
836.921	61.81
837.092	57.11
837.264	56.61
837.435	61.94
837.606	67.51
837.777	84.41
837.949	92.4
838.12	73.39
838.291	70.34
838.462	58.83
838.633	49.03
838.805	44.96
838.976	53.22
839.147	48.4
839.318	44.77
839.489	52.24
839.66	50.61
839.831	56.14
840.002	55.87
840.173	61.2
840.344	56.17
840.515	56.68
840.686	31.15
840.857	37.03
841.028	37.55
841.199	37.8
841.369	41.87
841.54	62.76
841.711	63.04
841.882	58.79
842.053	61.59
842.223	58.1
842.394	38.69
842.565	23.26
842.736	21.11
842.906	17.4
843.077	31.43
843.248	57.85
843.418	67.12
843.589	65.33
843.759	62.13
843.93	50.35
844.101	45.15
844.271	46.11
844.442	41.63
844.612	46.79
844.783	60.05
844.953	59.46
845.123	64.12
845.294	81
845.464	81.92
845.635	65.19
845.805	61.12
845.975	53.77
846.146	47.6
846.316	55.93
846.486	60
846.656	79.04
846.827	86.09
846.997	88.02
847.167	79.94
847.337	96.39
847.507	79.12
847.677	77.24
847.848	88.64
848.018	108.41
848.188	90.19
848.358	85.47
848.528	80.88
848.698	70.55
848.868	60.16
849.038	48.45
849.208	56.5
849.378	52.98
849.548	45.71
849.718	49.85
849.887	55.39
850.057	64.19
850.227	86.44
850.397	86.08
850.567	98.29
850.737	78.37
850.906	69.51
851.076	73.3
851.246	108.33
851.415	72.64
851.585	101.51
851.755	92.23
851.924	65.43
852.094	35.5
852.264	55.46
852.433	55.63
852.603	60.34
852.772	70.08
852.942	73.54
853.111	61.85
853.281	61.87
853.45	61.42
853.62	53.06
853.789	49.94
853.959	60.45
854.128	72.36
854.297	68.33
854.467	78.87
854.636	79.54
854.805	75.6
854.975	44.75
855.144	46.06
855.313	41.89
855.482	36.75
855.652	28.66
855.821	47.16
855.99	41.97
856.159	52.19
856.328	61.5
856.497	52.15
856.667	56.75
856.836	56.08
857.005	40.11
857.174	58.56
857.343	74.1
857.512	58.09
857.681	56.31
857.85	52.84
858.019	18.04
858.188	34.07
858.356	20.57
858.525	35.59
858.694	32.57
858.863	54.05
859.032	46.96
859.201	45.81
859.369	58.46
859.538	67.97
859.707	56.23
859.876	49.42
860.044	56.03
860.213	56
860.382	52.47
860.55	51.79
860.719	37.85
860.888	45.92
861.056	49.66
861.225	36.4
861.393	46.16
861.562	62.73
861.73	59.72
861.899	33.25
862.067	49.93
862.236	57.46
862.404	58.82
862.572	62.66
862.741	74.34
862.909	74.12
863.078	64.22
863.246	60.57
863.414	49.4
863.582	38.03
863.751	49.39
863.919	38.85
864.087	48.34
864.255	53.57
864.424	81.22
864.592	79.91
864.76	114.18
864.928	220.54
865.096	163.7
865.264	159.51
865.432	150.68
865.6	110.66
865.768	47.61
865.936	44.06
866.104	50.15
866.272	51.34
866.44	6.33
866.608	15.44
866.776	13.02
866.944	9.19
867.112	-5
867.28	-5.21
867.448	-13.78
867.615	17.61
867.783	28.79
867.951	75.62
868.119	103.76
868.286	77.19
868.454	56.11
868.622	64.98
868.789	40.33
868.957	46.9
869.125	51.14
869.292	68.24
869.46	66.82
869.627	71.61
869.795	40.29
869.963	40.87
870.13	40.01
870.298	53.65
870.465	65.01
870.632	75.79
870.8	65.23
870.967	42.4
871.135	23.08
871.302	1.11
871.469	-23.13
871.637	-10.79
871.804	60.49
871.971	48.57
872.139	63.94
872.306	45.41
872.473	55.64
872.64	43.64
872.807	48.49
872.975	49.1
873.142	48.94
873.309	49.58
873.476	57.86
873.643	75.87
873.81	85.02
873.977	91.93
874.144	76
874.311	74.48
874.478	52.41
874.645	50.38
874.812	58.28
874.979	69.83
875.146	58.8
875.313	101.22
875.48	92.91
875.647	57.58
875.813	55.91
875.98	60.37
876.147	59.89
876.314	53.99
876.481	62.79
876.647	50.46
876.814	44.82
876.981	46.07
877.147	39.85
877.314	30.73
877.481	41.61
877.647	44.63
877.814	10.54
877.98	15.16
878.147	48.41
878.314	55.23
878.48	66.72
878.647	75.72
878.813	86.51
878.979	40.88
879.146	22.66
879.312	22.68
879.479	0.31
879.645	8.68
879.811	44.06
879.978	56.1
880.144	40.06
880.31	39.46
880.477	64.49
880.643	65.8
880.809	46.01
880.975	66.4
881.142	79.14
881.308	1.91
881.474	-12.22
881.64	45.01
881.806	46.84
881.972	44.83
882.138	61.38
882.304	105.25
882.47	57.61
882.636	33.33
882.802	34.72
882.968	23.46
883.134	-49.61
883.3	28.43
883.466	21.38
883.632	76.27
883.798	83.71
883.964	94.09
884.129	101.94
884.295	87.16
884.461	41.18
884.627	26.3
884.793	39.83
884.958	53.08
885.124	58.34
885.29	89.51
885.455	153.59
885.621	161.65
885.787	85.7
885.952	78.59
886.118	39.59
886.283	8.82
886.449	23.21
886.614	31.13
886.78	27.68
886.945	52.23
887.111	43.63
887.276	39.07
887.442	38.53
887.607	40.77
887.773	26.1
887.938	33.18
888.103	30.6
888.269	70.33
888.434	60.88
888.599	82.34
888.764	88.82
888.93	100.65
889.095	91.41
889.26	116.16
889.425	89.55
889.59	81.84
889.756	73.07
889.921	37.84
890.086	33.4
890.251	32.41
890.416	10.62
890.581	15.76
890.746	45.88
890.911	34.33
891.076	41.95
891.241	46.08
891.406	45.25
891.571	40.02
891.736	33.5
891.901	17.49
892.065	6.46
892.23	20.81
892.395	25.97
892.56	45.86
892.725	79.12
892.889	99.35
893.054	85.42
893.219	70.63
893.384	45.84
893.548	15.6
893.713	-15.84
893.878	-18.37
