Data from Ofra_PS_Phys_2CX10_Reflection_3.txt Node
Date: Tue Jul 20 14:48:27 EDT 2021
User: USUARIO
Spectrometer: FLMT01687
Trigger mode: 0
Integration Time (sec): 1.200000E0
Scans to average: 2
Electric dark correction enabled: true
Nonlinearity correction enabled: false
Boxcar width: 2
XAxis mode: Wavelengths
Number of Pixels in Spectrum: 3648
>>>>>Begin Spectral Data<<<<<
179.494	44.74
179.716	234.85
179.937	-0.51
180.158	17.04
180.38	66.48
180.601	104.49
180.823	379.84
181.044	274.94
181.265	-489.79
181.486	-206.51
181.708	134.46
181.929	78.42
182.15	187
182.372	-1717.89
182.593	263.67
182.814	-6166.67
183.035	-58.64
183.257	62.81
183.478	138.49
183.699	69.22
183.92	70.6
184.141	58.08
184.363	40.92
184.584	18.44
184.805	6.46
185.026	17.25
185.247	9.83
185.468	20.89
185.689	36.44
185.91	35.94
186.132	42.83
186.353	61.13
186.574	56.63
186.795	50.05
187.016	47.24
187.237	40.98
187.458	29.69
187.679	26.52
187.9	28.28
188.121	8.03
188.342	15.44
188.563	41.27
188.784	32.91
189.005	46.58
189.226	62.53
189.447	56.33
189.667	30.86
189.888	39.96
190.109	22.19
190.33	28.89
190.551	26.56
190.772	27.83
190.993	8.44
191.214	17.42
191.434	18.67
191.655	18.85
191.876	5.3
192.097	14.8
192.318	25.17
192.538	16.41
192.759	18.4
192.98	32.83
193.201	37.6
193.421	13.02
193.642	31.64
193.863	38.74
194.083	44.6
194.304	43.61
194.525	48.01
194.745	53.01
194.966	41.43
195.187	24.24
195.407	15.53
195.628	28.71
195.848	16.58
196.069	11.11
196.29	29.14
196.51	44.61
196.731	41.56
196.951	30.8
197.172	35.62
197.392	28.55
197.613	16.67
197.833	17.12
198.054	34.85
198.274	39.08
198.495	52.8
198.715	45.3
198.936	50.3
199.156	31.82
199.377	-44.43
199.597	-52.46
199.817	10.58
200.038	-5.18
200.258	6.87
200.479	44.36
200.699	32.06
200.919	25.68
201.14	62.44
201.36	61.97
201.58	68.16
201.801	74.08
202.021	57.8
202.241	53.1
202.461	52.86
202.682	40.47
202.902	28.85
203.122	29.67
203.342	20.6
203.563	18.71
203.783	21.57
204.003	16.09
204.223	38.75
204.443	43.43
204.663	39.89
204.884	62.25
205.104	72.87
205.324	49.45
205.544	20.11
205.764	23.47
205.984	2.14
206.204	-14.66
206.424	-6.72
206.644	-2.3
206.864	-9.83
207.084	-7.2
207.304	9.69
207.525	-2.34
207.745	19.4
207.964	31.88
208.184	44.36
208.404	36.35
208.624	53.48
208.844	37.04
209.064	40.88
209.284	44.36
209.504	48.35
209.724	40.35
209.944	59.76
210.164	57.49
210.384	64.89
210.604	50.28
210.823	54.06
211.043	45.9
211.263	33.89
211.483	10.26
211.703	32.49
211.922	38.23
212.142	32.76
212.362	29.97
212.582	25.99
212.801	15.56
213.021	9.15
213.241	8.83
213.461	-4.01
213.68	10.61
213.9	29.57
214.12	36.19
214.339	37.91
214.559	47.88
214.779	56.02
214.998	42.69
215.218	24.24
215.438	25.6
215.657	24.54
215.877	19.48
216.096	24.84
216.316	37.47
216.535	37.47
216.755	45.88
216.974	40.23
217.194	35.18
217.413	38.73
217.633	36.18
217.852	31.72
218.072	33.25
218.291	32.52
218.511	19.72
218.73	12.8
218.95	21.99
219.169	17.54
219.389	21.05
219.608	30.98
219.827	35.24
220.047	29.84
220.266	38.51
220.485	31.71
220.705	38.86
220.924	53.11
221.143	56.19
221.363	55.93
221.582	45.65
221.801	31.37
222.021	31.57
222.24	19.53
222.459	15.48
222.678	29.72
222.897	39.09
223.117	35.96
223.336	24.77
223.555	12.22
223.774	2.07
223.993	2.05
224.213	-5.78
224.432	12.41
224.651	32.5
224.87	37.11
225.089	29.54
225.308	51.76
225.527	44.43
225.746	36.5
225.965	29.33
226.184	26.81
226.404	6.81
226.623	28.5
226.842	27.36
227.061	37.66
227.28	45.84
227.499	60.82
227.718	51.84
227.936	49.24
228.155	38.54
228.374	31.25
228.593	22.09
228.812	21.95
229.031	19.81
229.25	15.05
229.469	18.61
229.688	15.48
229.907	18.91
230.125	18.41
230.344	16.67
230.563	19.63
230.782	31.96
231.001	30.08
231.22	36.61
231.438	45.01
231.657	55.23
231.876	48.04
232.095	53.61
232.313	57.45
232.532	65.23
232.751	59.55
232.969	54.03
233.188	42.37
233.407	30.95
233.625	1.4
233.844	-2.21
234.063	9.79
234.281	9.36
234.5	10.47
234.719	24.61
234.937	37.53
235.156	45.1
235.374	57.09
235.593	54.01
235.811	55.64
236.03	48.87
236.249	43.79
236.467	36.95
236.686	27.46
236.904	17.96
237.123	20.11
237.341	12.79
237.559	20.9
237.778	33.66
237.996	43.18
238.215	41.92
238.433	49.83
238.652	45.07
238.87	48.69
239.088	56.04
239.307	49.69
239.525	40.43
239.743	38.38
239.962	27.72
240.18	16.96
240.398	18.51
240.617	17.08
240.835	21.1
241.053	29.23
241.271	44.22
241.49	44.15
241.708	61.23
241.926	72.32
242.144	81.23
242.363	76.22
242.581	79.67
242.799	79.75
243.017	57.72
243.235	50.93
243.453	51.15
243.672	39.92
243.89	26.97
244.108	23.96
244.326	1.01
244.544	-7.42
244.762	6.08
244.98	7.02
245.198	8.67
245.416	15.24
245.634	15.25
245.852	28.57
246.07	33.36
246.288	38.99
246.506	27.22
246.724	26.47
246.942	15.99
247.16	23.72
247.378	25.39
247.596	47.52
247.814	51.1
248.032	55.18
248.25	51.12
248.468	52.12
248.685	34
248.903	28.84
249.121	39.42
249.339	34.28
249.557	38.32
249.775	50.21
249.992	50.33
250.21	45.94
250.428	43.04
250.646	36.75
250.863	30.4
251.081	37.6
251.299	40.21
251.517	52.72
251.734	52.2
251.952	45.74
252.17	40.78
252.387	37.44
252.605	32.87
252.823	37.48
253.04	37.62
253.258	38.67
253.475	43.93
253.693	42.76
253.911	42.8
254.128	35.68
254.346	31.37
254.563	1.04
254.781	2.03
254.998	-22.36
255.216	2.2
255.433	24.7
255.651	44.02
255.868	44.81
256.086	46.95
256.303	46.98
256.521	40.31
256.738	35.1
256.956	27.33
257.173	27.92
257.39	17.58
257.608	16.1
257.825	23.31
258.043	18.61
258.26	15.83
258.477	22.41
258.695	9.51
258.912	15.64
259.129	33.56
259.346	36.21
259.564	34.04
259.781	36.17
259.998	49.76
260.216	39.75
260.433	50.12
260.65	49.12
260.867	50.12
261.084	21.79
261.302	29.06
261.519	-0.35
261.736	2.14
261.953	0.53
262.17	19.79
262.387	24.92
262.604	37.89
262.822	50.72
263.039	43.02
263.256	26.57
263.473	22.97
263.69	17.95
263.907	2.45
264.124	18.12
264.341	36.39
264.558	36.44
264.775	40.58
264.992	47.67
265.209	45.51
265.426	47.62
265.643	44.98
265.86	49.95
266.077	63.32
266.294	50.3
266.51	45.31
266.727	44.84
266.944	39.51
267.161	29.57
267.378	41.77
267.595	41.53
267.812	35.69
268.028	42.21
268.245	49.34
268.462	41.61
268.679	26.67
268.896	28.63
269.112	35.85
269.329	30.44
269.546	23.56
269.763	34.17
269.979	34.81
270.196	24.19
270.413	31.81
270.629	39.07
270.846	50.18
271.063	61.93
271.279	56.18
271.496	46.49
271.712	56.08
271.929	50.52
272.146	53.61
272.362	46.19
272.579	54.1
272.795	38.68
273.012	37.33
273.228	34.18
273.445	37.29
273.661	30.33
273.878	21.24
274.094	14.63
274.311	1.85
274.527	-0.16
274.744	-4.5
274.96	12.98
275.177	15.8
275.393	3.94
275.609	19.48
275.826	30.33
276.042	34.85
276.259	25.36
276.475	31
276.691	26.87
276.908	19.43
277.124	29.32
277.34	31.41
277.557	38.46
277.773	35
277.989	46.26
278.205	36.28
278.422	32.77
278.638	34.41
278.854	47.52
279.07	34.42
279.286	37.41
279.503	41.84
279.719	37.05
279.935	23.65
280.151	23.34
280.367	28.64
280.583	33.13
280.799	32.58
281.016	46.83
281.232	47.24
281.448	47
281.664	45.28
281.88	45.73
282.096	45.66
282.312	51.26
282.528	52.86
282.744	54.29
282.96	55.37
283.176	52.98
283.392	43.92
283.608	37.2
283.824	37.32
284.04	30.61
284.256	20.27
284.471	16.61
284.687	14.43
284.903	6.3
285.119	20.65
285.335	39.98
285.551	48.21
285.767	41.36
285.982	51.76
286.198	35.79
286.414	29.43
286.63	36.8
286.846	32.68
287.061	29.92
287.277	27.72
287.493	24.85
287.709	17.49
287.924	24
288.14	22.85
288.356	30.82
288.571	26.59
288.787	14.18
289.003	18.76
289.218	16.65
289.434	19.88
289.65	19.23
289.865	17.5
290.081	19.77
290.296	12.41
290.512	-5.45
290.727	-14.45
290.943	-1.32
291.159	-7.38
291.374	-4.33
291.59	-2.65
291.805	6.84
292.021	6.42
292.236	4.66
292.451	26.23
292.667	29.42
292.882	43.84
293.098	50.59
293.313	56.98
293.529	39
293.744	34.28
293.959	8.49
294.175	-0.37
294.39	-12.04
294.605	-3.1
294.821	1.86
295.036	21.04
295.251	36.24
295.467	36.28
295.682	30.13
295.897	29.56
296.112	23.32
296.328	15.69
296.543	5.47
296.758	13.07
296.973	13.85
297.188	21.38
297.404	18.75
297.619	21.03
297.834	26.4
298.049	28.57
298.264	34.46
298.479	35.16
298.694	41.06
298.909	30.85
299.125	45.92
299.34	16.7
299.555	13.23
299.77	23.3
299.985	19.39
300.2	4.58
300.415	11.32
300.63	22.85
300.845	11.14
301.06	17.83
301.275	9.93
301.49	10.19
301.704	18.34
301.919	28.15
302.134	25.48
302.349	31.35
302.564	34.28
302.779	18.4
302.994	8.14
303.209	27.62
303.423	32.19
303.638	39.56
303.853	58.74
304.068	54.62
304.283	30.89
304.497	33.92
304.712	22.8
304.927	36.34
305.142	39.1
305.356	40.1
305.571	27.09
305.786	39.49
306	10.91
306.215	8.3
306.43	17.48
306.644	18.85
306.859	26
307.074	36.47
307.288	36.06
307.503	35.19
307.717	42.56
307.932	39.68
308.147	29.38
308.361	34.61
308.576	19.13
308.79	8.91
309.005	8.47
309.219	5.41
309.434	6.43
309.648	25.5
309.863	34.23
310.077	34.71
310.292	38.35
310.506	37.94
310.72	29.19
310.935	50.07
311.149	48.38
311.364	37.58
311.578	48.08
311.792	41.04
312.007	31.27
312.221	26.92
312.435	44
312.649	34.93
312.864	43.18
313.078	48.14
313.292	46.24
313.507	24.25
313.721	12.68
313.935	23.11
314.149	17.58
314.363	21.52
314.578	11.74
314.792	11.34
315.006	15.92
315.22	13.73
315.434	21.13
315.648	24.88
315.862	24.84
316.077	15.51
316.291	23.34
316.505	22.59
316.719	27.93
316.933	31.25
317.147	21.78
317.361	2.44
317.575	-26.79
317.789	-13.86
318.003	-12.63
318.217	-3.9
318.431	18.51
318.645	31.81
318.859	18.87
319.073	18.36
319.287	17.12
319.5	-3.17
319.714	5.33
319.928	31.63
320.142	32.99
320.356	35.24
320.57	48.32
320.784	46.25
320.997	42.07
321.211	52.48
321.425	65.86
321.639	49.89
321.853	48.83
322.066	51.67
322.28	18.44
322.494	14.11
322.707	23.69
322.921	17.26
323.135	5.6
323.349	10.88
323.562	8
323.776	5.97
323.989	3.95
324.203	4.88
324.417	6.64
324.63	4.39
324.844	9.99
325.057	21.31
325.271	36.81
325.485	33.87
325.698	37.78
325.912	32.23
326.125	23.21
326.339	17.84
326.552	19.75
326.766	19.48
326.979	18.26
327.193	25.2
327.406	20.45
327.619	21.35
327.833	32.76
328.046	27.26
328.26	32.52
328.473	38.92
328.686	47.51
328.9	32.06
329.113	40.17
329.326	23.7
329.54	19.23
329.753	8.34
329.966	21.16
330.179	23.17
330.393	36.35
330.606	39.59
330.819	41.52
331.032	40.08
331.246	37.21
331.459	45.65
331.672	34.89
331.885	32.34
332.098	23.57
332.311	26.88
332.525	1.41
332.738	11.81
332.951	23.3
333.164	21.89
333.377	19.91
333.59	23.75
333.803	23.4
334.016	12.79
334.229	13.87
334.442	19.6
334.655	19.91
334.868	29.34
335.081	27.36
335.294	40.85
335.507	32.86
335.72	33.48
335.933	23.63
336.146	30.78
336.359	26.25
336.572	26.92
336.785	8.59
336.997	5.61
337.21	3.5
337.423	-0.34
337.636	-11.03
337.849	4.82
338.062	18.11
338.274	23.29
338.487	22.41
338.7	26.3
338.913	19.7
339.125	14.01
339.338	2.12
339.551	0.15
339.763	3.66
339.976	31.15
340.189	24.82
340.402	42.47
340.614	42.89
340.827	43.44
341.039	34.74
341.252	41.28
341.465	30.15
341.677	33.02
341.89	27.33
342.102	18.85
342.315	29.84
342.527	31.97
342.74	27.1
342.952	35.38
343.165	38
343.377	25.9
343.59	25.78
343.802	26.98
344.015	22.59
344.227	27.77
344.44	38.75
344.652	37.73
344.864	25.27
345.077	17.42
345.289	20.55
345.502	14.83
345.714	11.67
345.926	15.71
346.139	33.41
346.351	22.4
346.563	25.71
346.775	31.52
346.988	32.66
347.2	14.17
347.412	18.53
347.624	22.77
347.837	24.18
348.049	32.37
348.261	31.12
348.473	34.07
348.685	27.63
348.897	25.67
349.11	16.75
349.322	23.35
349.534	19.78
349.746	18.58
349.958	21.91
350.17	32.24
350.382	26.6
350.594	27.79
350.806	29.3
351.018	25.7
351.23	19.86
351.442	29.18
351.654	25.44
351.866	34.18
352.078	37.14
352.29	47.18
352.502	40.25
352.714	33.15
352.926	30.08
353.138	26.46
353.35	18.95
353.561	13.2
353.773	17.71
353.985	15.29
354.197	18.24
354.409	7.52
354.621	14.13
354.832	19.34
355.044	21.87
355.256	19.77
355.468	33.45
355.679	40.1
355.891	40.59
356.103	34.07
356.314	32.35
356.526	27.05
356.738	25.1
356.949	24.27
357.161	28.74
357.373	33.59
357.584	37.37
357.796	38.87
358.008	31.25
358.219	29.76
358.431	27.98
358.642	36.78
358.854	35.83
359.065	33.71
359.277	25.53
359.488	16.78
359.7	11.62
359.911	1.13
360.123	8.97
360.334	12.95
360.546	22.83
360.757	23.43
360.969	30.33
361.18	29.84
361.391	27.69
361.603	33.63
361.814	26.58
362.025	21.13
362.237	22.23
362.448	25.19
362.659	6.55
362.871	5.23
363.082	13.26
363.293	9.55
363.504	2.57
363.716	13.66
363.927	13.77
364.138	19.15
364.349	25.28
364.56	25.26
364.772	24.87
364.983	26.55
365.194	19.66
365.405	13.27
365.616	14.33
365.827	5.18
366.038	7.64
366.25	12.49
366.461	15.72
366.672	16.02
366.883	21.52
367.094	28.09
367.305	30.67
367.516	32.15
367.727	31.45
367.938	41.84
368.149	30.6
368.36	27.88
368.571	23.42
368.781	24.84
368.992	19.13
369.203	14.26
369.414	0.8
369.625	11.15
369.836	7.57
370.047	6.85
370.258	17.39
370.468	27.28
370.679	16.6
370.89	20.01
371.101	27.91
371.312	13.81
371.522	17.62
371.733	28.32
371.944	30.19
372.155	29.67
372.365	40.08
372.576	30.95
372.787	16.11
372.997	10.11
373.208	-4.89
373.419	-4.27
373.629	-4.03
373.84	8.14
374.05	20.52
374.261	23.09
374.472	25.04
374.682	28.72
374.893	28.38
375.103	19.06
375.314	30.87
375.524	22.96
375.735	24.43
375.945	30
376.156	33.49
376.366	17.91
376.577	17.93
376.787	16.26
376.997	12.49
377.208	18.39
377.418	18.49
377.629	30.91
377.839	30.98
378.049	30.02
378.26	20.34
378.47	22.13
378.68	22.74
378.89	17.07
379.101	14.49
379.311	19.93
379.521	22.86
379.732	16.66
379.942	18.2
380.152	15.67
380.362	13.38
380.572	15.49
380.783	18.18
380.993	20.09
381.203	21.83
381.413	27.79
381.623	16.3
381.833	24.46
382.043	16.86
382.253	10.67
382.463	5.47
382.674	18.3
382.884	11.43
383.094	15.68
383.304	26.63
383.514	23.23
383.724	25.47
383.934	24.97
384.144	26.08
384.353	19.2
384.563	15.8
384.773	15.98
384.983	24.59
385.193	24.51
385.403	25.04
385.613	30.87
385.823	25.17
386.033	16.6
386.242	12.72
386.452	16.86
386.662	19.52
386.872	21.22
387.082	20.21
387.291	20.28
387.501	17.01
387.711	9.1
387.921	8.65
388.13	6.47
388.34	12.72
388.55	13.82
388.759	14.5
388.969	12.01
389.179	15
389.388	13.37
389.598	9.63
389.807	9.14
390.017	11.72
390.227	9.88
390.436	6.88
390.646	12.31
390.855	16.07
391.065	14.71
391.274	15.69
391.484	15.67
391.693	9.99
391.903	8.39
392.112	8.29
392.322	6.62
392.531	7.39
392.74	10.25
392.95	10.02
393.159	10.9
393.369	10.77
393.578	9.71
393.787	7.63
393.997	8.07
394.206	7
394.415	9.13
394.625	9.85
394.834	10.27
395.043	9.48
395.252	8.97
395.462	7.28
395.671	6.4
395.88	6.35
396.089	6.95
396.298	6.65
396.508	8.5
396.717	8.7
396.926	8.68
397.135	8.05
397.344	8.34
397.553	7.62
397.762	7.54
397.971	7.01
398.181	6.43
398.39	6.1
398.599	5.66
398.808	5.53
399.017	6.54
399.226	7.21
399.435	7.74
399.644	7.47
399.853	7.98
400.062	7.42
400.27	7.29
400.479	6.73
400.688	7.13
400.897	6.86
401.106	7.03
401.315	6.75
401.524	7.07
401.733	6.93
401.941	7.07
402.15	7.02
402.359	7.04
402.568	7.04
402.777	6.84
402.985	6.61
403.194	6.41
403.403	6.4
403.612	6.28
403.82	6.15
404.029	5.78
404.238	5.91
404.446	6.06
404.655	5.86
404.864	5.97
405.072	6.18
405.281	6.22
405.489	6.17
405.698	6.31
405.906	6.26
406.115	6.29
406.324	6.14
406.532	6.01
406.741	5.79
406.949	5.77
407.158	5.77
407.366	5.71
407.574	5.83
407.783	5.83
407.991	5.9
408.2	6.06
408.408	6.13
408.617	5.82
408.825	5.89
409.033	5.95
409.242	5.65
409.45	5.66
409.658	5.66
409.867	5.62
410.075	5.44
410.283	5.5
410.491	5.38
410.7	5.43
410.908	5.5
411.116	5.46
411.324	5.41
411.533	5.38
411.741	5.46
411.949	5.41
412.157	5.48
412.365	5.52
412.573	5.54
412.781	5.44
412.99	5.56
413.198	5.48
413.406	5.39
413.614	5.21
413.822	5.22
414.03	5.12
414.238	5.03
414.446	5.1
414.654	5.17
414.862	5.21
415.07	5.08
415.278	5.01
415.486	4.9
415.694	4.91
415.902	4.84
416.109	4.77
416.317	4.94
416.525	4.96
416.733	5.02
416.941	5.03
417.149	5.1
417.357	5.03
417.564	4.9
417.772	5.04
417.98	4.99
418.188	5.03
418.395	5.13
418.603	5.23
418.811	5.04
419.019	4.91
419.226	4.99
419.434	4.92
419.642	4.88
419.849	4.91
420.057	4.95
420.265	4.94
420.472	4.78
420.68	4.85
420.887	4.75
421.095	4.8
421.302	4.57
421.51	4.66
421.717	4.4
421.925	4.3
422.132	4.3
422.34	4.35
422.547	4.24
422.755	4.39
422.962	4.56
423.17	4.52
423.377	4.43
423.585	4.39
423.792	4.32
423.999	4.26
424.207	4.43
424.414	4.63
424.621	4.52
424.829	4.58
425.036	4.55
425.243	4.48
425.451	4.48
425.658	4.68
425.865	4.78
426.072	4.75
426.28	4.63
426.487	4.46
426.694	4.47
426.901	4.25
427.108	4.28
427.315	4.27
427.523	4.26
427.73	4.36
427.937	4.51
428.144	4.49
428.351	4.61
428.558	4.77
428.765	4.71
428.972	4.62
429.179	4.66
429.386	4.65
429.593	4.63
429.8	4.5
430.007	4.58
430.214	4.68
430.421	4.64
430.628	4.45
430.835	4.51
431.042	4.55
431.249	4.52
431.456	4.55
431.662	4.67
431.869	4.86
432.076	4.9
432.283	4.89
432.49	4.97
432.697	4.97
432.903	4.81
433.11	4.69
433.317	4.77
433.524	4.82
433.73	4.85
433.937	4.93
434.144	5.03
434.35	5.06
434.557	4.87
434.764	4.87
434.97	4.76
435.177	4.73
435.384	4.57
435.59	4.63
435.797	4.7
436.003	4.78
436.21	4.82
436.416	5.02
436.623	5.1
436.829	5.05
437.036	5.15
437.242	5.07
437.449	4.97
437.655	4.98
437.862	5.05
438.068	4.93
438.275	4.96
438.481	4.96
438.687	4.87
438.894	4.88
439.1	5
439.307	5.08
439.513	5.05
439.719	5.1
439.926	5.06
440.132	5.1
440.338	5.13
440.544	5.16
440.751	5.22
440.957	5.37
441.163	5.37
441.369	5.43
441.575	5.43
441.782	5.44
441.988	5.34
442.194	5.33
442.4	5.26
442.606	5.32
442.812	5.35
443.018	5.29
443.224	5.27
443.431	5.33
443.637	5.34
443.843	5.37
444.049	5.45
444.255	5.49
444.461	5.48
444.667	5.45
444.873	5.5
445.079	5.53
445.284	5.52
445.49	5.5
445.696	5.52
445.902	5.4
446.108	5.4
446.314	5.41
446.52	5.46
446.726	5.48
446.931	5.49
447.137	5.47
447.343	5.45
447.549	5.42
447.755	5.45
447.96	5.49
448.166	5.52
448.372	5.52
448.578	5.57
448.783	5.48
448.989	5.54
449.195	5.52
449.4	5.5
449.606	5.39
449.812	5.49
450.017	5.47
450.223	5.53
450.428	5.52
450.634	5.59
450.84	5.56
451.045	5.55
451.251	5.42
451.456	5.43
451.662	5.45
451.867	5.51
452.073	5.5
452.278	5.61
452.483	5.68
452.689	5.72
452.894	5.62
453.1	5.62
453.305	5.63
453.51	5.67
453.716	5.65
453.921	5.76
454.127	5.77
454.332	5.68
454.537	5.56
454.742	5.63
454.948	5.64
455.153	5.69
455.358	5.69
455.563	5.72
455.769	5.8
455.974	5.79
456.179	5.73
456.384	5.75
456.589	5.79
456.795	5.66
457	5.58
457.205	5.61
457.41	5.64
457.615	5.6
457.82	5.56
458.025	5.58
458.23	5.51
458.435	5.57
458.64	5.54
458.845	5.59
459.05	5.56
459.255	5.73
459.46	5.68
459.665	5.74
459.87	5.77
460.075	5.9
460.28	5.78
460.485	5.76
460.69	5.8
460.895	5.77
461.099	5.67
461.304	5.8
461.509	5.88
461.714	5.89
461.919	5.87
462.123	5.86
462.328	5.85
462.533	5.83
462.738	5.91
462.942	5.95
463.147	6.02
463.352	5.92
463.556	5.88
463.761	5.71
463.966	5.66
464.17	5.7
464.375	5.78
464.58	5.93
464.784	5.96
464.989	6.03
465.193	5.93
465.398	5.9
465.602	5.86
465.807	5.94
466.011	5.93
466.216	5.93
466.42	5.89
466.625	5.96
466.829	5.95
467.034	5.94
467.238	6.08
467.443	6.11
467.647	6.01
467.851	6.07
468.056	6.06
468.26	6.09
468.464	6.23
468.669	6.18
468.873	6.26
469.077	6.31
469.282	6.29
469.486	6.2
469.69	6.33
469.894	6.29
470.099	6.35
470.303	6.44
470.507	6.46
470.711	6.44
470.915	6.43
471.119	6.42
471.324	6.35
471.528	6.39
471.732	6.46
471.936	6.39
472.14	6.41
472.344	6.39
472.548	6.44
472.752	6.42
472.956	6.55
473.16	6.56
473.364	6.58
473.568	6.59
473.772	6.63
473.976	6.59
474.18	6.63
474.384	6.62
474.588	6.63
474.792	6.63
474.995	6.68
475.199	6.66
475.403	6.8
475.607	6.82
475.811	6.91
476.015	6.95
476.218	7.04
476.422	7.01
476.626	7.04
476.83	6.98
477.033	6.96
477.237	6.95
477.441	6.92
477.644	6.84
477.848	6.84
478.052	6.86
478.255	6.87
478.459	6.88
478.663	7.03
478.866	7.09
479.07	7.11
479.273	7.07
479.477	7.13
479.681	7.11
479.884	7.06
480.088	7.12
480.291	7.21
480.495	7.23
480.698	7.22
480.901	7.29
481.105	7.27
481.308	7.17
481.512	7.17
481.715	7.19
481.919	7.22
482.122	7.23
482.325	7.29
482.529	7.37
482.732	7.36
482.935	7.33
483.138	7.4
483.342	7.43
483.545	7.43
483.748	7.45
483.952	7.49
484.155	7.5
484.358	7.5
484.561	7.45
484.764	7.43
484.967	7.42
485.171	7.4
485.374	7.31
485.577	7.38
485.78	7.39
485.983	7.47
486.186	7.42
486.389	7.46
486.592	7.43
486.795	7.49
486.998	7.38
487.201	7.46
487.404	7.5
487.607	7.52
487.81	7.5
488.013	7.51
488.216	7.52
488.419	7.58
488.622	7.53
488.825	7.47
489.028	7.51
489.231	7.54
489.433	7.48
489.636	7.55
489.839	7.65
490.042	7.65
490.245	7.62
490.447	7.64
490.65	7.68
490.853	7.68
491.056	7.68
491.258	7.68
491.461	7.67
491.664	7.62
491.866	7.59
492.069	7.64
492.272	7.64
492.474	7.74
492.677	7.8
492.879	7.89
493.082	8.02
493.285	8.04
493.487	8
493.69	7.97
493.892	7.9
494.095	7.83
494.297	7.92
494.5	8.09
494.702	8.1
494.905	8.15
495.107	8.17
495.309	8.24
495.512	8.1
495.714	8.23
495.917	8.28
496.119	8.31
496.321	8.25
496.524	8.37
496.726	8.32
496.928	8.33
497.13	8.39
497.333	8.44
497.535	8.44
497.737	8.48
497.939	8.53
498.142	8.49
498.344	8.51
498.546	8.5
498.748	8.53
498.95	8.53
499.152	8.6
499.355	8.57
499.557	8.62
499.759	8.66
499.961	8.68
500.163	8.72
500.365	8.84
500.567	8.93
500.769	8.98
500.971	9
501.173	9
501.375	9.06
501.577	9.11
501.779	9.16
501.981	9.2
502.183	9.28
502.385	9.26
502.587	9.22
502.788	9.22
502.99	9.23
503.192	9.26
503.394	9.32
503.596	9.26
503.798	9.29
503.999	9.34
504.201	9.38
504.403	9.34
504.605	9.43
504.806	9.41
505.008	9.44
505.21	9.46
505.411	9.49
505.613	9.53
505.815	9.58
506.016	9.62
506.218	9.61
506.42	9.59
506.621	9.59
506.823	9.6
507.024	9.62
507.226	9.65
507.427	9.69
507.629	9.73
507.83	9.75
508.032	9.74
508.233	9.78
508.435	9.8
508.636	9.83
508.838	9.83
509.039	9.83
509.24	9.86
509.442	9.91
509.643	9.96
509.845	9.98
510.046	10.08
510.247	10.04
510.448	10.03
510.65	10.01
510.851	10.02
511.052	10.04
511.254	10.12
511.455	10.13
511.656	10.12
511.857	10.2
512.058	10.17
512.26	10.14
512.461	10.19
512.662	10.27
512.863	10.28
513.064	10.34
513.265	10.37
513.466	10.4
513.667	10.41
513.868	10.37
514.069	10.32
514.27	10.33
514.471	10.36
514.672	10.32
514.873	10.34
515.074	10.43
515.275	10.42
515.476	10.38
515.677	10.43
515.878	10.51
516.079	10.51
516.28	10.57
516.481	10.62
516.682	10.67
516.882	10.63
517.083	10.66
517.284	10.66
517.485	10.64
517.686	10.64
517.886	10.63
518.087	10.57
518.288	10.62
518.488	10.61
518.689	10.59
518.89	10.62
519.091	10.67
519.291	10.69
519.492	10.8
519.692	10.9
519.893	10.93
520.094	10.94
520.294	10.94
520.495	10.91
520.695	10.9
520.896	10.91
521.096	10.96
521.297	10.95
521.497	11.03
521.698	11.07
521.898	11.07
522.099	11.05
522.299	11.1
522.499	11.11
522.7	11.08
522.9	11.13
523.101	11.2
523.301	11.19
523.501	11.26
523.702	11.27
523.902	11.29
524.102	11.32
524.302	11.3
524.503	11.24
524.703	11.32
524.903	11.29
525.103	11.3
525.304	11.32
525.504	11.32
525.704	11.25
525.904	11.29
526.104	11.29
526.304	11.35
526.504	11.39
526.705	11.46
526.905	11.53
527.105	11.5
527.305	11.46
527.505	11.47
527.705	11.47
527.905	11.42
528.105	11.42
528.305	11.5
528.505	11.52
528.705	11.61
528.905	11.64
529.105	11.68
529.304	11.69
529.504	11.73
529.704	11.71
529.904	11.76
530.104	11.88
530.304	11.91
530.503	11.85
530.703	11.79
530.903	11.82
531.103	11.81
531.303	11.83
531.502	11.94
531.702	12.01
531.902	11.99
532.101	11.98
532.301	12.02
532.501	12.03
532.7	12.11
532.9	12.1
533.1	12.14
533.299	12.19
533.499	12.24
533.698	12.26
533.898	12.37
534.097	12.39
534.297	12.4
534.496	12.41
534.696	12.37
534.895	12.35
535.095	12.44
535.294	12.48
535.494	12.51
535.693	12.53
535.892	12.63
536.092	12.64
536.291	12.69
536.491	12.76
536.69	12.85
536.889	12.87
537.088	12.89
537.288	12.85
537.487	12.88
537.686	12.91
537.886	12.88
538.085	12.92
538.284	12.96
538.483	13.01
538.682	13
538.882	13.1
539.081	13.14
539.28	13.17
539.479	13.17
539.678	13.24
539.877	13.25
540.076	13.29
540.275	13.32
540.474	13.39
540.673	13.41
540.872	13.41
541.071	13.37
541.27	13.52
541.469	13.52
541.668	13.6
541.867	13.66
542.066	13.78
542.265	13.75
542.464	13.78
542.663	13.82
542.862	13.85
543.06	13.92
543.259	13.97
543.458	14.07
543.657	14.09
543.856	14.21
544.054	14.26
544.253	14.37
544.452	14.35
544.651	14.4
544.849	14.36
545.048	14.36
545.247	14.39
545.445	14.5
545.644	14.61
545.843	14.7
546.041	14.78
546.24	14.8
546.438	14.76
546.637	14.82
546.836	14.85
547.034	14.99
547.233	15.1
547.431	15.24
547.63	15.26
547.828	15.35
548.027	15.39
548.225	15.43
548.423	15.45
548.622	15.51
548.82	15.62
549.019	15.63
549.217	15.77
549.415	15.85
549.614	15.99
549.812	16.02
550.01	16.16
550.209	16.21
550.407	16.26
550.605	16.26
550.803	16.33
551.002	16.34
551.2	16.38
551.398	16.57
551.596	16.72
551.794	16.81
551.993	16.93
552.191	17.03
552.389	17.05
552.587	17.18
552.785	17.35
552.983	17.51
553.181	17.66
553.379	17.85
553.577	17.89
553.775	17.92
553.973	17.98
554.171	18.07
554.369	18.09
554.567	18.2
554.765	18.29
554.963	18.41
555.161	18.45
555.359	18.56
555.557	18.64
555.755	18.79
555.952	18.87
556.15	18.98
556.348	19.1
556.546	19.24
556.744	19.34
556.941	19.46
557.139	19.56
557.337	19.61
557.535	19.71
557.732	19.82
557.93	19.91
558.128	20.1
558.325	20.3
558.523	20.48
558.721	20.63
558.918	20.72
559.116	20.76
559.313	20.82
559.511	20.83
559.708	20.92
559.906	21.04
560.104	21.21
560.301	21.33
560.498	21.57
560.696	21.68
560.893	21.8
561.091	21.9
561.288	22.07
561.486	22.11
561.683	22.24
561.88	22.41
562.078	22.55
562.275	22.67
562.473	22.77
562.67	22.9
562.867	23.05
563.064	23.13
563.262	23.29
563.459	23.55
563.656	23.67
563.853	23.77
564.051	23.86
564.248	23.9
564.445	23.92
564.642	24.05
564.839	24.23
565.036	24.41
565.234	24.58
565.431	24.62
565.628	24.72
565.825	24.75
566.022	24.92
566.219	25.05
566.416	25.17
566.613	25.32
566.81	25.39
567.007	25.52
567.204	25.49
567.401	25.62
567.598	25.65
567.795	25.73
567.991	25.73
568.188	25.86
568.385	25.91
568.582	25.98
568.779	26.12
568.976	26.26
569.172	26.41
569.369	26.51
569.566	26.63
569.763	26.74
569.96	26.76
570.156	26.74
570.353	26.87
570.55	26.94
570.746	26.96
570.943	27.14
571.14	27.3
571.336	27.38
571.533	27.45
571.729	27.51
571.926	27.44
572.123	27.64
572.319	27.65
572.516	27.7
572.712	27.74
572.909	27.82
573.105	27.81
573.302	27.87
573.498	27.91
573.695	28.03
573.891	28.16
574.087	28.16
574.284	28.21
574.48	28.19
574.677	28.22
574.873	28.21
575.069	28.18
575.266	28.21
575.462	28.29
575.658	28.27
575.854	28.42
576.051	28.49
576.247	28.55
576.443	28.55
576.639	28.59
576.835	28.45
577.032	28.37
577.228	28.42
577.424	28.5
577.62	28.5
577.816	28.58
578.012	28.66
578.208	28.58
578.404	28.49
578.6	28.43
578.796	28.37
578.993	28.38
579.189	28.39
579.384	28.39
579.58	28.42
579.776	28.43
579.972	28.4
580.168	28.47
580.364	28.57
580.56	28.6
580.756	28.61
580.952	28.61
581.148	28.5
581.343	28.51
581.539	28.48
581.735	28.39
581.931	28.32
582.127	28.35
582.322	28.3
582.518	28.24
582.714	28.2
582.909	28.23
583.105	28.2
583.301	28.21
583.496	28.26
583.692	28.28
583.888	28.23
584.083	28.19
584.279	28.07
584.474	27.97
584.67	27.97
584.866	28
585.061	27.9
585.257	27.92
585.452	28
585.648	28.01
585.843	27.97
586.039	28.05
586.234	28.07
586.429	27.94
586.625	27.92
586.82	27.88
587.015	27.87
587.211	27.83
587.406	27.93
587.601	27.88
587.797	28.06
587.992	28.04
588.187	28.14
588.383	28.09
588.578	28.05
588.773	27.97
588.968	27.96
589.163	27.82
589.359	27.86
589.554	27.98
589.749	27.96
589.944	28
590.139	28.08
590.334	28.17
590.529	28.22
590.724	28.21
590.919	28.29
591.114	28.37
591.309	28.39
591.504	28.38
591.699	28.53
591.894	28.49
592.089	28.4
592.284	28.41
592.479	28.48
592.674	28.43
592.869	28.5
593.064	28.67
593.259	28.78
593.454	28.83
593.648	28.99
593.843	29.2
594.038	29.28
594.233	29.41
594.428	29.56
594.622	29.67
594.817	29.7
595.012	29.85
595.206	29.77
595.401	29.77
595.596	29.74
595.79	29.77
595.985	29.74
596.18	29.83
596.374	29.94
596.569	30.1
596.763	30.14
596.958	30.33
597.153	30.51
597.347	30.58
597.542	30.63
597.736	30.78
597.931	30.76
598.125	30.81
598.319	30.97
598.514	31.11
598.708	31.19
598.903	31.35
599.097	31.45
599.291	31.47
599.486	31.58
599.68	31.59
599.874	31.61
600.069	31.65
600.263	31.71
600.457	31.77
600.651	31.87
600.846	31.89
601.04	31.94
601.234	31.93
601.428	31.89
601.622	31.94
601.817	32
602.011	32.07
602.205	32.2
602.399	32.24
602.593	32.22
602.787	32.18
602.981	32.07
603.175	32.08
603.369	32.14
603.563	32.16
603.757	32.29
603.951	32.3
604.145	32.29
604.339	32.2
604.533	32.17
604.727	32.03
604.921	32.07
605.115	31.98
605.309	32
605.502	32.01
605.696	32.01
605.89	31.94
606.084	31.93
606.278	31.81
606.471	31.72
606.665	31.66
606.859	31.63
607.053	31.57
607.246	31.53
607.44	31.5
607.634	31.53
607.827	31.44
608.021	31.37
608.214	31.32
608.408	31.22
608.602	31.03
608.795	30.96
608.989	30.93
609.182	30.85
609.376	30.82
609.569	30.75
609.763	30.66
609.956	30.61
610.15	30.51
610.343	30.41
610.537	30.37
610.73	30.3
610.923	30.12
611.117	29.98
611.31	29.82
611.504	29.73
611.697	29.57
611.89	29.54
612.083	29.52
612.277	29.48
612.47	29.38
612.663	29.33
612.856	29.22
613.05	29.08
613.243	28.95
613.436	28.84
613.629	28.78
613.822	28.75
614.015	28.67
614.209	28.55
614.402	28.6
614.595	28.55
614.788	28.34
614.981	28.3
615.174	28.31
615.367	28.18
615.56	28.07
615.753	28.07
615.946	27.95
616.139	27.85
616.332	27.78
616.525	27.72
616.718	27.67
616.911	27.6
617.103	27.56
617.296	27.47
617.489	27.35
617.682	27.2
617.875	27.14
618.067	27.04
618.26	27.01
618.453	27
618.646	27
618.838	26.92
619.031	26.87
619.224	26.76
619.417	26.74
619.609	26.72
619.802	26.7
619.994	26.69
620.187	26.68
620.38	26.59
620.572	26.6
620.765	26.61
620.957	26.56
621.15	26.45
621.342	26.41
621.535	26.36
621.727	26.25
621.92	26.19
622.112	26.18
622.305	26.19
622.497	26.22
622.69	26.26
622.882	26.27
623.074	26.22
623.267	26.23
623.459	26.16
623.651	26.11
623.844	26.13
624.036	26.15
624.228	26.15
624.42	26.02
624.613	26.07
624.805	25.98
624.997	25.94
625.189	25.83
625.381	25.86
625.574	25.77
625.766	25.79
625.958	25.8
626.15	25.88
626.342	25.76
626.534	25.7
626.726	25.62
626.918	25.53
627.11	25.39
627.302	25.47
627.494	25.38
627.686	25.31
627.878	25.31
628.07	25.28
628.262	25.18
628.454	25.17
628.646	25.19
628.838	25.16
629.029	25.1
629.221	25.04
629.413	25.02
629.605	24.97
629.797	24.93
629.989	24.97
630.18	24.95
630.372	24.82
630.564	24.76
630.755	24.7
630.947	24.68
631.139	24.58
631.33	24.55
631.522	24.57
631.714	24.48
631.905	24.32
632.097	24.41
632.289	24.44
632.48	24.37
632.672	24.42
632.863	24.46
633.055	24.34
633.246	24.31
633.438	24.32
633.629	24.28
633.821	24.25
634.012	24.28
634.203	24.33
634.395	24.27
634.586	24.22
634.777	24.24
634.969	24.19
635.16	24.16
635.351	24.16
635.543	24.15
635.734	24.16
635.925	24.12
636.117	24.19
636.308	24.24
636.499	24.24
636.69	24.1
636.881	24.14
637.073	24.07
637.264	24.02
637.455	24
637.646	24.12
637.837	24.03
638.028	23.9
638.219	23.88
638.41	23.88
638.601	23.79
638.792	23.82
638.983	23.87
639.174	23.85
639.365	23.84
639.556	23.81
639.747	23.81
639.938	23.82
640.129	23.78
640.32	23.8
640.511	23.73
640.701	23.75
640.892	23.62
641.083	23.68
641.274	23.61
641.465	23.64
641.655	23.55
641.846	23.54
642.037	23.41
642.228	23.35
642.418	23.27
642.609	23.35
642.8	23.29
642.99	23.24
643.181	23.25
643.372	23.28
643.562	23.14
643.753	23.04
643.943	23.03
644.134	23.02
644.324	23.01
644.515	23.02
644.705	23.13
644.896	23.18
645.086	23.14
645.277	23
645.467	22.94
645.658	22.88
645.848	22.73
646.038	22.68
646.229	22.72
646.419	22.75
646.61	22.72
646.8	22.81
646.99	22.84
647.18	22.81
647.371	22.64
647.561	22.63
647.751	22.49
647.941	22.39
648.132	22.36
648.322	22.42
648.512	22.45
648.702	22.54
648.892	22.53
649.082	22.57
649.272	22.51
649.462	22.41
649.653	22.35
649.843	22.28
650.033	22.1
650.223	22.11
650.413	22.08
650.603	22.12
650.793	22.07
650.983	22.1
651.172	22.05
651.362	21.94
651.552	21.83
651.742	21.94
651.932	21.86
652.122	21.83
652.312	21.82
652.502	21.65
652.691	21.4
652.881	21.24
653.071	21.1
653.261	20.98
653.45	20.98
653.64	20.94
653.83	20.82
654.019	20.61
654.209	20.52
654.399	20.36
654.588	20.33
654.778	20.25
654.968	20.2
655.157	20
655.347	19.75
655.536	19.4
655.726	19.24
655.915	19.01
656.105	18.85
656.294	18.7
656.484	18.53
656.673	18.48
656.863	18.35
657.052	18.17
657.241	18.09
657.431	17.86
657.62	17.63
657.809	17.41
657.999	17.19
658.188	16.9
658.377	16.82
658.567	16.46
658.756	16.15
658.945	15.97
659.134	15.83
659.324	15.64
659.513	15.52
659.702	15.44
659.891	15.27
660.08	15.06
660.269	14.71
660.458	14.49
660.648	14.27
660.837	13.94
661.026	13.72
661.215	13.59
661.404	13.36
661.593	13.16
661.782	13.04
661.971	12.84
662.16	12.77
662.349	12.69
662.538	12.61
662.726	12.59
662.915	12.43
663.104	12.2
663.293	12
663.482	11.76
663.671	11.52
663.86	11.36
664.048	11.21
664.237	11.05
664.426	10.92
664.615	10.79
664.803	10.63
664.992	10.43
665.181	10.31
665.369	10.29
665.558	10.15
665.747	10.05
665.935	10
666.124	9.94
666.312	9.75
666.501	9.68
666.69	9.61
666.878	9.49
667.067	9.34
667.255	9.34
667.444	9.27
667.632	9.21
667.82	9.15
668.009	9.08
668.197	8.94
668.386	8.94
668.574	8.96
668.762	8.92
668.951	8.92
669.139	8.82
669.327	8.68
669.516	8.68
669.704	8.61
669.892	8.61
670.08	8.6
670.269	8.65
670.457	8.51
670.645	8.55
670.833	8.5
671.021	8.65
671.21	8.64
671.398	8.73
671.586	8.69
671.774	8.71
671.962	8.54
672.15	8.65
672.338	8.6
672.526	8.62
672.714	8.59
672.902	8.6
673.09	8.46
673.278	8.52
673.466	8.57
673.654	8.55
673.842	8.59
674.03	8.57
674.218	8.55
674.405	8.47
674.593	8.6
674.781	8.7
674.969	8.76
675.157	8.82
675.344	8.93
675.532	8.95
675.72	8.97
675.908	9.02
676.095	9.07
676.283	9.13
676.471	9.09
676.658	9.07
676.846	9.2
677.033	9.17
677.221	9.27
677.409	9.37
677.596	9.47
677.784	9.45
677.971	9.52
678.159	9.6
678.346	9.72
678.534	9.78
678.721	9.96
678.909	10.15
679.096	10.2
679.283	10.27
679.471	10.48
679.658	10.65
679.846	10.67
680.033	10.85
680.22	10.97
680.408	11.05
680.595	11.02
680.782	11.22
680.969	11.28
681.157	11.24
681.344	11.35
681.531	11.56
681.718	11.54
681.905	11.68
682.093	12.01
682.28	12.18
682.467	12.36
682.654	12.61
682.841	12.9
683.028	13.07
683.215	13.32
683.402	13.36
683.589	13.6
683.776	13.8
683.963	14.08
684.15	14.36
684.337	14.7
684.524	15.08
684.711	15.31
684.898	15.52
685.085	15.75
685.271	16.07
685.458	16.39
685.645	16.69
685.832	17.09
686.019	17.5
686.205	17.89
686.392	18.18
686.579	18.6
686.766	18.93
686.952	19.3
687.139	19.79
687.326	20.4
687.512	20.96
687.699	21.47
687.886	21.9
688.072	22.28
688.259	22.57
688.445	22.89
688.632	23.41
688.818	24.1
689.005	24.61
689.191	25.26
689.378	25.98
689.564	26.55
689.751	27.09
689.937	27.8
690.124	28.44
690.31	29.05
690.496	29.63
690.683	30.36
690.869	31.1
691.055	31.59
691.242	32.15
691.428	32.8
691.614	33.24
691.8	33.62
691.987	34.49
692.173	35.14
692.359	36.1
692.545	37
692.731	37.91
692.918	38.56
693.104	39.45
693.29	40.04
693.476	40.85
693.662	41.59
693.848	42.27
694.034	42.86
694.22	43.69
694.406	44.48
694.592	45.07
694.778	46.07
694.964	46.86
695.15	47.55
695.336	48.23
695.522	49
695.708	49.51
695.894	50.09
696.08	50.73
696.265	51.08
696.451	51.87
696.637	52.67
696.823	53.54
697.009	54.16
697.194	54.84
697.38	55.34
697.566	55.8
697.751	56.14
697.937	56.53
698.123	57.27
698.308	58.13
698.494	58.63
698.68	59.44
698.865	60.13
699.051	60.54
699.236	60.81
699.422	61.66
699.607	62.22
699.793	62.9
699.978	63.66
700.164	64.42
700.349	64.68
700.535	65.17
700.72	65.63
700.906	65.87
701.091	66.08
701.276	66.34
701.462	67
701.647	67.42
701.832	68.02
702.018	68.59
702.203	69.43
702.388	69.5
702.573	69.54
702.759	69.97
702.944	70.26
703.129	70.47
703.314	70.94
703.499	71.7
703.684	72.04
703.87	72.17
704.055	72.67
704.24	72.85
704.425	72.93
704.61	73.43
704.795	73.85
704.98	73.93
705.165	74.21
705.35	74.43
705.535	74.54
705.72	74.61
705.905	74.8
706.09	75.14
706.275	75.66
706.459	75.54
706.644	76.07
706.829	76.31
707.014	76.61
707.199	76.84
707.384	77.28
707.568	77.37
707.753	77.53
707.938	77.4
708.123	77.39
708.307	77.3
708.492	77.64
708.677	78.11
708.861	78.46
709.046	78.94
709.231	79.69
709.415	80.07
709.6	80.09
709.784	80.26
709.969	80.29
710.153	80.13
710.338	80.23
710.522	80.4
710.707	80.67
710.891	81.04
711.076	81.02
711.26	80.83
711.445	80.41
711.629	80.06
711.813	79.82
711.998	80.35
712.182	80.65
712.366	81.32
712.551	81.89
712.735	82.15
712.919	81.73
713.103	81.95
713.288	82
713.472	82.25
713.656	82.42
713.84	82.78
714.024	82.92
714.208	82.87
714.393	82.6
714.577	82.57
714.761	82.34
714.945	82.42
715.129	82.79
715.313	82.84
715.497	82.89
715.681	83.41
715.865	83.18
716.049	83.02
716.233	83.11
716.417	83.01
716.601	83.02
716.785	83.28
716.968	83.58
717.152	83.95
717.336	84.47
717.52	84.56
717.704	84.58
717.888	84.52
718.071	84.15
718.255	83.9
718.439	84.07
718.622	84.37
718.806	84.47
718.99	85.05
719.174	85.35
719.357	85.45
719.541	85.44
719.724	85.53
719.908	85.26
720.092	85.06
720.275	84.8
720.459	84.55
720.642	84.56
720.826	84.7
721.009	84.62
721.193	84.84
721.376	84.95
721.559	85.09
721.743	85.25
721.926	85.62
722.11	85.38
722.293	85.42
722.476	85.35
722.66	85.33
722.843	84.87
723.026	85.12
723.21	84.77
723.393	84.67
723.576	85.03
723.759	85.49
723.942	85.57
724.126	86.04
724.309	85.98
724.492	85.7
724.675	85.82
724.858	86.02
725.041	85.87
725.224	86.34
725.407	86.56
725.59	86.27
725.774	86.56
725.957	86.87
726.14	86.89
726.322	87.22
726.505	87.63
726.688	87.28
726.871	87.26
727.054	86.97
727.237	86.58
727.42	86.8
727.603	87.09
727.786	86.68
727.968	87
728.151	86.99
728.334	86.59
728.517	86.76
728.699	87.29
728.882	87.46
729.065	87.19
729.248	88.2
729.43	87.86
729.613	88.26
729.796	88.27
729.978	88.65
730.161	87.91
730.343	88.12
730.526	87.96
730.708	87.68
730.891	87.48
731.073	87.4
731.256	87.65
731.438	87.54
731.621	88.04
731.803	88.84
731.986	88.75
732.168	88.3
732.35	88.37
732.533	87.85
732.715	87.49
732.898	88.67
733.08	88.57
733.262	88.79
733.444	89.31
733.627	89.08
733.809	88.59
733.991	88.69
734.173	88.22
734.355	87.83
734.538	87.93
734.72	87.68
734.902	87.41
735.084	88.16
735.266	88.39
735.448	89.07
735.63	88.84
735.812	89.28
735.994	88.94
736.176	89.14
736.358	89.07
736.54	89.62
736.722	89.5
736.904	89.19
737.086	88.91
737.268	88.6
737.45	88.52
737.632	88.89
737.814	89.06
737.995	88.74
738.177	88.81
738.359	88.44
738.541	87.94
738.723	88.21
738.904	88.73
739.086	88.51
739.268	88.98
739.449	89.5
739.631	89.61
739.813	89.15
739.994	89.38
740.176	88.8
740.358	89.37
740.539	88.66
740.721	89.39
740.902	89.99
741.084	90.09
741.265	89.98
741.447	90.49
741.628	90.4
741.81	89.61
741.991	90.16
742.172	90.33
742.354	89.98
742.535	90.76
742.717	91.28
742.898	91.65
743.079	91.28
743.261	91.73
743.442	91.08
743.623	91.38
743.804	90.55
743.986	90.52
744.167	91.12
744.348	91.97
744.529	91.57
744.71	91.98
744.891	92.55
745.073	92.39
745.254	91.68
745.435	90.92
745.616	90.61
745.797	89.96
745.978	89.98
746.159	89.92
746.34	90.17
746.521	89.76
746.702	88.53
746.883	88.02
747.064	88.12
747.245	88.74
747.426	89.67
747.606	90.64
747.787	90.61
747.968	90.64
748.149	90.24
748.33	90.1
748.51	91.02
748.691	91.13
748.872	89.95
749.053	90.48
749.233	89.36
749.414	88.04
749.595	88.33
749.775	88.85
749.956	88
750.137	88.37
750.317	89.66
750.498	89.93
750.678	89.39
750.859	89.85
751.04	89.58
751.22	88.97
751.4	88.43
751.581	90.35
751.761	91.69
751.942	93.72
752.122	93.88
752.303	93.64
752.483	93.28
752.663	91.54
752.844	89.78
753.024	89.89
753.204	90.93
753.385	91.23
753.565	90.48
753.745	91.18
753.925	90.98
754.106	90.44
754.286	89.31
754.466	89.61
754.646	88.59
754.826	88.45
755.006	87.23
755.187	87.48
755.367	88.35
755.547	89.38
755.727	89.65
755.907	90.31
756.087	89.18
756.267	89.36
756.447	89.26
756.627	89.66
756.807	89.52
756.987	91.02
757.167	91.59
757.346	92.63
757.526	91.16
757.706	92.33
757.886	92.32
758.066	91.22
758.246	90.28
758.425	91.05
758.605	89.41
758.785	88.57
758.965	89.37
759.144	89.52
759.324	89.86
759.504	91.31
759.683	91.86
759.863	90.55
760.043	90.33
760.222	89.22
760.402	89.12
760.581	88.87
760.761	89.13
760.94	88.52
761.12	88.12
761.299	88.81
761.479	88.78
761.658	88.06
761.838	88.06
762.017	89.29
762.197	86.45
762.376	86.09
762.555	86.32
762.735	86.03
762.914	85.47
763.093	87.49
763.273	86.1
763.452	86.38
763.631	86.95
763.81	86.86
763.99	85.89
764.169	86.67
764.348	86.3
764.527	85.68
764.706	84.95
764.885	86.38
765.064	86.34
765.243	86.93
765.423	87.71
765.602	89.41
765.781	87.56
765.96	86.56
766.139	86.39
766.318	87.02
766.497	86.63
766.676	88.5
766.854	89.59
767.033	90.59
767.212	89.48
767.391	89.38
767.57	88.84
767.749	89.86
767.928	88.85
768.106	88.25
768.285	88.39
768.464	87.59
768.643	87.46
768.821	87.55
769	88.18
769.179	88.52
769.357	89.03
769.536	87.9
769.715	87.34
769.893	89.37
770.072	87.53
770.25	87.55
770.429	89.82
770.607	90.96
770.786	87.92
770.964	88.69
771.143	88.04
771.321	86.22
771.5	86.78
771.678	87.64
771.857	88.14
772.035	87.25
772.213	88.07
772.392	87.65
772.57	88.1
772.748	87.41
772.927	88.46
773.105	88.99
773.283	87.5
773.461	86.48
773.64	86.79
773.818	86.61
773.996	84.36
774.174	83.11
774.352	82.18
774.531	82.13
774.709	82.16
774.887	82.55
775.065	84.01
775.243	85.53
775.421	84.31
775.599	84.64
775.777	85.64
775.955	84.18
776.133	84.51
776.311	86.15
776.489	86.4
776.667	84.83
776.844	87.98
777.022	87.7
777.2	87.88
777.378	86.56
777.556	87.36
777.734	85.87
777.911	85.97
778.089	86.38
778.267	86.93
778.445	86.76
778.622	86
778.8	87.47
778.978	86.92
779.155	87.92
779.333	89.21
779.511	89.43
779.688	88.31
779.866	88.26
780.043	87.66
780.221	87.86
780.398	87.55
780.576	87.78
780.753	86.23
780.931	88.27
781.108	87.96
781.286	87.72
781.463	86.37
781.64	85.12
781.818	83.8
781.995	80.95
782.172	81.09
782.35	81.54
782.527	82.48
782.704	79.16
782.882	81.17
783.059	81.51
783.236	82.73
783.413	81.78
783.59	86.07
783.768	85.69
783.945	84.38
784.122	82.71
784.299	85.15
784.476	81.45
784.653	82.19
784.83	85.18
785.007	83.83
785.184	82.36
785.361	82.4
785.538	84.04
785.715	81.51
785.892	81.34
786.069	81.14
786.246	83.17
786.423	81.54
786.6	85.24
786.776	88.87
786.953	90.8
787.13	90.19
787.307	88.24
787.484	85.43
787.66	83.51
787.837	81.54
788.014	83.44
788.191	83.63
788.367	83.21
788.544	84
788.721	83.25
788.897	82.08
789.074	83.69
789.25	82.68
789.427	80.84
789.603	84.69
789.78	81.91
789.956	74.86
790.133	73.62
790.309	74.74
790.486	72.42
790.662	74.27
790.839	81.62
791.015	81.24
791.192	81.7
791.368	79.3
791.544	79.25
791.721	80.14
791.897	80.39
792.073	77.56
792.249	81.51
792.426	80.75
792.602	81.31
792.778	81.83
792.954	84.55
793.13	83.48
793.307	82.77
793.483	79.99
793.659	82.01
793.835	85.5
794.011	84.5
794.187	84.84
794.363	82.28
794.539	84.35
794.715	82.03
794.891	82.94
795.067	82.19
795.243	86.23
795.419	83.79
795.595	83.86
795.771	83.92
795.947	89.14
796.122	84.3
796.298	85.03
796.474	81.16
796.65	79.15
796.826	74.84
797.001	77.05
797.177	72.98
797.353	75.31
797.529	77.21
797.704	79.74
797.88	82.41
798.056	85.84
798.231	85.66
798.407	89.74
798.582	90.48
798.758	89.5
798.934	91.87
799.109	90.59
799.285	87.07
799.46	87.11
799.636	85.69
799.811	82.46
799.986	84.48
800.162	81.16
800.337	81.87
800.513	79.42
800.688	80.89
800.863	78.71
801.039	83.41
801.214	78.36
801.389	81.95
801.565	81.18
801.74	80.23
801.915	77.64
802.09	79.47
802.265	78.15
802.441	75.33
802.616	78.24
802.791	80.06
802.966	84
803.141	80.46
803.316	83.22
803.491	86.26
803.666	83.85
803.841	78.4
804.016	83.49
804.191	82.93
804.366	78.46
804.541	78.59
804.716	82.52
804.891	83.54
805.066	83.29
805.241	77.53
805.416	75.05
805.591	73.17
805.765	67.75
805.94	71.24
806.115	74.89
806.29	77.59
806.464	78.74
806.639	81.95
806.814	82.85
806.989	82.98
807.163	81.04
807.338	80.7
807.512	73.28
807.687	66.57
807.862	71.01
808.036	74.96
808.211	71.23
808.385	78.08
808.56	82.98
808.734	71.19
808.909	62.65
809.083	65.91
809.258	64.52
809.432	62.49
809.606	66.87
809.781	74.96
809.955	74.88
810.13	81.81
810.304	76.22
810.478	77.33
810.652	70.49
810.827	65.62
811.001	56.53
811.175	61.71
811.349	61.35
811.524	67.01
811.698	67.82
811.872	73.53
812.046	77.25
812.22	86.15
812.394	86.8
812.568	101.29
812.742	92.03
812.916	85.01
813.09	73.2
813.264	71.56
813.438	61.83
813.612	69.38
813.786	73.73
813.96	83.54
814.134	82.47
814.308	85.9
814.482	79.73
814.656	74.15
814.83	68.56
815.003	68.73
815.177	68.06
815.351	71.31
815.525	73.66
815.698	78.86
815.872	87.88
816.046	97.51
816.219	98.21
816.393	113.17
816.567	113.63
816.74	101.54
816.914	96.13
817.088	95.97
817.261	73.87
817.435	70.22
817.608	76.95
817.782	71.77
817.955	67.04
818.129	79.51
818.302	87.67
818.475	76.54
818.649	77.01
818.822	73.06
818.996	71.13
819.169	66.53
819.342	74.33
819.516	74.14
819.689	82.38
819.862	74.14
820.035	61.99
820.209	55.02
820.382	58.87
820.555	55.28
820.728	65.37
820.901	72.28
821.075	74.31
821.248	80.76
821.421	84.03
821.594	76.16
821.767	79.56
821.94	81.75
822.113	71.1
822.286	78.23
822.459	85.77
822.632	76.99
822.805	74.56
822.978	69.67
823.151	62.88
823.324	67.64
823.496	70.76
823.669	69.33
823.842	79.89
824.015	83.43
824.188	75.59
824.361	81.46
824.533	80.58
824.706	86.03
824.879	75.94
825.051	77.64
825.224	73.14
825.397	71.54
825.569	61.15
825.742	75.03
825.915	75.21
826.087	64.14
826.26	76.64
826.432	70.26
826.605	58.26
826.777	61.12
826.95	73.8
827.122	54.49
827.295	61.47
827.467	64.61
827.64	56.77
827.812	55.54
827.984	72.41
828.157	65.17
828.329	56.52
828.501	56.21
828.674	55.59
828.846	46.43
829.018	54.38
829.19	59.88
829.363	68.24
829.535	65.81
829.707	71.48
829.879	79.27
830.051	76.21
830.223	75.28
830.395	81.98
830.568	70.67
830.74	57.84
830.912	63.1
831.084	63.24
831.256	45.76
831.428	42.95
831.6	48.25
831.772	58.37
831.943	58.51
832.115	63.05
832.287	67.69
832.459	72.92
832.631	60.42
832.803	60.05
832.975	77.72
833.146	79.73
833.318	76.34
833.49	83.29
833.662	81.62
833.833	70.28
834.005	72.45
834.177	69.52
834.348	72.04
834.52	73.25
834.692	73.54
834.863	69.02
835.035	83.68
835.206	68.08
835.378	60.89
835.549	59.01
835.721	61.63
835.892	52.13
836.064	58.16
836.235	60.72
836.407	67.19
836.578	69.51
836.749	73.98
836.921	70.58
837.092	64.07
837.264	60.92
837.435	48.45
837.606	56.4
837.777	55.64
837.949	59.28
838.12	57.52
838.291	62.43
838.462	49.69
838.633	47.44
838.805	46.13
838.976	45.87
839.147	46.11
839.318	46.58
839.489	54.3
839.66	57.17
839.831	58.54
840.002	66.56
840.173	64.92
840.344	62.29
840.515	48.68
840.686	48.19
840.857	31.9
841.028	33.24
841.199	38.36
841.369	68.45
841.54	72.49
841.711	75.79
841.882	77.6
842.053	68.38
842.223	59.12
842.394	48.87
842.565	47.87
842.736	63.25
842.906	66.76
843.077	73.73
843.248	71.85
843.418	71.76
843.589	51.24
843.759	49.87
843.93	37
844.101	47.53
844.271	57.78
844.442	59.73
844.612	64.96
844.783	62.04
844.953	53.14
845.123	54.78
845.294	68.9
845.464	76.89
845.635	93.88
845.805	86.81
845.975	77.43
846.146	60.03
846.316	47.92
846.486	42.68
846.656	52.44
846.827	54.02
846.997	52.68
847.167	56.86
847.337	71.94
847.507	61.37
847.677	60.74
847.848	67.61
848.018	87.16
848.188	74.62
848.358	70.88
848.528	61.86
848.698	59.86
848.868	39.5
849.038	26.05
849.208	42.39
849.378	58.78
849.548	46.06
849.718	45.47
849.887	48.77
850.057	43.45
850.227	18.75
850.397	28.42
850.567	44.15
850.737	43.24
850.906	29.99
851.076	48.39
851.246	68.44
851.415	49.85
851.585	52.28
851.755	63.15
851.924	53.72
852.094	51.92
852.264	57.67
852.433	50.58
852.603	36.8
852.772	41.33
852.942	33.41
853.111	21.81
853.281	20.29
853.45	35.58
853.62	42.99
853.789	49.23
853.959	78.21
854.128	86.32
854.297	88.61
854.467	88.54
854.636	77.34
854.805	76.02
854.975	62.62
855.144	49.69
855.313	43.99
855.482	40.95
855.652	5.41
855.821	10.85
855.99	33.3
856.159	57.56
856.328	65.59
856.497	71.36
856.667	89.28
856.836	75.53
857.005	33.05
857.174	26.03
857.343	54.68
857.512	38.82
857.681	25.63
857.85	54.93
858.019	96.02
858.188	65.22
858.356	21.09
858.525	42.72
858.694	20.22
858.863	41.09
859.032	57.69
859.201	78.16
859.369	78.62
859.538	90.9
859.707	63.43
859.876	43.4
860.044	50.53
860.213	62.22
860.382	43.42
860.55	64.42
860.719	44.32
860.888	58.3
861.056	46.95
861.225	49.02
861.393	31.66
861.562	42.5
861.73	15.87
861.899	22.96
862.067	22.08
862.236	33.75
862.404	39.39
862.572	50.26
862.741	58.21
862.909	78.64
863.078	64.25
863.246	79.25
863.414	64.51
863.582	46.16
863.751	49.95
863.919	50.24
864.087	56.41
864.255	95.95
864.424	104.13
864.592	77.87
864.76	102.04
864.928	150.03
865.096	61.34
865.264	34.2
865.432	71.12
865.6	84.86
865.768	44.08
865.936	67.07
866.104	67.92
866.272	61.43
866.44	22.73
866.608	18.87
866.776	-13.15
866.944	-0.77
867.112	-1.34
867.28	-3.57
867.448	23.05
867.615	60.68
867.783	78.14
867.951	73.29
868.119	110.01
868.286	64.16
868.454	56.37
868.622	39.24
868.789	35.12
868.957	42.69
869.125	46.79
869.292	43.03
869.46	46.99
869.627	65.09
869.795	37.28
869.963	53.57
870.13	52.17
870.298	58.44
870.465	48.64
870.632	48.85
870.8	44.25
870.967	50.47
871.135	40
871.302	33.45
871.469	2.26
871.637	17.23
871.804	-75.48
871.971	-13.78
872.139	60.88
872.306	92.29
872.473	73.79
872.64	68.37
872.807	64.98
872.975	56.3
873.142	12.56
873.309	-16.27
873.476	-22.78
873.643	-13.36
873.81	-51.15
873.977	39.27
874.144	41.95
874.311	26.99
874.478	18.26
874.645	18.45
874.812	39.36
874.979	74.52
875.146	92.59
875.313	133.07
875.48	135.52
875.647	107.09
875.813	83.05
875.98	53.58
876.147	56.94
876.314	57.16
876.481	46.24
876.647	37.8
876.814	43.26
876.981	39.61
877.147	42.85
877.314	45.43
877.481	68.63
877.647	105.94
877.814	108.29
877.98	88.81
878.147	90.13
878.314	68.97
878.48	58.85
878.647	58.05
878.813	51.12
878.979	16.11
879.146	5.37
879.312	11.56
879.479	-25.21
879.645	3.22
879.811	37.62
879.978	22.44
880.144	15.68
880.31	40.42
880.477	34.78
880.643	34.32
880.809	38
880.975	63.26
881.142	57.29
881.308	56.52
881.474	58.83
881.64	90.56
881.806	65.55
881.972	69.48
882.138	79.19
882.304	114.13
882.47	112.98
882.636	184.91
882.802	192.57
882.968	93.42
883.134	104.8
883.3	103.61
883.466	101.59
883.632	148.48
883.798	158.57
883.964	122.37
884.129	82.63
884.295	88.98
884.461	42.6
884.627	29.28
884.793	16.31
884.958	59.92
885.124	62.97
885.29	73.57
885.455	90.56
885.621	75.74
885.787	44.54
885.952	28.19
886.118	2.13
886.283	-18.74
886.449	11.98
886.614	16.28
886.78	16.16
886.945	46.65
887.111	57.12
887.276	51.18
887.442	55.86
887.607	61.94
887.773	66.17
887.938	61.07
888.103	82.59
888.269	87.24
888.434	64.39
888.599	59.61
888.764	59.41
888.93	69.8
889.095	76.3
889.26	70.54
889.425	61.08
889.59	55.4
889.756	50.08
889.921	33.78
890.086	29.13
890.251	15.41
890.416	-2.53
890.581	-11.09
890.746	28.93
890.911	74.74
891.076	94.09
891.241	77.52
891.406	74.49
891.571	82.41
891.736	67.7
891.901	35.52
892.065	13.65
892.23	45.59
892.395	42.84
892.56	45.6
892.725	100.29
892.889	154.77
893.054	154.8
893.219	137.58
893.384	148.14
893.548	107.91
893.713	86.12
893.878	77.69
