Data from Ofra_PS_Phys_1GT42_Reflection_2.txt Node
Date: Tue Jul 20 17:51:43 EDT 2021
User: USUARIO
Spectrometer: FLMT01687
Trigger mode: 0
Integration Time (sec): 1.042999E0
Scans to average: 2
Electric dark correction enabled: true
Nonlinearity correction enabled: false
Boxcar width: 2
XAxis mode: Wavelengths
Number of Pixels in Spectrum: 3648
>>>>>Begin Spectral Data<<<<<
179.494	72.78
179.716	93.13
179.937	67.88
180.158	-125.82
180.38	-197.7
180.601	327.91
180.823	345.19
181.044	397.68
181.265	883.14
181.486	81.84
181.708	55.66
181.929	-30.85
182.15	-62.16
182.372	931.34
182.593	121.91
182.814	82.77
183.035	50.95
183.257	23.33
183.478	-0.55
183.699	-14.89
183.92	-15.59
184.141	-48.45
184.363	-14.47
184.584	24.43
184.805	54.13
185.026	71.77
185.247	78.77
185.468	73.39
185.689	56.67
185.91	48.57
186.132	32.99
186.353	21.6
186.574	33.87
186.795	41.44
187.016	24.3
187.237	46.46
187.458	32.04
187.679	74.1
187.9	21.77
188.121	1.21
188.342	-363.77
188.563	-23.59
188.784	-27.61
189.005	17.57
189.226	23.52
189.447	58.87
189.667	37.14
189.888	34.39
190.109	36.88
190.33	20.03
190.551	27.09
190.772	37.48
190.993	40.75
191.214	28.23
191.434	33.96
191.655	27.94
191.876	32.55
192.097	50.6
192.318	74.87
192.538	110.63
192.759	85.33
192.98	55.61
193.201	60.01
193.421	49.64
193.642	62.28
193.863	46.08
194.083	74.23
194.304	61.41
194.525	44
194.745	10.44
194.966	32.18
195.187	27.6
195.407	6.73
195.628	38.42
195.848	63.81
196.069	74.8
196.29	63.2
196.51	55.96
196.731	38.21
196.951	38.76
197.172	7.8
197.392	-16.35
197.613	-7.56
197.833	-9.51
198.054	-35.2
198.274	-4.95
198.495	2.73
198.715	15.76
198.936	26.93
199.156	30
199.377	30.52
199.597	45.53
199.817	21.46
200.038	11.6
200.258	19.6
200.479	18.55
200.699	-11.95
200.919	-14.41
201.14	23.45
201.36	21.47
201.58	4.49
201.801	48.82
202.021	141.55
202.241	43.85
202.461	-17.52
202.682	16.25
202.902	7.27
203.122	-8.73
203.342	14.83
203.563	23.69
203.783	38.13
204.003	18.38
204.223	34.2
204.443	30.81
204.663	35.7
204.884	30.05
205.104	27.96
205.324	23.29
205.544	6.9
205.764	18.63
205.984	-4.68
206.204	10.6
206.424	10.96
206.644	19.02
206.864	30.28
207.084	37.28
207.304	57.74
207.525	57.5
207.745	50.68
207.964	23.38
208.184	51.15
208.404	29
208.624	31.48
208.844	54.75
209.064	59.04
209.284	54.92
209.504	63.04
209.724	55.04
209.944	52.27
210.164	52.89
210.384	76.04
210.604	114.18
210.823	111.72
211.043	89.18
211.263	77.66
211.483	25.96
211.703	10.7
211.922	15.89
212.142	35.67
212.362	44.1
212.582	61.52
212.801	29.44
213.021	28.1
213.241	-64.83
213.461	-2.02
213.68	10.79
213.9	13.2
214.12	39.7
214.339	36.51
214.559	-21.04
214.779	13.36
214.998	12.89
215.218	-2.59
215.438	10.65
215.657	-0.69
215.877	-1.71
216.096	30.66
216.316	9.86
216.535	18.7
216.755	40.28
216.974	23.25
217.194	-0.12
217.413	24.18
217.633	27.97
217.852	28.9
218.072	36.54
218.291	41.1
218.511	30.55
218.73	-2.8
218.95	-27.8
219.169	-14.97
219.389	-21.37
219.608	-31.48
219.827	16.39
220.047	30.15
220.266	26.53
220.485	3.98
220.705	10.86
220.924	4.17
221.143	-7.01
221.363	-9.13
221.582	-5.97
221.801	-13.97
222.021	-49.03
222.24	-19.06
222.459	-47.95
222.678	-6.49
222.897	37.28
223.117	48.18
223.336	70.31
223.555	79.21
223.774	85.1
223.993	84.51
224.213	72.25
224.432	41.53
224.651	41.61
224.87	22.64
225.089	7.54
225.308	-3.99
225.527	4.4
225.746	-22.25
225.965	-34.19
226.184	-0.9
226.404	8.36
226.623	-9.32
226.842	8.32
227.061	33.37
227.28	17.07
227.499	-0.86
227.718	15.39
227.936	23.86
228.155	21.64
228.374	2.73
228.593	26.18
228.812	27.47
229.031	18
229.25	-0.79
229.469	25.44
229.688	27.76
229.907	33.93
230.125	50.01
230.344	62.54
230.563	62.43
230.782	46.38
231.001	37.61
231.22	33.01
231.438	32.63
231.657	9.8
231.876	26.33
232.095	18.5
232.313	36.25
232.532	30.62
232.751	50.72
232.969	52.36
233.188	67.81
233.407	46.51
233.625	69.56
233.844	73.78
234.063	56.78
234.281	57.43
234.5	64.81
234.719	58.92
234.937	48.6
235.156	62.53
235.374	56.15
235.593	57.64
235.811	37.25
236.03	-34.02
236.249	-61.5
236.467	-31.94
236.686	-25.31
236.904	-2.35
237.123	35.96
237.341	34.86
237.559	44.43
237.778	52.91
237.996	52.52
238.215	43.62
238.433	33.57
238.652	17.66
238.87	10.55
239.088	5.99
239.307	7.9
239.525	29.66
239.743	26.36
239.962	1.05
240.18	18.72
240.398	14.89
240.617	2.17
240.835	18.34
241.053	43.09
241.271	36.24
241.49	33.24
241.708	33.18
241.926	27.2
242.144	23.78
242.363	13.24
242.581	11.32
242.799	-0.77
243.017	14.67
243.235	2.3
243.453	6.07
243.672	18.33
243.89	26.2
244.108	20.27
244.326	29.17
244.544	20.49
244.762	18.63
244.98	12.51
245.198	4.79
245.416	25.18
245.634	26.43
245.852	30.93
246.07	45.67
246.288	48.15
246.506	36.62
246.724	57.96
246.942	71.42
247.16	57.06
247.378	56.34
247.596	64.46
247.814	51.06
248.032	8.21
248.25	27.84
248.468	27.46
248.685	28.33
248.903	32.64
249.121	40.85
249.339	26.4
249.557	40.83
249.775	42.82
249.992	53.69
250.21	59.06
250.428	48.34
250.646	-13.43
250.863	-1.28
251.081	-29.72
251.299	-60.86
251.517	-20.12
251.734	-11.56
251.952	-49.61
252.17	0.2
252.387	23.69
252.605	15.12
252.823	30.61
253.04	48.09
253.258	33.96
253.475	27.43
253.693	42.19
253.911	47.69
254.128	41.06
254.346	42.29
254.563	58.74
254.781	48.9
254.998	29.38
255.216	14.63
255.433	6.02
255.651	-19.03
255.868	-27.92
256.086	-5.58
256.303	-8.73
256.521	5.63
256.738	-6.81
256.956	7.63
257.173	-21.01
257.39	-17.29
257.608	-38.53
257.825	41.27
258.043	35.85
258.26	56.72
258.477	63.3
258.695	53.7
258.912	29.77
259.129	32.38
259.346	28.23
259.564	14.11
259.781	26.89
259.998	19.55
260.216	34.19
260.433	22.44
260.65	44.68
260.867	45.19
261.084	62.87
261.302	41.59
261.519	55.42
261.736	34.5
261.953	40.46
262.17	35.37
262.387	41.89
262.604	56.27
262.822	25.92
263.039	-25.86
263.256	-44.65
263.473	-48.41
263.69	-29.13
263.907	9.21
264.124	22.19
264.341	57.03
264.558	55.76
264.775	71.95
264.992	55.74
265.209	32.66
265.426	0.11
265.643	16.29
265.86	1.08
266.077	7.52
266.294	22.31
266.51	36.66
266.727	37.45
266.944	34.8
267.161	29.29
267.378	31.87
267.595	26.07
267.812	23.25
268.028	24.34
268.245	25.49
268.462	22.69
268.679	7.26
268.896	11.98
269.112	17.44
269.329	4.6
269.546	-37.28
269.763	-39.83
269.979	-21.24
270.196	-7.62
270.413	16.83
270.629	23.79
270.846	30.88
271.063	14.22
271.279	7.28
271.496	4.71
271.712	9.72
271.929	-6.23
272.146	8.65
272.362	1.51
272.579	16.81
272.795	-4.19
273.012	29.26
273.228	42.85
273.445	35.99
273.661	29.47
273.878	35.37
274.094	17.81
274.311	11.02
274.527	29.27
274.744	17.08
274.96	36.66
275.177	22.75
275.393	15.71
275.609	5.34
275.826	9.99
276.042	-14.9
276.259	20.7
276.475	22.53
276.691	34.12
276.908	35.33
277.124	38.76
277.34	23.3
277.557	37.68
277.773	17.79
277.989	16.57
278.205	-0.91
278.422	20.29
278.638	7.83
278.854	16.12
279.07	12.8
279.286	27.25
279.503	18.59
279.719	16.45
279.935	33.79
280.151	41.82
280.367	37.76
280.583	33.57
280.799	47.45
281.016	34.85
281.232	28.71
281.448	14.17
281.664	19.01
281.88	15.23
282.096	12.23
282.312	16.24
282.528	33.99
282.744	26.39
282.96	20.72
283.176	28.64
283.392	26.26
283.608	28.13
283.824	26.38
284.04	32.34
284.256	18.65
284.471	13.4
284.687	15.62
284.903	27.56
285.119	30.49
285.335	-6.19
285.551	24.65
285.767	22.69
285.982	40.95
286.198	35.83
286.414	51.77
286.63	41.24
286.846	38.83
287.061	31.36
287.277	45.13
287.493	50.44
287.709	74.36
287.924	67.61
288.14	87.58
288.356	71.94
288.571	74.06
288.787	40.08
289.003	31.99
289.218	28.53
289.434	21.28
289.65	17.96
289.865	13.24
290.081	29.59
290.296	31.33
290.512	24.96
290.727	13.75
290.943	19.33
291.159	23.88
291.374	-24.62
291.59	-30.24
291.805	-52.82
292.021	-65.11
292.236	-30.38
292.451	3.43
292.667	14.73
292.882	57.55
293.098	66.33
293.313	46.16
293.529	53.26
293.744	40.87
293.959	-3.84
294.175	-21.31
294.39	-42.38
294.605	-43.19
294.821	-25.65
295.036	-25.26
295.251	6.96
295.467	1.12
295.682	5.9
295.897	6.53
296.112	-4.63
296.328	-2.83
296.543	20.22
296.758	15.55
296.973	6
297.188	33.85
297.404	21.22
297.619	5.87
297.834	1.9
298.049	23.16
298.264	1.41
298.479	-3.91
298.694	-5.39
298.909	-12.65
299.125	8.86
299.34	27.19
299.555	17.01
299.77	4.12
299.985	-1.05
300.2	-67.12
300.415	-66.9
300.63	-59.01
300.845	-4.53
301.06	2.48
301.275	6.79
301.49	10.67
301.704	5.69
301.919	-6.75
302.134	-28.83
302.349	-4.04
302.564	-1.04
302.779	3.43
302.994	20.54
303.209	30.82
303.423	44.62
303.638	27.33
303.853	44.38
304.068	40.94
304.283	35.51
304.497	7.27
304.712	39.58
304.927	29.01
305.142	20.49
305.356	27.99
305.571	35.8
305.786	31.88
306	30.64
306.215	45.4
306.43	52.3
306.644	54.63
306.859	54.6
307.074	52.16
307.288	48.05
307.503	39.49
307.717	43.9
307.932	30.14
308.147	27.88
308.361	24.81
308.576	22.09
308.79	14.39
309.005	19.84
309.219	30.9
309.434	14.44
309.648	10.96
309.863	1.13
310.077	20.02
310.292	28.94
310.506	24.9
310.72	39.46
310.935	38.87
311.149	13.39
311.364	16.96
311.578	31.5
311.792	30.58
312.007	46.52
312.221	58.88
312.435	48
312.649	30.39
312.864	-13.91
313.078	-23.45
313.292	-27.93
313.507	-32.21
313.721	-21.42
313.935	20.61
314.149	35.04
314.363	35.28
314.578	35.97
314.792	26.75
315.006	21.1
315.22	28.44
315.434	22.6
315.648	8.04
315.862	5.6
316.077	-18.62
316.291	-35.37
316.505	-15.29
316.719	16.98
316.933	18.48
317.147	37.21
317.361	47.1
317.575	65.86
317.789	51.52
318.003	54.08
318.217	51.47
318.431	44.54
318.645	24.92
318.859	38.2
319.073	56.2
319.287	41.83
319.5	28.87
319.714	27.34
319.928	14.92
320.142	12.27
320.356	18.26
320.57	13.2
320.784	15.48
320.997	-11.82
321.211	-22.4
321.425	-11.4
321.639	4.83
321.853	20.15
322.066	29.82
322.28	53.37
322.494	41.74
322.707	51.99
322.921	49.86
323.135	44.82
323.349	31.57
323.562	20.44
323.776	10.37
323.989	5.24
324.203	7.43
324.417	-1.28
324.63	1.05
324.844	3.97
325.057	22.02
325.271	27.86
325.485	34.07
325.698	-3.47
325.912	3.67
326.125	-24.87
326.339	-20.91
326.552	-13.97
326.766	16.64
326.979	18.04
327.193	27.05
327.406	21.71
327.619	38.34
327.833	44.43
328.046	30.66
328.26	26.17
328.473	43.1
328.686	4.86
328.9	-0.81
329.113	10.25
329.326	23.33
329.54	19.52
329.753	18.24
329.966	-0.55
330.179	18.59
330.393	19.81
330.606	3.02
330.819	24.79
331.032	32.98
331.246	25.87
331.459	4.65
331.672	6.18
331.885	-8.08
332.098	-2.49
332.311	-2.07
332.525	4.97
332.738	-1.31
332.951	16.82
333.164	27.34
333.377	21.18
333.59	33.41
333.803	39.97
334.016	38.78
334.229	18.04
334.442	25.76
334.655	21.41
334.868	39.5
335.081	43.87
335.294	52.77
335.507	50.42
335.72	44.28
335.933	23.35
336.146	1.65
336.359	-3.37
336.572	-24.72
336.785	-2.63
336.997	7.27
337.21	22.61
337.423	11.63
337.636	14.5
337.849	-0.83
338.062	1.47
338.274	-5.28
338.487	10.31
338.7	1.56
338.913	5.87
339.125	12.82
339.338	35.93
339.551	27.71
339.763	28.17
339.976	30.05
340.189	30.25
340.402	18.91
340.614	12.68
340.827	26.77
341.039	22.83
341.252	19.18
341.465	21.94
341.677	37.09
341.89	24.57
342.102	41.63
342.315	24.95
342.527	9.79
342.74	29.32
342.952	29.73
343.165	30.52
343.377	46.94
343.59	51.21
343.802	46.57
344.015	48.99
344.227	39.6
344.44	34.14
344.652	43.08
344.864	36
345.077	44.92
345.289	52.08
345.502	46.49
345.714	32.84
345.926	29.67
346.139	17.66
346.351	15.88
346.563	12.29
346.775	22.6
346.988	12.62
347.2	-12.6
347.412	-13.97
347.624	12.88
347.837	12.4
348.049	14.7
348.261	20.4
348.473	29.33
348.685	28.47
348.897	29.58
349.11	32.01
349.322	30.57
349.534	33.5
349.746	26.24
349.958	35.05
350.17	35.22
350.382	29.15
350.594	5.29
350.806	19.93
351.018	10.11
351.23	10.77
351.442	25.61
351.654	29.25
351.866	26.99
352.078	18.96
352.29	10.32
352.502	5.39
352.714	12.91
352.926	-8.29
353.138	-3.86
353.35	-1.61
353.561	-6.65
353.773	4.79
353.985	27.42
354.197	22.27
354.409	33.47
354.621	43.75
354.832	31.79
355.044	18.7
355.256	33.15
355.468	21.97
355.679	20.96
355.891	26.55
356.103	38.27
356.314	47.31
356.526	56.9
356.738	54.42
356.949	58.26
357.161	70.36
357.373	63.79
357.584	45.14
357.796	25
358.008	19.81
358.219	15.01
358.431	6.1
358.642	22.99
358.854	30.11
359.065	27.87
359.277	16.47
359.488	27.69
359.7	20.89
359.911	15.99
360.123	10.57
360.334	20.01
360.546	13.33
360.757	19.86
360.969	35
361.18	48.29
361.391	48
361.603	48.31
361.814	53.12
362.025	44.54
362.237	34.78
362.448	24.26
362.659	23.65
362.871	12.83
363.082	10.11
363.293	18.41
363.504	21.11
363.716	19.51
363.927	11.16
364.138	15.36
364.349	5.82
364.56	-7
364.772	-8.18
364.983	15.19
365.194	18.43
365.405	5.36
365.616	5.52
365.827	3.17
366.038	-4.94
366.25	-5.13
366.461	14
366.672	25.73
366.883	26.6
367.094	26.66
367.305	26.43
367.516	25.62
367.727	27.37
367.938	25.51
368.149	15.41
368.36	2.65
368.571	11.87
368.781	11.6
368.992	16.24
369.203	37.75
369.414	31.3
369.625	26.99
369.836	16.69
370.047	17.27
370.258	-4.35
370.468	-0.83
370.679	-12.12
370.89	-16.52
371.101	-13.89
371.312	-17.02
371.522	-1.29
371.733	4.03
371.944	22.91
372.155	24.86
372.365	27.01
372.576	30.17
372.787	35.15
372.997	21.91
373.208	13.18
373.419	27.38
373.629	13.48
373.84	-7.57
374.05	-13.66
374.261	-4.86
374.472	-12.32
374.682	4.02
374.893	15.95
375.103	26.9
375.314	28.78
375.524	23.02
375.735	27.65
375.945	34.4
376.156	24.71
376.366	17.98
376.577	33.94
376.787	25.28
376.997	34.31
377.208	38.56
377.418	38.43
377.629	17.25
377.839	14.55
378.049	-1.8
378.26	1.46
378.47	8.32
378.68	10.66
378.89	12.32
379.101	15.18
379.311	12.85
379.521	9.64
379.732	24.36
379.942	32.76
380.152	33.71
380.362	27.58
380.572	31.6
380.783	19.21
380.993	13.2
381.203	18.36
381.413	21.7
381.623	15.1
381.833	8.67
382.043	2.84
382.253	-20.08
382.463	-27.44
382.674	-34.38
382.884	-23.15
383.094	-7.83
383.304	6.54
383.514	20.55
383.724	20.43
383.934	17.69
384.144	16.93
384.353	12.61
384.563	6.06
384.773	13.75
384.983	12.63
385.193	6.93
385.403	7.68
385.613	13.56
385.823	13.37
386.033	16.33
386.242	17.67
386.452	10.9
386.662	9.43
386.872	11.25
387.082	9.97
387.291	4.96
387.501	13.33
387.711	9.18
387.921	8.49
388.13	10.94
388.34	19.19
388.55	14.74
388.759	17.62
388.969	18.91
389.179	18.5
389.388	15.2
389.598	19.04
389.807	15.74
390.017	12.05
390.227	12.04
390.436	11.99
390.646	5.86
390.855	9.33
391.065	8.67
391.274	7.5
391.484	6.85
391.693	8.55
391.903	8.63
392.112	8.56
392.322	7.87
392.531	8.57
392.74	7.08
392.95	4.1
393.159	4.1
393.369	5.25
393.578	4.46
393.787	5.58
393.997	5.16
394.206	4.46
394.415	4.22
394.625	5.65
394.834	5.93
395.043	7.1
395.252	7.96
395.462	7.77
395.671	5.89
395.88	6.48
396.089	6.03
396.298	5.49
396.508	5.55
396.717	5.93
396.926	5.58
397.135	5.85
397.344	5.86
397.553	5.58
397.762	5.54
397.971	5.14
398.181	5.17
398.39	6.19
398.599	6.18
398.808	5.89
399.017	6.63
399.226	6.86
399.435	6.45
399.644	6.39
399.853	6.09
400.062	5.47
400.27	4.79
400.479	4.46
400.688	4.24
400.897	4.57
401.106	4.82
401.315	5.11
401.524	5.45
401.733	5.91
401.941	5.92
402.15	5.77
402.359	5.61
402.568	5.44
402.777	5.15
402.985	4.82
403.194	4.57
403.403	4.46
403.612	4.35
403.82	4.35
404.029	4.62
404.238	4.72
404.446	4.89
404.655	4.91
404.864	4.95
405.072	4.78
405.281	4.95
405.489	4.83
405.698	4.91
405.906	4.8
406.115	4.88
406.324	4.66
406.532	4.62
406.741	4.5
406.949	4.39
407.158	4.39
407.366	4.39
407.574	4.29
407.783	4.23
407.991	4.27
408.2	4.22
408.408	4.21
408.617	4.35
408.825	4.22
409.033	4.26
409.242	4.32
409.45	4.26
409.658	4.22
409.867	4.37
410.075	4.36
410.283	4.2
410.491	4.06
410.7	3.91
410.908	3.83
411.116	3.85
411.324	3.84
411.533	3.95
411.741	4.09
411.949	4.13
412.157	4.1
412.365	4.15
412.573	4.23
412.781	4.24
412.99	4.2
413.198	4.19
413.406	4.19
413.614	4.15
413.822	4.13
414.03	4.19
414.238	4.08
414.446	4.16
414.654	4.14
414.862	4.16
415.07	4.06
415.278	4.07
415.486	3.95
415.694	3.84
415.902	3.77
416.109	3.64
416.317	3.85
416.525	3.79
416.733	3.83
416.941	3.71
417.149	3.91
417.357	3.64
417.564	3.73
417.772	3.85
417.98	3.81
418.188	3.71
418.395	3.74
418.603	3.67
418.811	3.45
419.019	3.41
419.226	3.41
419.434	3.34
419.642	3.24
419.849	3.41
420.057	3.54
420.265	3.48
420.472	3.51
420.68	3.67
420.887	3.54
421.095	3.57
421.302	3.62
421.51	3.74
421.717	3.64
421.925	3.66
422.132	3.49
422.34	3.42
422.547	3.31
422.755	3.37
422.962	3.3
423.17	3.31
423.377	3.43
423.585	3.27
423.792	3.21
423.999	3.28
424.207	3.38
424.414	3.28
424.621	3.58
424.829	3.49
425.036	3.38
425.243	3.25
425.451	3.39
425.658	3.09
425.865	3.22
426.072	3.29
426.28	3.35
426.487	3.15
426.694	3.26
426.901	3.3
427.108	3.38
427.315	3.57
427.523	3.78
427.73	3.93
427.937	3.81
428.144	3.85
428.351	3.55
428.558	3.36
428.765	3.11
428.972	3.12
429.179	3
429.386	3.22
429.593	3.25
429.8	3.29
430.007	3.31
430.214	3.42
430.421	3.29
430.628	3.37
430.835	3.43
431.042	3.47
431.249	3.46
431.456	3.52
431.662	3.56
431.869	3.63
432.076	3.66
432.283	3.69
432.49	3.7
432.697	3.62
432.903	3.56
433.11	3.48
433.317	3.42
433.524	3.62
433.73	3.59
433.937	3.65
434.144	3.68
434.35	3.74
434.557	3.45
434.764	3.53
434.97	3.48
435.177	3.53
435.384	3.54
435.59	3.78
435.797	3.88
436.003	3.9
436.21	3.95
436.416	3.87
436.623	3.78
436.829	3.8
437.036	3.83
437.242	3.87
437.449	3.97
437.655	3.95
437.862	3.96
438.068	3.97
438.275	3.84
438.481	3.82
438.687	3.8
438.894	3.91
439.1	4.03
439.307	4.13
439.513	4.13
439.719	4.24
439.926	4.11
440.132	4.18
440.338	4.19
440.544	4.21
440.751	4.26
440.957	4.2
441.163	4.09
441.369	4.18
441.575	4.31
441.782	4.3
441.988	4.42
442.194	4.42
442.4	4.27
442.606	4.06
442.812	4.04
443.018	4.1
443.224	4.21
443.431	4.47
443.637	4.68
443.843	4.76
444.049	4.68
444.255	4.6
444.461	4.52
444.667	4.53
444.873	4.5
445.079	4.54
445.284	4.57
445.49	4.52
445.696	4.48
445.902	4.54
446.108	4.57
446.314	4.55
446.52	4.62
446.726	4.7
446.931	4.68
447.137	4.68
447.343	4.65
447.549	4.77
447.755	4.77
447.96	4.79
448.166	4.91
448.372	5.11
448.578	4.99
448.783	4.99
448.989	5.02
449.195	4.98
449.4	4.98
449.606	4.94
449.812	4.98
450.017	4.96
450.223	4.95
450.428	4.94
450.634	5.05
450.84	4.97
451.045	5.01
451.251	5.03
451.456	5.06
451.662	5.07
451.867	5.15
452.073	5.11
452.278	5.09
452.483	5.04
452.689	4.96
452.894	4.83
453.1	4.77
453.305	4.84
453.51	4.86
453.716	4.93
453.921	5.01
454.127	5.05
454.332	5.09
454.537	5.12
454.742	5.21
454.948	5.25
455.153	5.33
455.358	5.26
455.563	5.21
455.769	5
455.974	5.01
456.179	5
456.384	4.94
456.589	4.94
456.795	5.05
457	5.04
457.205	5.05
457.41	5.06
457.615	5.13
457.82	5.14
458.025	5.17
458.23	5.05
458.435	5.15
458.64	5.09
458.845	5.15
459.05	5.13
459.255	5.3
459.46	5.33
459.665	5.32
459.87	5.21
460.075	5.24
460.28	5.16
460.485	5.23
460.69	5.24
460.895	5.34
461.099	5.36
461.304	5.5
461.509	5.51
461.714	5.58
461.919	5.57
462.123	5.54
462.328	5.41
462.533	5.39
462.738	5.45
462.942	5.49
463.147	5.55
463.352	5.65
463.556	5.72
463.761	5.62
463.966	5.51
464.17	5.53
464.375	5.48
464.58	5.43
464.784	5.55
464.989	5.64
465.193	5.66
465.398	5.65
465.602	5.67
465.807	5.64
466.011	5.67
466.216	5.74
466.42	5.93
466.625	5.91
466.829	5.88
467.034	5.87
467.238	5.87
467.443	5.71
467.647	5.74
467.851	5.77
468.056	5.88
468.26	5.87
468.464	5.98
468.669	6.03
468.873	6.06
469.077	6.01
469.282	5.93
469.486	5.85
469.69	5.89
469.894	5.99
470.099	6.11
470.303	6.24
470.507	6.24
470.711	6.23
470.915	6.19
471.119	6.13
471.324	6.13
471.528	6.23
471.732	6.2
471.936	6.16
472.14	6.24
472.344	6.27
472.548	6.34
472.752	6.39
472.956	6.41
473.16	6.45
473.364	6.47
473.568	6.41
473.772	6.39
473.976	6.47
474.18	6.37
474.384	6.42
474.588	6.41
474.792	6.49
474.995	6.46
475.199	6.61
475.403	6.59
475.607	6.64
475.811	6.67
476.015	6.72
476.218	6.65
476.422	6.57
476.626	6.59
476.83	6.56
477.033	6.62
477.237	6.66
477.441	6.78
477.644	6.78
477.848	6.77
478.052	6.71
478.255	6.8
478.459	6.83
478.663	6.9
478.866	6.97
479.07	7.05
479.273	6.99
479.477	6.94
479.681	6.97
479.884	7
480.088	7.01
480.291	7.06
480.495	7.09
480.698	7.09
480.901	7.12
481.105	7.14
481.308	7.16
481.512	7.19
481.715	7.2
481.919	7.12
482.122	7.07
482.325	7.07
482.529	7.11
482.732	7.12
482.935	7.15
483.138	7.18
483.342	7.2
483.545	7.18
483.748	7.15
483.952	7.19
484.155	7.27
484.358	7.26
484.561	7.25
484.764	7.28
484.967	7.29
485.171	7.3
485.374	7.28
485.577	7.31
485.78	7.35
485.983	7.33
486.186	7.37
486.389	7.31
486.592	7.32
486.795	7.36
486.998	7.37
487.201	7.33
487.404	7.4
487.607	7.4
487.81	7.35
488.013	7.36
488.216	7.38
488.419	7.44
488.622	7.48
488.825	7.53
489.028	7.56
489.231	7.56
489.433	7.48
489.636	7.44
489.839	7.39
490.042	7.35
490.245	7.39
490.447	7.39
490.65	7.34
490.853	7.27
491.056	7.24
491.258	7.23
491.461	7.29
491.664	7.3
491.866	7.4
492.069	7.56
492.272	7.54
492.474	7.54
492.677	7.58
492.879	7.53
493.082	7.48
493.285	7.49
493.487	7.49
493.69	7.5
493.892	7.48
494.095	7.46
494.297	7.48
494.5	7.54
494.702	7.56
494.905	7.62
495.107	7.58
495.309	7.64
495.512	7.57
495.714	7.58
495.917	7.65
496.119	7.73
496.321	7.78
496.524	7.83
496.726	7.85
496.928	7.77
497.13	7.79
497.333	7.66
497.535	7.66
497.737	7.71
497.939	7.73
498.142	7.74
498.344	7.83
498.546	7.84
498.748	7.82
498.95	7.94
499.152	7.94
499.355	7.96
499.557	8.01
499.759	8.04
499.961	8.03
500.163	8.04
500.365	8.15
500.567	8.19
500.769	8.21
500.971	8.25
501.173	8.29
501.375	8.24
501.577	8.19
501.779	8.24
501.981	8.22
502.183	8.22
502.385	8.28
502.587	8.33
502.788	8.41
502.99	8.45
503.192	8.5
503.394	8.46
503.596	8.55
503.798	8.55
503.999	8.58
504.201	8.63
504.403	8.67
504.605	8.72
504.806	8.73
505.008	8.78
505.21	8.79
505.411	8.8
505.613	8.81
505.815	8.87
506.016	8.93
506.218	8.96
506.42	9.06
506.621	9.04
506.823	9.03
507.024	9.07
507.226	9.11
507.427	9.12
507.629	9.15
507.83	9.23
508.032	9.21
508.233	9.28
508.435	9.43
508.636	9.52
508.838	9.54
509.039	9.6
509.24	9.6
509.442	9.49
509.643	9.48
509.845	9.5
510.046	9.54
510.247	9.6
510.448	9.67
510.65	9.76
510.851	9.83
511.052	9.88
511.254	9.93
511.455	9.92
511.656	9.96
511.857	9.98
512.058	9.95
512.26	9.91
512.461	10.01
512.662	9.98
512.863	9.95
513.064	10.03
513.265	10.11
513.466	10.1
513.667	10.24
513.868	10.31
514.069	10.31
514.27	10.4
514.471	10.44
514.672	10.45
514.873	10.5
515.074	10.55
515.275	10.39
515.476	10.42
515.677	10.35
515.878	10.33
516.079	10.32
516.28	10.42
516.481	10.41
516.682	10.48
516.882	10.49
517.083	10.46
517.284	10.55
517.485	10.56
517.686	10.61
517.886	10.69
518.087	10.72
518.288	10.67
518.488	10.73
518.689	10.75
518.89	10.73
519.091	10.81
519.291	10.9
519.492	10.96
519.692	10.97
519.893	11.06
520.094	11.08
520.294	11.12
520.495	11.11
520.695	11.08
520.896	11.05
521.096	11.07
521.297	10.99
521.497	11.02
521.698	10.96
521.898	10.95
522.099	10.96
522.299	11.01
522.499	11.01
522.7	11.11
522.9	11.17
523.101	11.1
523.301	11.15
523.501	11.2
523.702	11.22
523.902	11.25
524.102	11.31
524.302	11.32
524.503	11.32
524.703	11.3
524.903	11.3
525.103	11.34
525.304	11.36
525.504	11.38
525.704	11.43
525.904	11.38
526.104	11.41
526.304	11.44
526.504	11.47
526.705	11.46
526.905	11.57
527.105	11.59
527.305	11.6
527.505	11.61
527.705	11.67
527.905	11.64
528.105	11.52
528.305	11.48
528.505	11.43
528.705	11.47
528.905	11.48
529.105	11.6
529.304	11.68
529.504	11.75
529.704	11.73
529.904	11.76
530.104	11.77
530.304	11.76
530.503	11.78
530.703	11.77
530.903	11.75
531.103	11.77
531.303	11.79
531.502	11.84
531.702	11.89
531.902	11.97
532.101	11.97
532.301	12.03
532.501	12.03
532.7	12.05
532.9	12.1
533.1	12.17
533.299	12.17
533.499	12.2
533.698	12.16
533.898	12.16
534.097	12.13
534.297	12.19
534.496	12.22
534.696	12.31
534.895	12.34
535.095	12.4
535.294	12.42
535.494	12.42
535.693	12.47
535.892	12.48
536.092	12.52
536.291	12.51
536.491	12.51
536.69	12.57
536.889	12.62
537.088	12.62
537.288	12.66
537.487	12.73
537.686	12.78
537.886	12.82
538.085	12.91
538.284	12.92
538.483	12.89
538.682	12.83
538.882	12.88
539.081	12.87
539.28	12.9
539.479	13
539.678	13.06
539.877	13.04
540.076	13.15
540.275	13.19
540.474	13.2
540.673	13.24
540.872	13.3
541.071	13.31
541.27	13.38
541.469	13.39
541.668	13.44
541.867	13.53
542.066	13.63
542.265	13.69
542.464	13.74
542.663	13.75
542.862	13.8
543.06	13.75
543.259	13.78
543.458	13.81
543.657	13.88
543.856	13.89
544.054	13.94
544.253	13.99
544.452	14.06
544.651	14.12
544.849	14.15
545.048	14.21
545.247	14.29
545.445	14.4
545.644	14.44
545.843	14.5
546.041	14.55
546.24	14.6
546.438	14.62
546.637	14.66
546.836	14.79
547.034	14.92
547.233	14.99
547.431	14.99
547.63	15.07
547.828	15.1
548.027	15.08
548.225	15.1
548.423	15.26
548.622	15.34
548.82	15.4
549.019	15.58
549.217	15.7
549.415	15.77
549.614	15.92
549.812	15.99
550.01	15.99
550.209	16.09
550.407	16.11
550.605	16.12
550.803	16.14
551.002	16.23
551.2	16.26
551.398	16.37
551.596	16.46
551.794	16.66
551.993	16.72
552.191	16.84
552.389	16.93
552.587	17.04
552.785	17.05
552.983	17.18
553.181	17.19
553.379	17.28
553.577	17.37
553.775	17.47
553.973	17.51
554.171	17.65
554.369	17.8
554.567	17.88
554.765	18.01
554.963	18.21
555.161	18.28
555.359	18.34
555.557	18.47
555.755	18.56
555.952	18.55
556.15	18.79
556.348	18.87
556.546	18.93
556.744	19.04
556.941	19.14
557.139	19.22
557.337	19.39
557.535	19.5
557.732	19.64
557.93	19.75
558.128	19.79
558.325	19.94
558.523	20.02
558.721	20.05
558.918	20.22
559.116	20.35
559.313	20.35
559.511	20.51
559.708	20.59
559.906	20.72
560.104	20.83
560.301	20.99
560.498	21.15
560.696	21.33
560.893	21.4
561.091	21.48
561.288	21.58
561.486	21.6
561.683	21.64
561.88	21.79
562.078	21.87
562.275	21.95
562.473	22.1
562.67	22.26
562.867	22.22
563.064	22.4
563.262	22.44
563.459	22.52
563.656	22.63
563.853	22.79
564.051	22.79
564.248	22.91
564.445	23
564.642	23.06
564.839	23.23
565.036	23.4
565.234	23.46
565.431	23.62
565.628	23.72
565.825	23.74
566.022	23.82
566.219	23.98
566.416	24.01
566.613	24.1
566.81	24.26
567.007	24.27
567.204	24.24
567.401	24.27
567.598	24.38
567.795	24.42
567.991	24.54
568.188	24.67
568.385	24.72
568.582	24.8
568.779	24.78
568.976	24.89
569.172	25
569.369	25.12
569.566	25.11
569.763	25.21
569.96	25.25
570.156	25.25
570.353	25.29
570.55	25.36
570.746	25.55
570.943	25.62
571.14	25.72
571.336	25.79
571.533	25.78
571.729	25.78
571.926	25.76
572.123	25.69
572.319	25.73
572.516	25.79
572.712	25.71
572.909	25.73
573.105	25.8
573.302	25.79
573.498	25.83
573.695	25.84
573.891	25.81
574.087	25.8
574.284	25.86
574.48	25.82
574.677	25.91
574.873	25.97
575.069	25.99
575.266	25.88
575.462	25.9
575.658	25.83
575.854	25.85
576.051	25.86
576.247	25.89
576.443	25.87
576.639	25.92
576.835	25.93
577.032	25.85
577.228	26
577.424	26.03
577.62	26.01
577.816	25.96
578.012	26
578.208	25.81
578.404	25.83
578.6	25.78
578.796	25.8
578.993	25.91
579.189	25.89
579.384	25.88
579.58	25.93
579.776	25.9
579.972	25.82
580.168	25.92
580.364	25.87
580.56	25.9
580.756	25.88
580.952	25.86
581.148	25.82
581.343	25.91
581.539	25.84
581.735	25.78
581.931	25.79
582.127	25.78
582.322	25.76
582.518	25.73
582.714	25.74
582.909	25.69
583.105	25.65
583.301	25.56
583.496	25.5
583.692	25.5
583.888	25.41
584.083	25.31
584.279	25.31
584.474	25.27
584.67	25.24
584.866	25.28
585.061	25.35
585.257	25.38
585.452	25.47
585.648	25.5
585.843	25.5
586.039	25.47
586.234	25.36
586.429	25.25
586.625	25.15
586.82	25.22
587.015	25.26
587.211	25.25
587.406	25.3
587.601	25.3
587.797	25.13
587.992	25.02
588.187	25.12
588.383	25.15
588.578	25.26
588.773	25.33
588.968	25.43
589.163	25.4
589.359	25.42
589.554	25.46
589.749	25.49
589.944	25.54
590.139	25.6
590.334	25.63
590.529	25.58
590.724	25.69
590.919	25.72
591.114	25.65
591.309	25.58
591.504	25.63
591.699	25.57
591.894	25.54
592.089	25.53
592.284	25.57
592.479	25.66
592.674	25.71
592.869	25.79
593.064	25.83
593.259	26.02
593.454	26.04
593.648	26.08
593.843	26.15
594.038	26.33
594.233	26.28
594.428	26.34
594.622	26.45
594.817	26.47
595.012	26.47
595.206	26.57
595.401	26.58
595.596	26.54
595.79	26.55
595.985	26.51
596.18	26.61
596.374	26.64
596.569	26.76
596.763	26.94
596.958	27.08
597.153	27.06
597.347	27.24
597.542	27.36
597.736	27.33
597.931	27.46
598.125	27.52
598.319	27.5
598.514	27.46
598.708	27.56
598.903	27.49
599.097	27.6
599.291	27.63
599.486	27.67
599.68	27.78
599.874	27.91
600.069	27.9
600.263	27.95
600.457	27.99
600.651	27.96
600.846	27.98
601.04	28.06
601.234	28.12
601.428	28.19
601.622	28.25
601.817	28.25
602.011	28.27
602.205	28.3
602.399	28.31
602.593	28.31
602.787	28.33
602.981	28.3
603.175	28.45
603.369	28.47
603.563	28.48
603.757	28.5
603.951	28.51
604.145	28.28
604.339	28.23
604.533	28.19
604.727	28.24
604.921	28.16
605.115	28.15
605.309	28.1
605.502	28.12
605.696	28.09
605.89	28.09
606.084	28.2
606.278	28.25
606.471	28.13
606.665	28.02
606.859	28.04
607.053	27.92
607.246	27.84
607.44	27.87
607.634	27.88
607.827	27.84
608.021	27.78
608.214	27.75
608.408	27.67
608.602	27.66
608.795	27.57
608.989	27.58
609.182	27.44
609.376	27.37
609.569	27.28
609.763	27.23
609.956	27.21
610.15	27.14
610.343	27.13
610.537	26.98
610.73	26.96
610.923	26.76
611.117	26.77
611.31	26.65
611.504	26.61
611.697	26.44
611.89	26.44
612.083	26.31
612.277	26.13
612.47	26.04
612.663	26.01
612.856	25.89
613.05	25.87
613.243	25.95
613.436	25.81
613.629	25.73
613.822	25.73
614.015	25.62
614.209	25.53
614.402	25.57
614.595	25.41
614.788	25.29
614.981	25.32
615.174	25.17
615.367	25.02
615.56	24.93
615.753	24.87
615.946	24.74
616.139	24.74
616.332	24.71
616.525	24.7
616.718	24.69
616.911	24.63
617.103	24.52
617.296	24.51
617.489	24.5
617.682	24.37
617.875	24.36
618.067	24.38
618.26	24.36
618.453	24.39
618.646	24.41
618.838	24.27
619.031	24.19
619.224	24.11
619.417	24.03
619.609	23.96
619.802	23.97
619.994	24
620.187	23.97
620.38	23.97
620.572	23.92
620.765	23.8
620.957	23.74
621.15	23.74
621.342	23.65
621.535	23.62
621.727	23.72
621.92	23.67
622.112	23.53
622.305	23.52
622.497	23.52
622.69	23.38
622.882	23.36
623.074	23.41
623.267	23.38
623.459	23.33
623.651	23.35
623.844	23.36
624.036	23.33
624.228	23.22
624.42	23.27
624.613	23.25
624.805	23.15
624.997	23.13
625.189	23.2
625.381	23.09
625.574	22.98
625.766	23
625.958	22.96
626.15	22.9
626.342	22.85
626.534	22.89
626.726	22.81
626.918	22.77
627.11	22.75
627.302	22.77
627.494	22.71
627.686	22.76
627.878	22.72
628.07	22.61
628.262	22.55
628.454	22.53
628.646	22.48
628.838	22.43
629.029	22.47
629.221	22.36
629.413	22.36
629.605	22.35
629.797	22.36
629.989	22.22
630.18	22.22
630.372	22.17
630.564	22.03
630.755	21.94
630.947	22.02
631.139	21.98
631.33	21.84
631.522	21.84
631.714	21.77
631.905	21.6
632.097	21.57
632.289	21.54
632.48	21.47
632.672	21.46
632.863	21.48
633.055	21.46
633.246	21.51
633.438	21.44
633.629	21.38
633.821	21.3
634.012	21.23
634.203	21.13
634.395	21.14
634.586	21.16
634.777	21.17
634.969	21.08
635.16	21.04
635.351	21.03
635.543	21.03
635.734	20.99
635.925	21.13
636.117	21.23
636.308	21.12
636.499	20.98
636.69	20.92
636.881	20.82
637.073	20.76
637.264	20.81
637.455	20.86
637.646	20.9
637.837	20.86
638.028	20.74
638.219	20.64
638.41	20.54
638.601	20.55
638.792	20.48
638.983	20.48
639.174	20.47
639.365	20.5
639.556	20.36
639.747	20.37
639.938	20.36
640.129	20.32
640.32	20.27
640.511	20.24
640.701	20.23
640.892	20.16
641.083	20.15
641.274	20.09
641.465	20.04
641.655	19.86
641.846	19.78
642.037	19.7
642.228	19.64
642.418	19.7
642.609	19.82
642.8	19.77
642.99	19.71
643.181	19.72
643.372	19.58
643.562	19.46
643.753	19.52
643.943	19.55
644.134	19.49
644.324	19.52
644.515	19.5
644.705	19.35
644.896	19.23
645.086	19.25
645.277	19.15
645.467	19.23
645.658	19.22
645.848	19.21
646.038	19.12
646.229	19.15
646.419	19.01
646.61	19.06
646.8	19.03
646.99	19.04
647.18	19
647.371	19.02
647.561	18.98
647.751	19.07
647.941	19.02
648.132	18.94
648.322	18.91
648.512	18.84
648.702	18.72
648.892	18.7
649.082	18.69
649.272	18.61
649.462	18.61
649.653	18.61
649.843	18.62
650.033	18.67
650.223	18.77
650.413	18.73
650.603	18.69
650.793	18.63
650.983	18.57
651.172	18.41
651.362	18.37
651.552	18.41
651.742	18.39
651.932	18.28
652.122	18.38
652.312	18.35
652.502	18.25
652.691	18.28
652.881	18.28
653.071	18.14
653.261	18.1
653.45	17.95
653.64	17.78
653.83	17.74
654.019	17.68
654.209	17.57
654.399	17.54
654.588	17.54
654.778	17.39
654.968	17.28
655.157	17.19
655.347	17.08
655.536	16.84
655.726	16.76
655.915	16.56
656.105	16.35
656.294	16.22
656.484	16.11
656.673	16.05
656.863	15.93
657.052	15.88
657.241	15.76
657.431	15.61
657.62	15.39
657.809	15.28
657.999	15.17
658.188	14.91
658.377	14.81
658.567	14.71
658.756	14.55
658.945	14.37
659.134	14.28
659.324	14.03
659.513	13.8
659.702	13.66
659.891	13.52
660.08	13.34
660.269	13.24
660.458	13.15
660.648	13.02
660.837	12.91
661.026	12.76
661.215	12.51
661.404	12.3
661.593	12.1
661.782	11.87
661.971	11.64
662.16	11.53
662.349	11.42
662.538	11.26
662.726	11.17
662.915	11.08
663.104	11.09
663.293	10.92
663.482	10.89
663.671	10.78
663.86	10.63
664.048	10.43
664.237	10.35
664.426	10.19
664.615	10.05
664.803	10
664.992	9.78
665.181	9.69
665.369	9.66
665.558	9.51
665.747	9.45
665.935	9.51
666.124	9.36
666.312	9.23
666.501	9.13
666.69	9.1
666.878	8.96
667.067	8.88
667.255	8.86
667.444	8.8
667.632	8.73
667.82	8.73
668.009	8.77
668.197	8.65
668.386	8.67
668.574	8.61
668.762	8.58
668.951	8.55
669.139	8.49
669.327	8.52
669.516	8.5
669.704	8.37
669.892	8.35
670.08	8.33
670.269	8.25
670.457	8.18
670.645	8.25
670.833	8.27
671.021	8.4
671.21	8.39
671.398	8.41
671.586	8.37
671.774	8.34
671.962	8.23
672.15	8.3
672.338	8.38
672.526	8.34
672.714	8.3
672.902	8.4
673.09	8.34
673.278	8.33
673.466	8.51
673.654	8.66
673.842	8.59
674.03	8.7
674.218	8.74
674.405	8.71
674.593	8.67
674.781	8.76
674.969	8.83
675.157	8.82
675.344	8.88
675.532	8.98
675.72	9
675.908	8.97
676.095	8.94
676.283	9.09
676.471	9.05
676.658	9.22
676.846	9.36
677.033	9.7
677.221	9.61
677.409	9.67
677.596	9.7
677.784	9.63
677.971	9.54
678.159	9.68
678.346	9.81
678.534	9.94
678.721	10.04
678.909	10.12
679.096	10.23
679.283	10.4
679.471	10.25
679.658	10.52
679.846	10.73
680.033	10.8
680.22	10.92
680.408	11.19
680.595	11.13
680.782	11.2
680.969	11.33
681.157	11.35
681.344	11.47
681.531	11.72
681.718	11.84
681.905	11.98
682.093	12.24
682.28	12.49
682.467	12.55
682.654	12.78
682.841	13.02
683.028	13.07
683.215	13.11
683.402	13.35
683.589	13.52
683.776	13.66
683.963	13.9
684.15	14.2
684.337	14.35
684.524	14.62
684.711	14.94
684.898	15.23
685.085	15.56
685.271	15.99
685.458	16.23
685.645	16.28
685.832	16.56
686.019	16.88
686.205	17.05
686.392	17.36
686.579	17.84
686.766	18.15
686.952	18.36
687.139	18.75
687.326	19.24
687.512	19.67
687.699	20.21
687.886	20.74
688.072	21.18
688.259	21.52
688.445	21.97
688.632	22.36
688.818	22.77
689.005	23.34
689.191	23.67
689.378	24.06
689.564	24.43
689.751	24.81
689.937	25.1
690.124	25.61
690.31	26.17
690.496	26.87
690.683	27.68
690.869	28.33
691.055	29.02
691.242	29.61
691.428	30
691.614	30.56
691.8	31.23
691.987	31.76
692.173	32.36
692.359	33.34
692.545	33.79
692.731	34.33
692.918	35.03
693.104	35.56
693.29	35.78
693.476	36.49
693.662	37.17
693.848	37.84
694.034	38.52
694.22	39.14
694.406	39.58
694.592	40.21
694.778	40.57
694.964	41.29
695.15	42
695.336	42.81
695.522	43.57
695.708	44.43
695.894	45.12
696.08	45.68
696.265	46.22
696.451	46.95
696.637	47.58
696.823	48.15
697.009	48.93
697.194	49.38
697.38	49.73
697.566	50.4
697.751	50.94
697.937	51.38
698.123	52.25
698.308	53.07
698.494	53.69
698.68	54.1
698.865	54.78
699.051	55.37
699.236	55.8
699.422	56.24
699.607	56.95
699.793	57.5
699.978	57.76
700.164	58.18
700.349	58.61
700.535	59.07
700.72	59.69
700.906	60.21
701.091	60.69
701.276	61.23
701.462	61.61
701.647	61.9
701.832	62.6
702.018	63.1
702.203	63.61
702.388	64.17
702.573	64.59
702.759	65
702.944	65.43
703.129	65.75
703.314	65.96
703.499	66.43
703.684	66.96
703.87	67.13
704.055	67.44
704.24	68.1
704.425	68.45
704.61	68.63
704.795	69.21
704.98	69.6
705.165	69.94
705.35	70.36
705.535	71.04
705.72	71.17
705.905	71.53
706.09	71.69
706.275	72.03
706.459	71.81
706.644	71.93
706.829	72.45
707.014	72.72
707.199	72.65
707.384	73.28
707.568	73.67
707.753	73.81
707.938	74.33
708.123	74.76
708.307	75.03
708.492	76.13
708.677	76.46
708.861	76.48
709.046	77.1
709.231	77.56
709.415	76.9
709.6	77.09
709.784	77.53
709.969	77.72
710.153	77.95
710.338	78.72
710.522	79
710.707	79.05
710.891	79.12
711.076	78.67
711.26	78.47
711.445	78.57
711.629	79.25
711.813	79.29
711.998	80.34
712.182	80.48
712.366	80.96
712.551	80.73
712.735	80.93
712.919	80.68
713.103	80.96
713.288	80.8
713.472	81.3
713.656	81.83
713.84	81.73
714.024	82.31
714.208	82.41
714.393	82.1
714.577	82.3
714.761	82.85
714.945	82.96
715.129	83.7
715.313	84.04
715.497	84.44
715.681	83.98
715.865	84.33
716.049	84.24
716.233	84.45
716.417	84.19
716.601	84.67
716.785	84.74
716.968	84.83
717.152	84.85
717.336	85.4
717.52	85.49
717.704	85.48
717.888	85.18
718.071	85.66
718.255	85.52
718.439	86
718.622	85.76
718.806	86.21
718.99	86.27
719.174	86.28
719.357	86.15
719.541	86.77
719.724	87.01
719.908	87.19
720.092	87.15
720.275	87.4
720.459	87.88
720.642	87.87
720.826	87.81
721.009	87.5
721.193	87.72
721.376	87.06
721.559	87.08
721.743	86.76
721.926	87.02
722.11	86.6
722.293	87.06
722.476	87.65
722.66	87.97
722.843	88.46
723.026	88.99
723.21	88.58
723.393	88.6
723.576	88.88
723.759	88.91
723.942	89.36
724.126	89.22
724.309	89.56
724.492	89.73
724.675	89.93
724.858	89.54
725.041	90.71
725.224	90.65
725.407	90.77
725.59	91.07
725.774	91.36
725.957	91.32
726.14	91.03
726.322	90.98
726.505	90.65
726.688	90.74
726.871	90.3
727.054	90.36
727.237	91.07
727.42	91.33
727.603	91.52
727.786	91.39
727.968	91.91
728.151	91.43
728.334	91.73
728.517	91.52
728.699	91.46
728.882	91.05
729.065	91.12
729.248	91.65
729.43	91.57
729.613	92.05
729.796	92.28
729.978	92.14
730.161	91.59
730.343	91.91
730.526	92.16
730.708	92.19
730.891	92.5
731.073	92.93
731.256	93.63
731.438	93.03
731.621	92.55
731.803	93.11
731.986	92.96
732.168	92.7
732.35	93.14
732.533	93.79
732.715	93.1
732.898	93.24
733.08	93.12
733.262	94.06
733.444	93.78
733.627	93.99
733.809	93.95
733.991	94.14
734.173	93.28
734.355	94.35
734.538	94.48
734.72	94.72
734.902	94.77
735.084	95.36
735.266	95.19
735.448	94.8
735.63	95.11
735.812	95.36
735.994	95.36
736.176	95.1
736.358	95.89
736.54	96.26
736.722	96.6
736.904	96.83
737.086	97.37
737.268	96.86
737.45	95.8
737.632	95.97
737.814	95.45
737.995	95.07
738.177	95.71
738.359	96.22
738.541	95.43
738.723	96.08
738.904	96.23
739.086	96.91
739.268	96.57
739.449	97.45
739.631	97.8
739.813	96.47
739.994	96.06
740.176	96.36
740.358	96.09
740.539	96
740.721	97.04
740.902	97.16
741.084	97.04
741.265	96.76
741.447	96.41
741.628	96.58
741.81	95.68
741.991	95.7
742.172	95.86
742.354	96.1
742.535	96.24
742.717	97.43
742.898	97.53
743.079	97.67
743.261	98.49
743.442	97.18
743.623	96.36
743.804	95.68
743.986	96.25
744.167	94.46
744.348	95.66
744.529	94.84
744.71	96.09
744.891	95.65
745.073	96.97
745.254	96.49
745.435	97.38
745.616	96.57
745.797	95.8
745.978	94.91
746.159	95.69
746.34	95.45
746.521	96.46
746.702	96.28
746.883	96.75
747.064	97.18
747.245	97.44
747.426	96.61
747.606	97.02
747.787	97.17
747.968	97.32
748.149	97.77
748.33	97.59
748.51	98.44
748.691	98.02
748.872	97.48
749.053	97.11
749.233	97.96
749.414	97.97
749.595	98.72
749.775	97.65
749.956	98.81
750.137	98.09
750.317	96.93
750.498	95.87
750.678	96.03
750.859	95.45
751.04	95.34
751.22	97.11
751.4	97.55
751.581	97.59
751.761	97.14
751.942	97.68
752.122	96.89
752.303	95.43
752.483	96.66
752.663	95.55
752.844	94.54
753.024	94.38
753.204	95.71
753.385	94.43
753.565	96.05
753.745	96.59
753.925	95.77
754.106	95.82
754.286	97.87
754.466	97.76
754.646	97.42
754.826	98.36
755.006	97.48
755.187	95.81
755.367	96.13
755.547	96.24
755.727	96.22
755.907	96.83
756.087	97.23
756.267	96.24
756.447	97.93
756.627	98.12
756.807	98.16
756.987	97.9
757.167	97.66
757.346	96.76
757.526	96.86
757.706	97.41
757.886	97.36
758.066	97.67
758.246	96.8
758.425	96.07
758.605	95.84
758.785	95.56
758.965	94.86
759.144	94.77
759.324	95.77
759.504	95.28
759.683	95.35
759.863	95.71
760.043	95.98
760.222	95.31
760.402	95.74
760.581	96.58
760.761	96.62
760.94	95.25
761.12	96.49
761.299	97.58
761.479	97.13
761.658	98.12
761.838	100.18
762.017	98.76
762.197	97.53
762.376	95.99
762.555	95.07
762.735	93.09
762.914	93.13
763.093	93.28
763.273	93.8
763.452	94.2
763.631	95.5
763.81	95.97
763.99	96.42
764.169	96.93
764.348	96.76
764.527	96.37
764.706	95.9
764.885	94.57
765.064	94.49
765.243	94.63
765.423	93.81
765.602	93.2
765.781	93.23
765.96	93.06
766.139	93.06
766.318	94.34
766.497	94.06
766.676	93.36
766.854	91.94
767.033	91.7
767.212	91.67
767.391	91.61
767.57	93.21
767.749	95.17
767.928	95.42
768.106	95.96
768.285	95.52
768.464	95.05
768.643	94.99
768.821	95.66
769	95.64
769.179	96.58
769.357	96.95
769.536	97.15
769.715	97.54
769.893	96.38
770.072	96.57
770.25	95.03
770.429	95.45
770.607	94.48
770.786	95.65
770.964	95.95
771.143	97.56
771.321	97
771.5	96.15
771.678	94.7
771.857	93.39
772.035	91.7
772.213	91.93
772.392	92.25
772.57	93.49
772.748	94.96
772.927	98.94
773.105	98.87
773.283	97.74
773.461	94.77
773.64	93.56
773.818	90.39
773.996	91.06
774.174	92.55
774.352	96.84
774.531	94.96
774.709	96.91
774.887	94.15
775.065	94.31
775.243	91.43
775.421	93.48
775.599	91.75
775.777	91.13
775.955	89.4
776.133	89.6
776.311	88.87
776.489	88.52
776.667	92.88
776.844	93.82
777.022	94.18
777.2	95.15
777.378	96.13
777.556	92.91
777.734	94.09
777.911	93.71
778.089	92.59
778.267	92.54
778.445	92.1
778.622	88.75
778.8	89.89
778.978	91.44
779.155	92.07
779.333	93.57
779.511	94.98
779.688	95.09
779.866	95.67
780.043	95.03
780.221	93.98
780.398	93.45
780.576	93.87
780.753	91.38
780.931	89.46
781.108	87.65
781.286	85.26
781.463	83.61
781.64	81.31
781.818	84.02
781.995	85.74
782.172	87.93
782.35	90.06
782.527	90.88
782.704	89.02
782.882	90.04
783.059	92.75
783.236	90.57
783.413	97.45
783.59	101.66
783.768	101.08
783.945	100.73
784.122	101.2
784.299	95.9
784.476	94.11
784.653	94.83
784.83	94.46
785.007	96.28
785.184	98.16
785.361	96.72
785.538	94.41
785.715	93.52
785.892	90.67
786.069	88.6
786.246	88.35
786.423	88.46
786.6	89.67
786.776	89.7
786.953	88.61
787.13	84.62
787.307	86.48
787.484	84.19
787.66	85.12
787.837	85.37
788.014	92.19
788.191	91.6
788.367	91.41
788.544	91.01
788.721	93.24
788.897	89.3
789.074	89.3
789.25	89.03
789.427	90.28
789.603	87.9
789.78	88.54
789.956	86.47
790.133	90.3
790.309	87.98
790.486	90.61
790.662	86.18
790.839	86.73
791.015	84.2
791.192	83.68
791.368	80.14
791.544	85.22
791.721	86.29
791.897	87.91
792.073	94.28
792.249	95.93
792.426	96.9
792.602	93.24
792.778	92.68
792.954	87.23
793.13	87.05
793.307	86.17
793.483	91.93
793.659	91.71
793.835	92.52
794.011	93.53
794.187	89.43
794.363	87.15
794.539	85.1
794.715	88.9
794.891	89.44
795.067	91.49
795.243	90.28
795.419	92.84
795.595	88.56
795.771	86.33
795.947	91.38
796.122	92.25
796.298	87.77
796.474	91.73
796.65	89.84
796.826	86.04
797.001	82.62
797.177	84.17
797.353	82.58
797.529	84.05
797.704	82.81
797.88	85.47
798.056	89.34
798.231	80.72
798.407	85.71
798.582	86.97
798.758	89.59
798.934	88.76
799.109	98.69
799.285	93.46
799.46	94.57
799.636	89.24
799.811	88.54
799.986	87.91
800.162	87.78
800.337	87.46
800.513	88.52
800.688	87.4
800.863	85.43
801.039	87.11
801.214	86.53
801.389	89.19
801.565	91.45
801.74	90.36
801.915	91.1
802.09	89.89
802.265	87.25
802.441	84.79
802.616	86.48
802.791	82.99
802.966	79.3
803.141	77.23
803.316	76.65
803.491	77.04
803.666	74.56
803.841	75.15
804.016	80.87
804.191	82.19
804.366	81.12
804.541	88.95
804.716	90.04
804.891	87.68
805.066	89.56
805.241	95.61
805.416	86.83
805.591	87.37
805.765	97.05
805.94	94.7
806.115	85.66
806.29	90
806.464	93.44
806.639	81.51
806.814	81.93
806.989	88.2
807.163	81.8
807.338	78.35
807.512	84.38
807.687	83.76
807.862	87.05
808.036	96.51
808.211	94.3
808.385	94.43
808.56	91.51
808.734	80.41
808.909	75.68
809.083	81.43
809.258	79.02
809.432	88.24
809.606	91.11
809.781	98.51
809.955	94.37
810.13	93.08
810.304	78.9
810.478	79.78
810.652	73.97
810.827	72.52
811.001	72.02
811.175	82.33
811.349	80.52
811.524	87.89
811.698	90.2
811.872	88.58
812.046	80.8
812.22	84.26
812.394	79.58
812.568	84.45
812.742	83.31
812.916	77.27
813.09	81.04
813.264	84.22
813.438	75.83
813.612	85.59
813.786	94.14
813.96	94.51
814.134	94.79
814.308	90.74
814.482	88.54
814.656	90.32
814.83	71.78
815.003	70.6
815.177	79.78
815.351	75.37
815.525	72.25
815.698	91.61
815.872	91.2
816.046	92.09
816.219	103.09
816.393	94.47
816.567	89.94
816.74	91.19
816.914	90.6
817.088	80.79
817.261	69.38
817.435	71.21
817.608	78.31
817.782	68.16
817.955	72.32
818.129	90.88
818.302	85.21
818.475	67.23
818.649	77.16
818.822	68.21
818.996	76.43
819.169	74.61
819.342	78.39
819.516	72.19
819.689	79.46
819.862	65.34
820.035	59.45
820.209	61.14
820.382	61.3
820.555	46.82
820.728	57.67
820.901	70.99
821.075	74.08
821.248	69.16
821.421	80.72
821.594	76.51
821.767	73.96
821.94	67.69
822.113	79.52
822.286	89.63
822.459	91.82
822.632	79.54
822.805	88.53
822.978	77.98
823.151	69.19
823.324	66.93
823.496	88.05
823.669	87.63
823.842	89.47
824.015	73.76
824.188	56.93
824.361	35.1
824.533	24.78
824.706	17.32
824.879	41.08
825.051	59.88
825.224	61.65
825.397	64.76
825.569	66.2
825.742	68.33
825.915	65.33
826.087	81.92
826.26	89.64
826.432	91.65
826.605	89.8
826.777	90.17
826.95	80.72
827.122	76.91
827.295	92.59
827.467	85.45
827.64	91.61
827.812	83.63
827.984	94.68
828.157	81.31
828.329	82.53
828.501	74.21
828.674	88.85
828.846	84.22
829.018	76.29
829.19	67.32
829.363	61.34
829.535	64.18
829.707	56.99
829.879	67.4
830.051	70.17
830.223	75.25
830.395	76.5
830.568	81.25
830.74	76.85
830.912	86.85
831.084	90.66
831.256	83.7
831.428	73.74
831.6	83.66
831.772	75.45
831.943	62.15
832.115	51.62
832.287	54.68
832.459	31.88
832.631	47.44
832.803	58.4
832.975	71.07
833.146	73.85
833.318	85.25
833.49	69
833.662	66.97
833.833	58.26
834.005	66.99
834.177	57.47
834.348	62.66
834.52	61.69
834.692	60.88
834.863	51.17
835.035	49.03
835.206	49.11
835.378	56.84
835.549	65.09
835.721	67.54
835.892	117.15
836.064	99.26
836.235	79.74
836.407	95.3
836.578	99.04
836.749	82.86
836.921	94.1
837.092	101.46
837.264	78.6
837.435	68.57
837.606	71.82
837.777	59.48
837.949	62.08
838.12	75.98
838.291	79.79
838.462	94.24
838.633	89.05
838.805	88.34
838.976	54.03
839.147	50.71
839.318	40.86
839.489	49.28
839.66	51.23
839.831	67.7
840.002	82.41
840.173	72.4
840.344	91.42
840.515	93.15
840.686	96.2
840.857	84.85
841.028	109.01
841.199	96.06
841.369	91.34
841.54	84.16
841.711	71.5
841.882	62.27
842.053	40.09
842.223	-14.79
842.394	-0.15
842.565	41.43
842.736	72.82
842.906	90.43
843.077	132.23
843.248	201.49
843.418	137.56
843.589	134.45
843.759	67.69
843.93	30.61
844.101	40.25
844.271	56.71
844.442	54.59
844.612	140.55
844.783	249.75
844.953	527.25
845.123	-29225
845.294	61.05
845.464	68.34
845.635	63.71
845.805	33.56
845.975	52.55
846.146	70.23
846.316	64.08
846.486	66.47
846.656	80.33
846.827	80.82
846.997	74.72
847.167	67.09
847.337	80.17
847.507	71.63
847.677	51.93
847.848	55.25
848.018	52.8
848.188	35.05
848.358	45.78
848.528	31.18
848.698	68.02
848.868	98.42
849.038	104.23
849.208	139.78
849.378	142.81
849.548	171.64
849.718	126.13
849.887	162.94
850.057	133.51
850.227	108.94
850.397	100.16
850.567	89.43
850.737	83.66
850.906	78.89
851.076	80.92
851.246	74.98
851.415	79.37
851.585	71.42
851.755	67.42
851.924	85.08
852.094	83.11
852.264	78.52
852.433	43.3
852.603	55.47
852.772	21.11
852.942	9.7
853.111	-10.73
853.281	-8.95
853.45	-4.68
853.62	29.06
853.789	30.22
853.959	44.85
854.128	68.05
854.297	77.75
854.467	86.23
854.636	106.16
854.805	114.97
854.975	127.21
855.144	40.56
855.313	55.67
855.482	67.39
855.652	72.36
855.821	53.69
855.99	70.58
856.159	58.39
856.328	27.21
856.497	4.33
856.667	59.42
856.836	84.62
857.005	79.95
857.174	115.88
857.343	119.46
857.512	140.61
857.681	123.16
857.85	332.99
858.019	179.18
858.188	136.86
858.356	70.86
858.525	44.32
858.694	59.69
858.863	28.28
859.032	8.94
859.201	-124.07
859.369	-86.6
859.538	-81.78
859.707	-89.14
859.876	7.62
860.044	61.06
860.213	93.39
860.382	105.55
860.55	153.49
860.719	117.35
860.888	61.93
861.056	25.82
861.225	28.96
861.393	33.74
861.562	43
861.73	54.18
861.899	59.35
862.067	60.54
862.236	35.93
862.404	58.09
862.572	102.68
862.741	132.27
862.909	95.91
863.078	52.21
863.246	-67.79
863.414	-40.46
863.582	-62.27
863.751	-120.36
863.919	-133.38
864.087	233.06
864.255	-281.16
864.424	208.22
864.592	125.05
864.76	79.89
864.928	42.31
865.096	46.82
865.264	52.71
865.432	29.42
865.6	53.28
865.768	33.39
865.936	40.46
866.104	46.04
866.272	58.98
866.44	27.23
866.608	37.36
866.776	58.14
866.944	32.24
867.112	46.24
867.28	58.6
867.448	99.78
867.615	21.36
867.783	37.24
867.951	23.34
868.119	25.87
868.286	30.93
868.454	40.07
868.622	-2.54
868.789	-50.3
868.957	-0.82
869.125	18.13
869.292	19.01
869.46	11.8
869.627	93.89
869.795	-2.57
869.963	305.4
870.13	543.85
870.298	119.15
870.465	91.64
870.632	44.7
870.8	55.02
870.967	65.52
871.135	21.33
871.302	27.26
871.469	63.22
871.637	67.93
871.804	62.79
871.971	53.46
872.139	50.58
872.306	50.71
872.473	35.08
872.64	21.13
872.807	10.81
872.975	7.04
873.142	-14.03
873.309	-19.15
873.476	88.68
873.643	106.58
873.81	79.47
873.977	40.87
874.144	-8.96
874.311	-55.41
874.478	-53.81
874.645	-11.02
874.812	21.3
874.979	21.24
875.146	35.32
875.313	38.69
875.48	30.29
875.647	26.68
875.813	62.96
875.98	89.88
876.147	40.78
876.314	17.97
876.481	35.95
876.647	25.71
876.814	-13.93
876.981	93.15
877.147	12812.5
877.314	9.81
877.481	171.59
877.647	-169.32
877.814	17.14
877.98	28.76
878.147	44.11
878.314	107.95
878.48	122.92
878.647	98.79
878.813	56.78
878.979	60.53
879.146	56.34
879.312	14.73
879.479	56.64
879.645	91.26
879.811	136.94
879.978	42.96
880.144	55.29
880.31	24.72
880.477	15.66
880.643	0.82
880.809	0.81
880.975	-1.87
881.142	-26.89
881.308	-1734.09
881.474	218.07
881.64	50.91
881.806	215.47
881.972	345.68
882.138	738.01
882.304	-193.55
882.47	-6.94
882.636	84.03
882.802	22.69
882.968	305.99
883.134	109.69
883.3	103.93
883.466	124.68
883.632	117.83
883.798	90.18
883.964	116.74
884.129	146.96
884.295	98.35
884.461	192.44
884.627	122.12
884.793	153.02
884.958	95.6
885.124	109.73
885.29	1.2
885.455	-0.76
885.621	-79.57
885.787	613.61
885.952	-287.65
886.118	61.21
886.283	79.7
886.449	114.67
886.614	78.29
886.78	50.29
886.945	38.73
887.111	9.53
887.276	28.07
887.442	41.63
887.607	54.88
887.773	68.18
887.938	76.64
888.103	166.36
888.269	150.28
888.434	140.44
888.599	87.63
888.764	99.28
888.93	61.21
889.095	43.75
889.26	92.57
889.425	133.87
889.59	135.01
889.756	101.05
889.921	109.84
890.086	82.52
890.251	72.24
890.416	50.04
890.581	71.24
890.746	64.24
890.911	146.59
891.076	102.32
891.241	88.68
891.406	129.22
891.571	136.18
891.736	101.41
891.901	98.57
892.065	98.97
892.23	-4.24
892.395	18.02
892.56	10.16
892.725	20.49
892.889	41.22
893.054	73.3
893.219	53.21
893.384	72.37
893.548	271.84
893.713	303.23
893.878	187.71
