Data from Ofra_PS_Phys_2CX10_Reflection_2.txt Node
Date: Tue Jul 20 14:48:10 EDT 2021
User: USUARIO
Spectrometer: FLMT01687
Trigger mode: 0
Integration Time (sec): 1.200000E0
Scans to average: 2
Electric dark correction enabled: true
Nonlinearity correction enabled: false
Boxcar width: 2
XAxis mode: Wavelengths
Number of Pixels in Spectrum: 3648
>>>>>Begin Spectral Data<<<<<
179.494	76.88
179.716	287.88
179.937	88.21
180.158	90.01
180.38	130.38
180.601	191.16
180.823	796.71
181.044	494.56
181.265	-224.62
181.486	118.01
181.708	-479.4
181.929	-177.26
182.15	357.79
182.372	-913.82
182.593	224.35
182.814	-5493.33
183.035	12.65
183.257	50.13
183.478	10.17
183.699	54.18
183.92	64.04
184.141	48.37
184.363	39.75
184.584	30.46
184.805	23.05
185.026	32.05
185.247	39.43
185.468	46.08
185.689	44.72
185.91	43.76
186.132	57.17
186.353	52.2
186.574	44.34
186.795	48.87
187.016	49.51
187.237	53.42
187.458	50.71
187.679	67.31
187.9	77.1
188.121	59.42
188.342	58.94
188.563	70.04
188.784	50.05
189.005	47.68
189.226	62.16
189.447	34.51
189.667	19.17
189.888	22.94
190.109	18.24
190.33	28.03
190.551	36.98
190.772	44.16
190.993	46.84
191.214	47.53
191.434	43.78
191.655	54.3
191.876	51.17
192.097	36.06
192.318	44.34
192.538	48.18
192.759	33.7
192.98	46.34
193.201	50.04
193.421	29.33
193.642	41.71
193.863	48.82
194.083	50.27
194.304	56.82
194.525	62.51
194.745	52.01
194.966	41.51
195.187	21.78
195.407	-3.19
195.628	18.19
195.848	24.95
196.069	32.71
196.29	32.47
196.51	54.87
196.731	37.87
196.951	18.14
197.172	24.51
197.392	38.34
197.613	22.1
197.833	29.06
198.054	44.03
198.274	47.4
198.495	41.52
198.715	34.01
198.936	64.57
199.156	80.25
199.377	-19.73
199.597	-42.85
199.817	18.05
200.038	-9.56
200.258	-4.35
200.479	50.92
200.699	61.28
200.919	79.52
201.14	84.67
201.36	75.57
201.58	74
201.801	69.91
202.021	49.29
202.241	44.64
202.461	45.53
202.682	43.95
202.902	38.25
203.122	37.58
203.342	34.4
203.563	29.86
203.783	26.26
204.003	23.9
204.223	39.35
204.443	50.6
204.663	56.11
204.884	78.93
205.104	80.48
205.324	70.93
205.544	53.68
205.764	55.86
205.984	39.36
206.204	27.02
206.424	23.81
206.644	17.42
206.864	7.32
207.084	11.52
207.304	47.73
207.525	47.19
207.745	55.85
207.964	56.61
208.184	62.18
208.404	40.11
208.624	40.6
208.844	29.88
209.064	30.69
209.284	26.38
209.504	27.47
209.724	17.13
209.944	31.7
210.164	40.6
210.384	46.5
210.604	62.51
210.823	67.61
211.043	61.47
211.263	47.56
211.483	30.14
211.703	29.45
211.922	32.26
212.142	43.1
212.362	30.53
212.582	31.54
212.801	48.09
213.021	51.69
213.241	50.84
213.461	47.95
213.68	59.43
213.9	60.75
214.12	52.03
214.339	45.84
214.559	45.37
214.779	53.53
214.998	41.12
215.218	44.2
215.438	47.85
215.657	58.34
215.877	48.19
216.096	35.51
216.316	33.6
216.535	37.17
216.755	51.78
216.974	47.64
217.194	56.57
217.413	51.71
217.633	46.71
217.852	44.23
218.072	37.8
218.291	30.06
218.511	35.23
218.73	14.69
218.95	24.11
219.169	17.93
219.389	25.56
219.608	20.55
219.827	49.46
220.047	36.39
220.266	60.97
220.485	54.69
220.705	61.56
220.924	49.79
221.143	58.16
221.363	50.73
221.582	56.91
221.801	44.72
222.021	48.5
222.24	32.31
222.459	24.02
222.678	20.67
222.897	37.88
223.117	40.5
223.336	42.4
223.555	41.25
223.774	45.17
223.993	31.63
224.213	33.93
224.432	53.46
224.651	72.74
224.87	60.68
225.089	62.12
225.308	58.67
225.527	38.67
225.746	30.93
225.965	35
226.184	42.67
226.404	40.81
226.623	53.05
226.842	49.81
227.061	52.73
227.28	63.74
227.499	78.12
227.718	79.04
227.936	72.1
228.155	77.57
228.374	61.65
228.593	48.44
228.812	48.12
229.031	43.82
229.25	29.08
229.469	31.13
229.688	26.91
229.907	25.92
230.125	29.38
230.344	26.87
230.563	39.19
230.782	39.89
231.001	32.64
231.22	47.8
231.438	70.15
231.657	58.02
231.876	84.48
232.095	85.98
232.313	79.12
232.532	79.18
232.751	74.71
232.969	74.71
233.188	69.18
233.407	49.25
233.625	9.61
233.844	11.84
234.063	4.51
234.281	5.4
234.5	16.32
234.719	30.62
234.937	32.62
235.156	40.35
235.374	48.58
235.593	49.11
235.811	51.83
236.03	57.74
236.249	48.07
236.467	48.77
236.686	38.16
236.904	37.33
237.123	32.22
237.341	32.79
237.559	31.21
237.778	50.09
237.996	60.33
238.215	71.38
238.433	62.1
238.652	71.88
238.87	66.92
239.088	55.94
239.307	56.92
239.525	74.08
239.743	56.86
239.962	32.3
240.18	39.34
240.398	24.97
240.617	23.2
240.835	32.22
241.053	45.3
241.271	44.43
241.49	56.3
241.708	61.56
241.926	60.82
242.144	54.75
242.363	57.94
242.581	49.87
242.799	52.15
243.017	35.6
243.235	45.22
243.453	42.06
243.672	42.63
243.89	32.78
244.108	42.72
244.326	48.7
244.544	43.67
244.762	53.56
244.98	44.44
245.198	45.61
245.416	41.5
245.634	55.77
245.852	45.97
246.07	53.32
246.288	48.15
246.506	46.78
246.724	31.06
246.942	28.51
247.16	45.1
247.378	51.48
247.596	43.83
247.814	48.65
248.032	52.32
248.25	42.41
248.468	37.63
248.685	47.51
248.903	46.09
249.121	60.29
249.339	50.03
249.557	42.81
249.775	40.66
249.992	36.21
250.21	30.51
250.428	45.06
250.646	47.45
250.863	49.4
251.081	49.77
251.299	55.99
251.517	52.06
251.734	52.25
251.952	31.39
252.17	40.42
252.387	25.53
252.605	28.72
252.823	20.32
253.04	33.36
253.258	36.55
253.475	41.88
253.693	43.47
253.911	49.72
254.128	48.35
254.346	47.62
254.563	30.88
254.781	33.56
254.998	18.88
255.216	32.02
255.433	24.47
255.651	38.63
255.868	49.01
256.086	47.68
256.303	48.29
256.521	49.01
256.738	49.92
256.956	22.44
257.173	22.36
257.39	25.24
257.608	16.17
257.825	12.15
258.043	27.56
258.26	23.45
258.477	15.18
258.695	18.9
258.912	33.45
259.129	29.42
259.346	33.72
259.564	26.45
259.781	14.33
259.998	27.37
260.216	25.83
260.433	41.48
260.65	55.84
260.867	72.88
261.084	46.18
261.302	47.36
261.519	30.08
261.736	13.98
261.953	7.34
262.17	26.91
262.387	32.53
262.604	44.08
262.822	60.84
263.039	53.56
263.256	49.37
263.473	39.62
263.69	27.38
263.907	14.41
264.124	19.95
264.341	25.76
264.558	39
264.775	49.4
264.992	42.48
265.209	63.17
265.426	85.34
265.643	78
265.86	70.61
266.077	80.38
266.294	63.88
266.51	44.2
266.727	49.24
266.944	48.3
267.161	45.92
267.378	56.79
267.595	53.43
267.812	32.39
268.028	28.19
268.245	24.65
268.462	16.37
268.679	19.57
268.896	38.88
269.112	50.35
269.329	58.92
269.546	60.03
269.763	63.08
269.979	63.27
270.196	69.01
270.413	65.44
270.629	60.2
270.846	48.56
271.063	34.58
271.279	34.7
271.496	16.68
271.712	31.42
271.929	34.73
272.146	43.07
272.362	36.23
272.579	43.46
272.795	38.04
273.012	32.38
273.228	29.04
273.445	33.24
273.661	38.52
273.878	27.7
274.094	21.83
274.311	13.62
274.527	11.76
274.744	-5.92
274.96	12.33
275.177	16.85
275.393	7.3
275.609	17.51
275.826	39.02
276.042	33.06
276.259	43.42
276.475	59.37
276.691	52.18
276.908	36.95
277.124	55.3
277.34	29.31
277.557	24.97
277.773	20.01
277.989	31.82
278.205	22.92
278.422	40.22
278.638	37.07
278.854	50.98
279.07	40.97
279.286	39.38
279.503	27.24
279.719	21.36
279.935	18.86
280.151	20.61
280.367	25.68
280.583	32.31
280.799	43.25
281.016	53.84
281.232	51.64
281.448	54.78
281.664	54.08
281.88	57.63
282.096	47.2
282.312	58.51
282.528	57.2
282.744	57.67
282.96	51.75
283.176	51.87
283.392	38.72
283.608	30.71
283.824	31.6
284.04	25.54
284.256	23.91
284.471	23.65
284.687	15.3
284.903	20.41
285.119	36.4
285.335	45.67
285.551	61.1
285.767	65.3
285.982	63.32
286.198	57.51
286.414	52.02
286.63	44.4
286.846	44.17
287.061	42.89
287.277	34.1
287.493	45.32
287.709	52.96
287.924	59.18
288.14	48.16
288.356	60.68
288.571	59.06
288.787	52.75
289.003	50.9
289.218	52.62
289.434	38.24
289.65	25.3
289.865	14.29
290.081	25.98
290.296	17.96
290.512	13.56
290.727	8.61
290.943	18.61
291.159	11.11
291.374	23.74
291.59	26.32
291.805	29.69
292.021	21.24
292.236	18.29
292.451	21.76
292.667	34.76
292.882	40.37
293.098	55.6
293.313	61.97
293.529	49.55
293.744	34.09
293.959	34.19
294.175	30.13
294.39	18.42
294.605	32.21
294.821	37.1
295.036	43.89
295.251	51.45
295.467	50.13
295.682	49.65
295.897	56.41
296.112	57.09
296.328	40.95
296.543	45.69
296.758	39.31
296.973	37.2
297.188	39.74
297.404	49.3
297.619	62.06
297.834	67.49
298.049	68.8
298.264	63.89
298.479	80.28
298.694	54.93
298.909	56.47
299.125	68.11
299.34	50.5
299.555	34.11
299.77	49.03
299.985	24.54
300.2	11.26
300.415	16.32
300.63	19.39
300.845	19.46
301.06	40.58
301.275	37.52
301.49	38.61
301.704	33.42
301.919	28.35
302.134	18.73
302.349	19.29
302.564	18.99
302.779	8.2
302.994	1.07
303.209	19.4
303.423	18.01
303.638	18.45
303.853	36.01
304.068	41.05
304.283	20.44
304.497	38.11
304.712	39.79
304.927	52.76
305.142	49.5
305.356	44.11
305.571	33.32
305.786	27.81
306	12.65
306.215	4.42
306.43	24.55
306.644	27.15
306.859	34.59
307.074	33.64
307.288	32.68
307.503	33.4
307.717	33.16
307.932	27.9
308.147	29.28
308.361	39.67
308.576	37.82
308.79	37.37
309.005	44.84
309.219	43.76
309.434	37.73
309.648	41.47
309.863	33.56
310.077	23.68
310.292	22.97
310.506	23.4
310.72	18.08
310.935	26
311.149	23.44
311.364	46.75
311.578	57.28
311.792	54.96
312.007	55.38
312.221	60.94
312.435	67.19
312.649	57.3
312.864	75.5
313.078	69.57
313.292	71.97
313.507	60.46
313.721	55.1
313.935	37.13
314.149	31.37
314.363	23.96
314.578	16.9
314.792	14.23
315.006	22.65
315.22	24.11
315.434	38.02
315.648	51.01
315.862	61.36
316.077	46.08
316.291	42.16
316.505	31.34
316.719	15.89
316.933	19.24
317.147	23.97
317.361	36.27
317.575	38.62
317.789	33.53
318.003	14.61
318.217	4.79
318.431	-3.3
318.645	5.88
318.859	-3.12
319.073	13.04
319.287	5.76
319.5	7.6
319.714	18.29
319.928	33.28
320.142	45.21
320.356	55.64
320.57	60.11
320.784	50.59
320.997	50.42
321.211	32.89
321.425	31.68
321.639	8.66
321.853	25.53
322.066	17.87
322.28	20.78
322.494	22.8
322.707	51.9
322.921	28.35
323.135	25.66
323.349	25.93
323.562	30.16
323.776	17.75
323.989	28.49
324.203	23.42
324.417	31.83
324.63	27.29
324.844	33.16
325.057	38.86
325.271	41.81
325.485	34.4
325.698	26.31
325.912	33.36
326.125	23.55
326.339	25.04
326.552	29.78
326.766	28.34
326.979	33.68
327.193	37.8
327.406	39.95
327.619	34.81
327.833	54.57
328.046	42.98
328.26	41.98
328.473	39.88
328.686	39.38
328.9	37.4
329.113	40.64
329.326	30.36
329.54	35.17
329.753	44.99
329.966	40.55
330.179	40.37
330.393	38.85
330.606	34.82
330.819	22.8
331.032	23.77
331.246	21.27
331.459	43.02
331.672	39.28
331.885	45.4
332.098	42.21
332.311	43.96
332.525	25.77
332.738	37.61
332.951	47.39
333.164	47.74
333.377	41.65
333.59	51.2
333.803	48.93
334.016	40.13
334.229	43.51
334.442	56.56
334.655	43.4
334.868	55.79
335.081	51.41
335.294	58.49
335.507	50.3
335.72	61.99
335.933	43.72
336.146	53.89
336.359	50.58
336.572	56.19
336.785	45.73
336.997	57.59
337.21	43.85
337.423	25.12
337.636	12.31
337.849	24.24
338.062	9.87
338.274	16.43
338.487	28.98
338.7	21.79
338.913	8.36
339.125	9.67
339.338	-2.35
339.551	-8.69
339.763	0.36
339.976	14.48
340.189	20.41
340.402	29.5
340.614	17.98
340.827	21.25
341.039	14.65
341.252	26.19
341.465	21.09
341.677	28.94
341.89	22.44
342.102	17.99
342.315	18
342.527	32.43
342.74	33.07
342.952	46.75
343.165	47.76
343.377	34.91
343.59	21.56
343.802	36.3
344.015	31.23
344.227	40.51
344.44	50.37
344.652	61.16
344.864	42.43
345.077	40.12
345.289	50.85
345.502	55.21
345.714	45
345.926	53.51
346.139	45.89
346.351	27.69
346.563	32.26
346.775	36.48
346.988	34.88
347.2	30.35
347.412	33.83
347.624	42.06
347.837	40.07
348.049	41.05
348.261	43.7
348.473	47.17
348.685	34.59
348.897	31.99
349.11	27.17
349.322	27.87
349.534	31.96
349.746	32.13
349.958	39.79
350.17	47.3
350.382	45.61
350.594	32.16
350.806	33.13
351.018	30.05
351.23	25.7
351.442	37.38
351.654	40.5
351.866	43.94
352.078	52.53
352.29	42.41
352.502	32.52
352.714	29.82
352.926	30.58
353.138	30.77
353.35	33.09
353.561	37.73
353.773	47.05
353.985	41.76
354.197	31.45
354.409	34.76
354.621	29.42
354.832	15.17
355.044	16.96
355.256	28.42
355.468	23.22
355.679	23.73
355.891	42.94
356.103	47.76
356.314	36.15
356.526	36.7
356.738	26.56
356.949	22.04
357.161	27.47
357.373	39.69
357.584	38.82
357.796	49.92
358.008	43.58
358.219	43.32
358.431	33.12
358.642	49.64
358.854	53.25
359.065	59.95
359.277	48.7
359.488	51.39
359.7	40.12
359.911	32.53
360.123	34.45
360.334	41.76
360.546	51.81
360.757	41.48
360.969	45.04
361.18	48.04
361.391	46.24
361.603	38.48
361.814	43.93
362.025	37.38
362.237	29.96
362.448	22.4
362.659	16.45
362.871	10.4
363.082	6.32
363.293	8.53
363.504	6.72
363.716	17.44
363.927	22.31
364.138	27.51
364.349	25.45
364.56	20.58
364.772	14.35
364.983	18.92
365.194	23.03
365.405	21.71
365.616	30.11
365.827	30.05
366.038	27.55
366.25	26.33
366.461	31.9
366.672	31.88
366.883	38.33
367.094	42.18
367.305	38.97
367.516	39.39
367.727	47.39
367.938	45.71
368.149	47.37
368.36	47.42
368.571	35.17
368.781	28.1
368.992	20.5
369.203	9.81
369.414	-0.63
369.625	5.43
369.836	9.81
370.047	10.34
370.258	22.91
370.468	31.99
370.679	29.86
370.89	26.65
371.101	27.85
371.312	15.13
371.522	13.69
371.733	19.1
371.944	20.41
372.155	29.19
372.365	39.52
372.576	30.17
372.787	31.85
372.997	32.77
373.208	17.4
373.419	17.76
373.629	18.98
373.84	24.05
374.05	25.26
374.261	37.79
374.472	29.75
374.682	34.67
374.893	33.26
375.103	39.2
375.314	35.37
375.524	36.67
375.735	29.86
375.945	32.25
376.156	28.61
376.366	26.01
376.577	31.17
376.787	36.16
376.997	33.83
377.208	25.68
377.418	19.84
377.629	24.45
377.839	29.77
378.049	28.62
378.26	32.31
378.47	44.32
378.68	46.21
378.89	42.63
379.101	35
379.311	33.78
379.521	29.14
379.732	23.94
379.942	25.9
380.152	25.8
380.362	20.27
380.572	24.41
380.783	36.81
380.993	40.75
381.203	37.5
381.413	47.17
381.623	43.61
381.833	36.65
382.043	30.16
382.253	22.41
382.463	20.12
382.674	17.02
382.884	17.58
383.094	20.55
383.304	33.64
383.514	36.71
383.724	45.23
383.934	42.78
384.144	41.31
384.353	35.16
384.563	29.88
384.773	26.64
384.983	32.06
385.193	31.89
385.403	30.6
385.613	30.78
385.823	26.24
386.033	15.72
386.242	17.01
386.452	22.61
386.662	16.98
386.872	19.26
387.082	20.29
387.291	18.79
387.501	17.66
387.711	18.13
387.921	20.84
388.13	22.61
388.34	24.22
388.55	22.39
388.759	20.59
388.969	18.4
389.179	17.81
389.388	17.53
389.598	16.02
389.807	18.84
390.017	19.92
390.227	20.32
390.436	17.83
390.646	16.11
390.855	15.57
391.065	12.58
391.274	14.03
391.484	16.48
391.693	18.45
391.903	19.82
392.112	20.63
392.322	18.59
392.531	15.83
392.74	16.5
392.95	14.23
393.159	13.34
393.369	14.28
393.578	14.68
393.787	12.81
393.997	12.73
394.206	14.13
394.415	13.57
394.625	13.04
394.834	13.59
395.043	14.1
395.252	12.96
395.462	12.61
395.671	13.19
395.88	12.57
396.089	11.75
396.298	11
396.508	11.26
396.717	10.59
396.926	11.07
397.135	10.51
397.344	10.8
397.553	10.88
397.762	11.17
397.971	10.54
398.181	10.75
398.39	10.26
398.599	9.36
398.808	9
399.017	9.34
399.226	10.22
399.435	10.45
399.644	10.42
399.853	10.61
400.062	10.35
400.27	9.7
400.479	9.36
400.688	9.77
400.897	9.44
401.106	9.48
401.315	9.26
401.524	9.42
401.733	9.25
401.941	9.67
402.15	9.69
402.359	9.95
402.568	10.04
402.777	10.13
402.985	9.96
403.194	9.81
403.403	9.67
403.612	9.53
403.82	9.33
404.029	9.01
404.238	9.14
404.446	9.17
404.655	9.18
404.864	9.12
405.072	9.16
405.281	9.11
405.489	9.11
405.698	9.03
405.906	8.97
406.115	9.13
406.324	8.88
406.532	8.81
406.741	8.78
406.949	8.91
407.158	8.77
407.366	8.7
407.574	8.63
407.783	8.64
407.991	8.6
408.2	8.68
408.408	8.75
408.617	8.71
408.825	8.52
409.033	8.5
409.242	8.35
409.45	8.5
409.658	8.3
409.867	8.38
410.075	8.27
410.283	8.2
410.491	7.99
410.7	8.06
410.908	8.11
411.116	8.09
411.324	8.11
411.533	8.04
411.741	8.09
411.949	8.03
412.157	7.9
412.365	7.84
412.573	7.98
412.781	7.87
412.99	7.82
413.198	7.94
413.406	7.91
413.614	7.78
413.822	7.82
414.03	7.89
414.238	7.68
414.446	7.65
414.654	7.57
414.862	7.47
415.07	7.41
415.278	7.45
415.486	7.44
415.694	7.49
415.902	7.59
416.109	7.5
416.317	7.55
416.525	7.46
416.733	7.45
416.941	7.33
417.149	7.26
417.357	7.25
417.564	7.2
417.772	7.16
417.98	7.2
418.188	7.19
418.395	7.2
418.603	7.2
418.811	7.19
419.019	7.16
419.226	7.19
419.434	7.17
419.642	7.24
419.849	7.14
420.057	7.09
420.265	7.16
420.472	7.13
420.68	7.27
420.887	7.11
421.095	7.14
421.302	6.94
421.51	6.75
421.717	6.4
421.925	6.55
422.132	6.46
422.34	6.52
422.547	6.66
422.755	6.71
422.962	6.69
423.17	6.79
423.377	6.82
423.585	6.83
423.792	6.86
423.999	6.77
424.207	6.67
424.414	6.55
424.621	6.52
424.829	6.5
425.036	6.56
425.243	6.61
425.451	6.73
425.658	6.73
425.865	6.86
426.072	6.78
426.28	6.75
426.487	6.68
426.694	6.64
426.901	6.46
427.108	6.49
427.315	6.47
427.523	6.44
427.73	6.46
427.937	6.66
428.144	6.83
428.351	6.95
428.558	7.23
428.765	7.25
428.972	7.19
429.179	7.03
429.386	7.07
429.593	6.94
429.8	6.93
430.007	6.98
430.214	7.21
430.421	7.26
430.628	7.05
430.835	7.01
431.042	7.05
431.249	6.99
431.456	6.85
431.662	7.02
431.869	7.2
432.076	7.28
432.283	7.18
432.49	7.32
432.697	7.34
432.903	7.25
433.11	7.17
433.317	7.3
433.524	7.22
433.73	7.24
433.937	7.38
434.144	7.47
434.35	7.51
434.557	7.5
434.764	7.56
434.97	7.47
435.177	7.44
435.384	7.46
435.59	7.54
435.797	7.66
436.003	7.74
436.21	7.73
436.416	7.79
436.623	7.89
436.829	7.9
437.036	8.02
437.242	8.08
437.449	7.97
437.655	7.94
437.862	7.93
438.068	7.86
438.275	7.93
438.481	8.08
438.687	8.07
438.894	8.22
439.1	8.37
439.307	8.47
439.513	8.5
439.719	8.58
439.926	8.46
440.132	8.38
440.338	8.33
440.544	8.39
440.751	8.45
440.957	8.62
441.163	8.68
441.369	8.78
441.575	8.71
441.782	8.76
441.988	8.72
442.194	8.78
442.4	8.79
442.606	8.92
442.812	8.91
443.018	9
443.224	9.05
443.431	9.11
443.637	9.03
443.843	9.06
444.049	8.99
444.255	9
444.461	9.06
444.667	9.14
444.873	9.2
445.079	9.18
445.284	9.18
445.49	9.23
445.696	9.23
445.902	9.24
446.108	9.31
446.314	9.37
446.52	9.29
446.726	9.36
446.931	9.38
447.137	9.49
447.343	9.52
447.549	9.5
447.755	9.51
447.96	9.58
448.166	9.52
448.372	9.49
448.578	9.57
448.783	9.56
448.989	9.59
449.195	9.63
449.4	9.63
449.606	9.62
449.812	9.66
450.017	9.71
450.223	9.66
450.428	9.77
450.634	9.82
450.84	9.81
451.045	9.77
451.251	9.77
451.456	9.75
451.662	9.71
451.867	9.77
452.073	9.74
452.278	9.82
452.483	9.91
452.689	9.96
452.894	9.93
453.1	9.95
453.305	9.93
453.51	9.87
453.716	9.91
453.921	9.92
454.127	9.95
454.332	10.01
454.537	9.9
454.742	9.76
454.948	9.78
455.153	9.82
455.358	9.77
455.563	9.75
455.769	9.97
455.974	9.93
456.179	9.85
456.384	9.87
456.589	10.03
456.795	9.84
457	9.96
457.205	10.04
457.41	10.06
457.615	9.97
457.82	10.03
458.025	9.96
458.23	9.95
458.435	9.92
458.64	9.96
458.845	9.98
459.05	9.95
459.255	10.04
459.46	10.05
459.665	10.03
459.87	10.12
460.075	10.15
460.28	10.05
460.485	10.09
460.69	10.25
460.895	10.21
461.099	10.29
461.304	10.42
461.509	10.49
461.714	10.47
461.919	10.48
462.123	10.45
462.328	10.4
462.533	10.42
462.738	10.39
462.942	10.42
463.147	10.48
463.352	10.43
463.556	10.44
463.761	10.4
463.966	10.39
464.17	10.46
464.375	10.58
464.58	10.68
464.784	10.71
464.989	10.81
465.193	10.76
465.398	10.81
465.602	10.71
465.807	10.72
466.011	10.74
466.216	10.72
466.42	10.66
466.625	10.77
466.829	10.86
467.034	10.92
467.238	11.06
467.443	11.16
467.647	11.13
467.851	11.2
468.056	11.11
468.26	11.1
468.464	11.19
468.669	11.3
468.873	11.35
469.077	11.49
469.282	11.59
469.486	11.65
469.69	11.68
469.894	11.73
470.099	11.75
470.303	11.78
470.507	11.71
470.711	11.81
470.915	11.82
471.119	11.88
471.324	11.89
471.528	12.02
471.732	12.09
471.936	12.1
472.14	12.18
472.344	12.17
472.548	12.2
472.752	12.18
472.956	12.26
473.16	12.25
473.364	12.31
473.568	12.31
473.772	12.39
473.976	12.33
474.18	12.39
474.384	12.52
474.588	12.59
474.792	12.52
474.995	12.59
475.199	12.63
475.403	12.66
475.607	12.69
475.811	12.74
476.015	12.84
476.218	12.88
476.422	12.91
476.626	12.89
476.83	12.94
477.033	12.93
477.237	12.96
477.441	12.92
477.644	13.06
477.848	13.01
478.052	13.09
478.255	13.08
478.459	13.11
478.663	13.05
478.866	13.12
479.07	13.2
479.273	13.22
479.477	13.3
479.681	13.42
479.884	13.45
480.088	13.44
480.291	13.54
480.495	13.52
480.698	13.53
480.901	13.66
481.105	13.66
481.308	13.67
481.512	13.69
481.715	13.71
481.919	13.73
482.122	13.77
482.325	13.76
482.529	13.91
482.732	13.92
482.935	13.91
483.138	13.86
483.342	13.88
483.545	13.83
483.748	13.89
483.952	13.94
484.155	14.01
484.358	14.07
484.561	14.09
484.764	14.03
484.967	14.02
485.171	14.12
485.374	14.04
485.577	14.09
485.78	14.12
485.983	14.18
486.186	14.09
486.389	14.26
486.592	14.26
486.795	14.28
486.998	14.25
487.201	14.36
487.404	14.31
487.607	14.3
487.81	14.32
488.013	14.32
488.216	14.26
488.419	14.26
488.622	14.27
488.825	14.21
489.028	14.18
489.231	14.28
489.433	14.29
489.636	14.33
489.839	14.38
490.042	14.43
490.245	14.35
490.447	14.37
490.65	14.34
490.853	14.42
491.056	14.44
491.258	14.45
491.461	14.51
491.664	14.58
491.866	14.62
492.069	14.67
492.272	14.7
492.474	14.67
492.677	14.74
492.879	14.75
493.082	14.8
493.285	14.83
493.487	14.89
493.69	14.82
493.892	14.77
494.095	14.74
494.297	14.78
494.5	14.84
494.702	14.83
494.905	14.86
495.107	14.87
495.309	14.89
495.512	14.88
495.714	15.03
495.917	15.12
496.119	15.19
496.321	15.27
496.524	15.32
496.726	15.26
496.928	15.31
497.13	15.29
497.333	15.33
497.535	15.34
497.737	15.46
497.939	15.48
498.142	15.58
498.344	15.54
498.546	15.62
498.748	15.64
498.95	15.6
499.152	15.59
499.355	15.6
499.557	15.58
499.759	15.64
499.961	15.75
500.163	15.82
500.365	15.93
500.567	15.99
500.769	15.98
500.971	15.98
501.173	15.97
501.375	16.01
501.577	16.05
501.779	16.16
501.981	16.19
502.183	16.31
502.385	16.33
502.587	16.4
502.788	16.39
502.99	16.46
503.192	16.48
503.394	16.53
503.596	16.56
503.798	16.61
503.999	16.75
504.201	16.86
504.403	16.88
504.605	16.88
504.806	16.94
505.008	16.88
505.21	16.84
505.411	16.94
505.613	17.04
505.815	17.07
506.016	17.16
506.218	17.3
506.42	17.31
506.621	17.37
506.823	17.42
507.024	17.51
507.226	17.5
507.427	17.55
507.629	17.68
507.83	17.84
508.032	17.88
508.233	17.95
508.435	17.95
508.636	17.88
508.838	17.89
509.039	17.89
509.24	18
509.442	18.16
509.643	18.25
509.845	18.19
510.046	18.33
510.247	18.29
510.448	18.3
510.65	18.38
510.851	18.51
511.052	18.53
511.254	18.52
511.455	18.57
511.656	18.58
511.857	18.6
512.058	18.62
512.26	18.72
512.461	18.8
512.662	18.81
512.863	18.82
513.064	18.92
513.265	19.01
513.466	19.07
513.667	19.09
513.868	19.21
514.069	19.23
514.27	19.26
514.471	19.26
514.672	19.34
514.873	19.36
515.074	19.41
515.275	19.48
515.476	19.52
515.677	19.61
515.878	19.67
516.079	19.76
516.28	19.75
516.481	19.76
516.682	19.78
516.882	19.79
517.083	19.71
517.284	19.75
517.485	19.84
517.686	19.86
517.886	19.89
518.087	19.92
518.288	19.98
518.488	19.93
518.689	19.94
518.89	19.97
519.091	20.04
519.291	20.08
519.492	20.14
519.692	20.18
519.893	20.22
520.094	20.26
520.294	20.25
520.495	20.29
520.695	20.35
520.896	20.38
521.096	20.42
521.297	20.41
521.497	20.48
521.698	20.43
521.898	20.47
522.099	20.46
522.299	20.57
522.499	20.54
522.7	20.64
522.9	20.68
523.101	20.7
523.301	20.69
523.501	20.69
523.702	20.66
523.902	20.71
524.102	20.71
524.302	20.68
524.503	20.77
524.703	20.84
524.903	20.83
525.103	20.92
525.304	21
525.504	21.01
525.704	21.03
525.904	21.08
526.104	21.13
526.304	21.19
526.504	21.29
526.705	21.38
526.905	21.38
527.105	21.39
527.305	21.43
527.505	21.39
527.705	21.38
527.905	21.45
528.105	21.43
528.305	21.43
528.505	21.46
528.705	21.53
528.905	21.55
529.105	21.6
529.304	21.62
529.504	21.69
529.704	21.66
529.904	21.69
530.104	21.71
530.304	21.78
530.503	21.82
530.703	21.82
530.903	21.76
531.103	21.89
531.303	21.89
531.502	21.89
531.702	21.98
531.902	22.08
532.101	22.04
532.301	22.06
532.501	22.09
532.7	22.07
532.9	22.14
533.1	22.18
533.299	22.23
533.499	22.25
533.698	22.36
533.898	22.4
534.097	22.45
534.297	22.48
534.496	22.47
534.696	22.51
534.895	22.47
535.095	22.53
535.294	22.54
535.494	22.7
535.693	22.71
535.892	22.83
536.092	22.85
536.291	22.92
536.491	22.93
536.69	23.02
536.889	22.98
537.088	23
537.288	23.08
537.487	23.1
537.686	23.11
537.886	23.19
538.085	23.17
538.284	23.16
538.483	23.21
538.682	23.27
538.882	23.27
539.081	23.39
539.28	23.46
539.479	23.53
539.678	23.56
539.877	23.7
540.076	23.71
540.275	23.74
540.474	23.72
540.673	23.73
540.872	23.69
541.071	23.76
541.27	23.81
541.469	23.86
541.668	23.96
541.867	24.03
542.066	24.18
542.265	24.23
542.464	24.31
542.663	24.29
542.862	24.33
543.06	24.3
543.259	24.35
543.458	24.46
543.657	24.56
543.856	24.71
544.054	24.74
544.253	24.83
544.452	24.92
544.651	24.99
544.849	24.97
545.048	25.05
545.247	25.17
545.445	25.19
545.644	25.23
545.843	25.4
546.041	25.5
546.24	25.54
546.438	25.59
546.637	25.8
546.836	25.84
547.034	25.94
547.233	25.97
547.431	26.03
547.63	25.97
547.828	26
548.027	25.99
548.225	26.09
548.423	26.19
548.622	26.35
548.82	26.47
549.019	26.61
549.217	26.71
549.415	26.79
549.614	26.8
549.812	26.78
550.01	26.88
550.209	26.93
550.407	27.02
550.605	27.09
550.803	27.21
551.002	27.3
551.2	27.4
551.398	27.57
551.596	27.81
551.794	27.92
551.993	28.03
552.191	28.19
552.389	28.25
552.587	28.3
552.785	28.51
552.983	28.62
553.181	28.67
553.379	28.68
553.577	28.77
553.775	28.85
553.973	28.89
554.171	29.01
554.369	29.2
554.567	29.31
554.765	29.36
554.963	29.52
555.161	29.58
555.359	29.66
555.557	29.76
555.755	29.89
555.952	30.05
556.15	30.22
556.348	30.39
556.546	30.55
556.744	30.6
556.941	30.56
557.139	30.54
557.337	30.57
557.535	30.68
557.732	30.9
557.93	31.06
558.128	31.34
558.325	31.49
558.523	31.53
558.721	31.58
558.918	31.78
559.116	31.79
559.313	31.91
559.511	32.08
559.708	32.21
559.906	32.24
560.104	32.44
560.301	32.56
560.498	32.79
560.696	32.9
560.893	33.06
561.091	33.13
561.288	33.22
561.486	33.18
561.683	33.33
561.88	33.46
562.078	33.65
562.275	33.8
562.473	33.98
562.67	34.07
562.867	34.14
563.064	34.28
563.262	34.41
563.459	34.49
563.656	34.67
563.853	34.83
564.051	34.9
564.248	35
564.445	35.25
564.642	35.3
564.839	35.37
565.036	35.6
565.234	35.8
565.431	35.75
565.628	35.9
565.825	36.08
566.022	36.14
566.219	36.21
566.416	36.43
566.613	36.63
566.81	36.66
567.007	36.79
567.204	36.82
567.401	36.86
567.598	36.75
567.795	36.84
567.991	36.9
568.188	37.09
568.385	37.15
568.582	37.39
568.779	37.49
568.976	37.56
569.172	37.66
569.369	37.65
569.566	37.61
569.763	37.7
569.96	37.72
570.156	37.62
570.353	37.73
570.55	37.79
570.746	37.86
570.943	37.93
571.14	38.03
571.336	38.08
571.533	38.18
571.729	38.17
571.926	38.19
572.123	38.31
572.319	38.36
572.516	38.41
572.712	38.45
572.909	38.48
573.105	38.49
573.302	38.59
573.498	38.66
573.695	38.67
573.891	38.84
574.087	38.88
574.284	38.97
574.48	38.9
574.677	38.97
574.873	38.89
575.069	38.9
575.266	38.85
575.462	38.96
575.658	38.97
575.854	39.1
576.051	39.12
576.247	39.09
576.443	39.06
576.639	39.06
576.835	38.97
577.032	38.91
577.228	39.02
577.424	39.07
577.62	39.09
577.816	39.14
578.012	39.26
578.208	39.18
578.404	39.17
578.6	39.14
578.796	39.05
578.993	39.08
579.189	38.98
579.384	38.96
579.58	38.93
579.776	38.95
579.972	38.95
580.168	39.12
580.364	39.12
580.56	39.23
580.756	39.29
580.952	39.19
581.148	39.12
581.343	39.08
581.539	39.02
581.735	38.86
581.931	38.82
582.127	38.77
582.322	38.93
582.518	38.91
582.714	38.93
582.909	39.01
583.105	39.01
583.301	38.87
583.496	38.79
583.692	38.85
583.888	38.74
584.083	38.77
584.279	38.66
584.474	38.61
584.67	38.6
584.866	38.62
585.061	38.51
585.257	38.57
585.452	38.89
585.648	38.83
585.843	38.82
586.039	38.9
586.234	38.81
586.429	38.6
586.625	38.68
586.82	38.69
587.015	38.74
587.211	38.86
587.406	38.87
587.601	38.84
587.797	38.87
587.992	38.83
588.187	38.88
588.383	38.84
588.578	38.84
588.773	38.83
588.968	38.79
589.163	38.69
589.359	38.75
589.554	38.85
589.749	38.82
589.944	38.88
590.139	39.01
590.334	38.97
590.529	38.88
590.724	38.98
590.919	39.08
591.114	39.21
591.309	39.3
591.504	39.45
591.699	39.58
591.894	39.55
592.089	39.46
592.284	39.55
592.479	39.6
592.674	39.57
592.869	39.6
593.064	39.7
593.259	39.78
593.454	39.76
593.648	39.89
593.843	39.94
594.038	40.05
594.233	40.22
594.428	40.33
594.622	40.41
594.817	40.48
595.012	40.55
595.206	40.53
595.401	40.58
595.596	40.64
595.79	40.74
595.985	40.84
596.18	40.9
596.374	41
596.569	41.17
596.763	41.26
596.958	41.34
597.153	41.44
597.347	41.46
597.542	41.43
597.736	41.59
597.931	41.6
598.125	41.65
598.319	41.74
598.514	41.79
598.708	41.79
598.903	41.93
599.097	42.07
599.291	42.26
599.486	42.29
599.68	42.38
599.874	42.35
600.069	42.44
600.263	42.46
600.457	42.61
600.651	42.67
600.846	42.75
601.04	42.71
601.234	42.68
601.428	42.69
601.622	42.64
601.817	42.66
602.011	42.77
602.205	42.91
602.399	42.92
602.593	42.93
602.787	43.02
602.981	42.81
603.175	42.76
603.369	42.8
603.563	42.98
603.757	42.91
603.951	43.02
604.145	43.01
604.339	42.89
604.533	42.84
604.727	42.82
604.921	42.82
605.115	42.74
605.309	42.82
605.502	42.74
605.696	42.79
605.89	42.63
606.084	42.62
606.278	42.53
606.471	42.53
606.665	42.45
606.859	42.54
607.053	42.54
607.246	42.61
607.44	42.48
607.634	42.46
607.827	42.37
608.021	42.23
608.214	42.13
608.408	42.07
608.602	41.94
608.795	41.9
608.989	41.91
609.182	41.81
609.376	41.81
609.569	41.76
609.763	41.71
609.956	41.71
610.15	41.57
610.343	41.44
610.537	41.39
610.73	41.34
610.923	41.33
611.117	41.33
611.31	41.16
611.504	41.18
611.697	41.05
611.89	40.88
612.083	40.81
612.277	40.82
612.47	40.59
612.663	40.64
612.856	40.52
613.05	40.45
613.243	40.42
613.436	40.35
613.629	40.17
613.822	40.19
614.015	40.05
614.209	39.99
614.402	40.03
614.595	39.94
614.788	39.87
614.981	39.82
615.174	39.75
615.367	39.58
615.56	39.53
615.753	39.46
615.946	39.34
616.139	39.31
616.332	39.36
616.525	39.41
616.718	39.26
616.911	39.25
617.103	39.19
617.296	39
617.489	38.86
617.682	38.82
617.875	38.84
618.067	38.77
618.26	38.83
618.453	38.87
618.646	38.79
618.838	38.66
619.031	38.63
619.224	38.51
619.417	38.37
619.609	38.34
619.802	38.29
619.994	38.15
620.187	38.1
620.38	38.14
620.572	38.12
620.765	38.1
620.957	38.16
621.15	38.13
621.342	38.01
621.535	37.95
621.727	37.96
621.92	37.88
622.112	37.97
622.305	37.96
622.497	38.12
622.69	37.97
622.882	37.98
623.074	37.88
623.267	37.95
623.459	37.76
623.651	37.81
623.844	37.73
624.036	37.74
624.228	37.62
624.42	37.68
624.613	37.74
624.805	37.7
624.997	37.64
625.189	37.55
625.381	37.54
625.574	37.48
625.766	37.56
625.958	37.56
626.15	37.59
626.342	37.49
626.534	37.41
626.726	37.35
626.918	37.35
627.11	37.3
627.302	37.25
627.494	37.27
627.686	37.23
627.878	37.17
628.07	37.13
628.262	37.12
628.454	37.07
628.646	37
628.838	36.95
629.029	36.84
629.221	36.85
629.413	36.76
629.605	36.61
629.797	36.51
629.989	36.64
630.18	36.46
630.372	36.41
630.564	36.5
630.755	36.61
630.947	36.41
631.139	36.4
631.33	36.25
631.522	36.22
631.714	35.92
631.905	35.98
632.097	35.91
632.289	36.07
632.48	36.01
632.672	36.07
632.863	36.01
633.055	36.03
633.246	35.96
633.438	35.98
633.629	36.05
633.821	36.04
634.012	36.04
634.203	35.99
634.395	35.96
634.586	35.9
634.777	35.84
634.969	35.85
635.16	35.9
635.351	35.82
635.543	35.8
635.734	35.85
635.925	35.71
636.117	35.75
636.308	35.81
636.499	35.81
636.69	35.7
636.881	35.76
637.073	35.72
637.264	35.7
637.455	35.62
637.646	35.64
637.837	35.61
638.028	35.45
638.219	35.38
638.41	35.42
638.601	35.53
638.792	35.6
638.983	35.69
639.174	35.6
639.365	35.5
639.556	35.43
639.747	35.34
639.938	35.34
640.129	35.44
640.32	35.53
640.511	35.4
640.701	35.29
640.892	35.28
641.083	35.23
641.274	35.16
641.465	35.23
641.655	35.38
641.846	35.26
642.037	35.15
642.228	35.05
642.418	34.91
642.609	34.8
642.8	34.77
642.99	34.72
643.181	34.76
643.372	34.76
643.562	34.74
643.753	34.7
643.943	34.59
644.134	34.54
644.324	34.56
644.515	34.52
644.705	34.56
644.896	34.63
645.086	34.55
645.277	34.38
645.467	34.34
645.658	34.2
645.848	34.07
646.038	34.11
646.229	34.23
646.419	34.24
646.61	34.19
646.8	34.23
646.99	34.3
647.18	34.18
647.371	34.04
647.561	34.03
647.751	34.01
647.941	33.78
648.132	33.73
648.322	33.71
648.512	33.8
648.702	33.77
648.892	33.72
649.082	33.78
649.272	33.78
649.462	33.68
649.653	33.7
649.843	33.81
650.033	33.76
650.223	33.71
650.413	33.61
650.603	33.58
650.793	33.44
650.983	33.36
651.172	33.22
651.362	33.07
651.552	32.99
651.742	32.99
651.932	32.94
652.122	33
652.312	33.15
652.502	33
652.691	32.77
652.881	32.67
653.071	32.59
653.261	32.45
653.45	32.41
653.64	32.39
653.83	32.19
654.019	31.98
654.209	31.9
654.399	31.77
654.588	31.71
654.778	31.67
654.968	31.46
655.157	31.27
655.347	31.04
655.536	30.79
655.726	30.52
655.915	30.46
656.105	30.25
656.294	30.07
656.484	29.85
656.673	29.87
656.863	29.72
657.052	29.57
657.241	29.38
657.431	29.26
657.62	28.93
657.809	28.55
657.999	28.26
658.188	28.01
658.377	27.78
658.567	27.5
658.756	27.41
658.945	27.28
659.134	27.16
659.324	26.85
659.513	26.66
659.702	26.41
659.891	26.08
660.08	25.86
660.269	25.6
660.458	25.37
660.648	25.09
660.837	24.8
661.026	24.47
661.215	24.34
661.404	24.11
661.593	23.95
661.782	23.75
661.971	23.51
662.16	23.31
662.349	23.1
662.538	22.92
662.726	22.71
662.915	22.56
663.104	22.27
663.293	22.01
663.482	21.67
663.671	21.43
663.86	21.14
664.048	21
664.237	20.87
664.426	20.77
664.615	20.58
664.803	20.4
664.992	20.18
665.181	20
665.369	19.8
665.558	19.7
665.747	19.53
665.935	19.35
666.124	19.12
666.312	19.04
666.501	18.95
666.69	18.88
666.878	18.69
667.067	18.63
667.255	18.54
667.444	18.34
667.632	18.21
667.82	18.09
668.009	17.77
668.197	17.51
668.386	17.42
668.574	17.3
668.762	17.26
668.951	17.36
669.139	17.25
669.327	17.07
669.516	17.06
669.704	16.97
669.892	16.91
670.08	16.87
670.269	16.89
670.457	16.8
670.645	16.7
670.833	16.65
671.021	16.56
671.21	16.49
671.398	16.49
671.586	16.44
671.774	16.28
671.962	16.25
672.15	16.41
672.338	16.4
672.526	16.43
672.714	16.45
672.902	16.5
673.09	16.32
673.278	16.31
673.466	16.35
673.654	16.46
673.842	16.4
674.03	16.44
674.218	16.43
674.405	16.4
674.593	16.43
674.781	16.47
674.969	16.54
675.157	16.57
675.344	16.72
675.532	16.71
675.72	16.93
675.908	16.99
676.095	17.05
676.283	17.08
676.471	17.12
676.658	17.13
676.846	17.12
677.033	17.13
677.221	17.28
677.409	17.31
677.596	17.37
677.784	17.43
677.971	17.63
678.159	17.61
678.346	17.81
678.534	18.03
678.721	18.28
678.909	18.38
679.096	18.69
679.283	18.74
679.471	18.84
679.658	18.98
679.846	19.06
680.033	19.13
680.22	19.42
680.408	19.47
680.595	19.54
680.782	19.66
680.969	19.86
681.157	20.01
681.344	20.22
681.531	20.55
681.718	20.82
681.905	21.05
682.093	21.31
682.28	21.65
682.467	21.84
682.654	22.11
682.841	22.39
683.028	22.55
683.215	22.76
683.402	23.03
683.589	23.25
683.776	23.47
683.963	23.67
684.15	24.14
684.337	24.51
684.524	25
684.711	25.27
684.898	25.74
685.085	26.04
685.271	26.29
685.458	26.58
685.645	27.1
685.832	27.58
686.019	27.92
686.205	28.42
686.392	28.86
686.579	29.21
686.766	29.61
686.952	29.93
687.139	30.41
687.326	30.81
687.512	31.35
687.699	31.98
687.886	32.6
688.072	33.11
688.259	33.63
688.445	34.17
688.632	34.61
688.818	35.21
689.005	35.73
689.191	36.39
689.378	36.83
689.564	37.2
689.751	37.64
689.937	38.28
690.124	38.68
690.31	39.49
690.496	40.19
690.683	41.06
690.869	41.57
691.055	42.47
691.242	42.91
691.428	43.46
691.614	43.94
691.8	44.45
691.987	44.88
692.173	45.47
692.359	46.13
692.545	46.8
692.731	47.65
692.918	48.22
693.104	48.91
693.29	49.52
693.476	50.04
693.662	50.59
693.848	51.13
694.034	51.6
694.22	52.38
694.406	52.94
694.592	53.32
694.778	53.93
694.964	54.45
695.15	54.95
695.336	55.37
695.522	55.88
695.708	56.53
695.894	57.27
696.08	57.69
696.265	58.07
696.451	58.79
696.637	59.1
696.823	59.39
697.009	59.8
697.194	60.61
697.38	60.92
697.566	61.61
697.751	61.9
697.937	62.24
698.123	62.45
698.308	63.14
698.494	63.25
698.68	63.97
698.865	64.41
699.051	64.79
699.236	64.88
699.422	65.41
699.607	65.83
699.793	66.31
699.978	66.73
700.164	67.24
700.349	67.78
700.535	68.07
700.72	68.38
700.906	68.75
701.091	69.23
701.276	69.31
701.462	69.92
701.647	70.17
701.832	70.57
702.018	70.73
702.203	71.24
702.388	71.05
702.573	71.33
702.759	71.57
702.944	71.6
703.129	71.7
703.314	71.95
703.499	72.45
703.684	72.78
703.87	72.99
704.055	73.08
704.24	73.39
704.425	73.18
704.61	73.44
704.795	73.88
704.98	74.33
705.165	74.46
705.35	74.82
705.535	75.09
705.72	75.2
705.905	75.28
706.09	75.44
706.275	75.82
706.459	75.77
706.644	75.79
706.829	75.99
707.014	76.13
707.199	76.41
707.384	76.37
707.568	76.29
707.753	76.44
707.938	76.38
708.123	76.32
708.307	76.58
708.492	77.27
708.677	77.34
708.861	77.83
709.046	77.86
709.231	78.03
709.415	78.05
709.6	78.09
709.784	78.13
709.969	78.09
710.153	78.27
710.338	78.7
710.522	79.33
710.707	79.66
710.891	80.17
711.076	80.18
711.26	79.83
711.445	79.41
711.629	79.05
711.813	78.72
711.998	78.96
712.182	79.24
712.366	79.16
712.551	79.78
712.735	80.21
712.919	80.04
713.103	80.12
713.288	80.21
713.472	80.05
713.656	80.38
713.84	80.45
714.024	80.3
714.208	80.44
714.393	80.24
714.577	79.74
714.761	79.72
714.945	79.77
715.129	80.64
715.313	80.64
715.497	80.78
715.681	81.14
715.865	81.16
716.049	80.49
716.233	80.72
716.417	80.85
716.601	80.74
716.785	81.11
716.968	81.13
717.152	81.73
717.336	81.99
717.52	82.23
717.704	82.23
717.888	82.44
718.071	81.51
718.255	81.3
718.439	81.2
718.622	81.26
718.806	81.13
718.99	81.97
719.174	82.26
719.357	82.34
719.541	82.33
719.724	82.31
719.908	81.8
720.092	81.5
720.275	81.66
720.459	81.6
720.642	82.16
720.826	82.37
721.009	82.12
721.193	81.35
721.376	81.05
721.559	80.82
721.743	80.92
721.926	81.71
722.11	81.85
722.293	82.32
722.476	82.1
722.66	82.13
722.843	81.67
723.026	82.34
723.21	81.83
723.393	82.05
723.576	82.63
723.759	82.6
723.942	82.67
724.126	83.59
724.309	83.35
724.492	82.84
724.675	83.19
724.858	83.23
725.041	82.85
725.224	83.33
725.407	83.43
725.59	83.5
725.774	83.61
725.957	83.89
726.14	83.65
726.322	83.48
726.505	83.3
726.688	83.35
726.871	83.34
727.054	83.65
727.237	83.91
727.42	84.17
727.603	83.92
727.786	83.57
727.968	83.3
728.151	83.13
728.334	82.63
728.517	82.78
728.699	82.63
728.882	83
729.065	83.12
729.248	83.83
729.43	84.19
729.613	84.78
729.796	84.6
729.978	84.99
730.161	84.52
730.343	84.11
730.526	83.8
730.708	83.71
730.891	83.2
731.073	83.35
731.256	83.5
731.438	84.06
731.621	84.35
731.803	85
731.986	85.32
732.168	85.1
732.35	84.97
732.533	84.81
732.715	84.11
732.898	84.54
733.08	84.69
733.262	84.17
733.444	84.75
733.627	84.85
733.809	84.24
733.991	84.29
734.173	84.97
734.355	84.24
734.538	84.87
734.72	84.89
734.902	84.7
735.084	84.98
735.266	85.17
735.448	85.02
735.63	84.78
735.812	85.37
735.994	84.59
736.176	84.81
736.358	85.27
736.54	86.31
736.722	86.08
736.904	86.65
737.086	86.45
737.268	85.71
737.45	85.68
737.632	86.06
737.814	85.31
737.995	85.18
738.177	85.15
738.359	83.94
738.541	83.13
738.723	83.24
738.904	83.7
739.086	84.89
739.268	86.53
739.449	87.01
739.631	87.4
739.813	87.38
739.994	86.53
740.176	85.19
740.358	85.52
740.539	85.45
740.721	84.99
740.902	85.63
741.084	86.28
741.265	86.6
741.447	86.81
741.628	87.32
741.81	87.04
741.991	86.54
742.172	86.5
742.354	86.58
742.535	86.91
742.717	86.6
742.898	87.17
743.079	87.24
743.261	87.15
743.442	86.22
743.623	86.6
743.804	85.81
743.986	85.84
744.167	86.13
744.348	86.58
744.529	86.16
744.71	86.98
744.891	86.48
745.073	86.42
745.254	87
745.435	87.01
745.616	86.78
745.797	86.73
745.978	86.83
746.159	85.96
746.34	86.67
746.521	86.35
746.702	86.7
746.883	86.37
747.064	87.27
747.245	86.8
747.426	86.45
747.606	86.08
747.787	86.49
747.968	86.74
748.149	86.22
748.33	86.95
748.51	87.49
748.691	86.82
748.872	85.4
749.053	85.84
749.233	85.57
749.414	84.65
749.595	85.96
749.775	86.23
749.956	85.03
750.137	85.26
750.317	85.99
750.498	85.32
750.678	85.24
750.859	86.64
751.04	86.85
751.22	86.79
751.4	87.88
751.581	89.38
751.761	90.09
751.942	90.84
752.122	90.51
752.303	89.71
752.483	89.12
752.663	89.05
752.844	88.55
753.024	88.38
753.204	88.04
753.385	87.96
753.565	86.17
753.745	85.6
753.925	86.3
754.106	86.84
754.286	86.71
754.466	87.63
754.646	86.48
754.826	85.98
755.006	84.85
755.187	84.39
755.367	85.1
755.547	86.3
755.727	86.38
755.907	86.37
756.087	85.86
756.267	85.06
756.447	84.98
756.627	84.42
756.807	85.1
756.987	86.74
757.167	86.64
757.346	88.32
757.526	87.44
757.706	88.52
757.886	86.95
758.066	87.65
758.246	85.72
758.425	86.7
758.605	85.62
758.785	85.63
758.965	86.2
759.144	86.63
759.324	87.14
759.504	88
759.683	88.86
759.863	88.17
760.043	87.29
760.222	86.67
760.402	84.77
760.581	84.26
760.761	82.89
760.94	82.42
761.12	82.09
761.299	82.58
761.479	83.05
761.658	83.23
761.838	84.61
762.017	84.87
762.197	83.29
762.376	82.54
762.555	83.3
762.735	82.92
762.914	82.8
763.093	84.83
763.273	84.34
763.452	83.63
763.631	83.94
763.81	84.49
763.99	84.15
764.169	85.52
764.348	84.76
764.527	84.88
764.706	84.98
764.885	84.91
765.064	84.18
765.243	84.99
765.423	84.87
765.602	84.57
765.781	84.18
765.96	83.9
766.139	84.14
766.318	84.03
766.497	83.23
766.676	84.55
766.854	85.06
767.033	85.46
767.212	84.62
767.391	85.27
767.57	83.79
767.749	84.75
767.928	84.64
768.106	84.71
768.285	84.68
768.464	85.05
768.643	84.1
768.821	84.07
769	84.66
769.179	85.1
769.357	85.4
769.536	84.9
769.715	84.32
769.893	86.78
770.072	87.02
770.25	85.42
770.429	86.57
770.607	87.69
770.786	84.51
770.964	84.56
771.143	86.66
771.321	84.95
771.5	85.01
771.678	86.31
771.857	87.05
772.035	85.07
772.213	85.4
772.392	84.85
772.57	83.94
772.748	83.23
772.927	83.38
773.105	85.15
773.283	86.01
773.461	86.18
773.64	85.29
773.818	86.79
773.996	85.6
774.174	83.99
774.352	81.5
774.531	81.71
774.709	81.13
774.887	80.55
775.065	80.96
775.243	82.88
775.421	81.53
775.599	81.29
775.777	83.21
775.955	82.36
776.133	82.43
776.311	85.56
776.489	84.86
776.667	81.82
776.844	84.41
777.022	83.79
777.2	81.9
777.378	83.52
777.556	85.02
777.734	83.04
777.911	83.9
778.089	85.63
778.267	86.11
778.445	87.54
778.622	88.34
778.8	89.71
778.978	86.47
779.155	84.1
779.333	83.22
779.511	82.97
779.688	82.8
779.866	86.09
780.043	87.67
780.221	87.95
780.398	88.16
780.576	86.46
780.753	83.16
780.931	87.11
781.108	87.67
781.286	87.67
781.463	88.55
781.64	88.19
781.818	85.32
781.995	81.94
782.172	81.06
782.35	81.55
782.527	83.28
782.704	81.08
782.882	82.85
783.059	82.88
783.236	81.82
783.413	78.75
783.59	81.23
783.768	80.32
783.945	77.52
784.122	76.82
784.299	78.84
784.476	74.73
784.653	75.55
784.83	81.97
785.007	81.43
785.184	79.44
785.361	80.19
785.538	79.99
785.715	74.39
785.892	74.92
786.069	78.06
786.246	81.25
786.423	79.71
786.6	80.9
786.776	82.81
786.953	83.07
787.13	79.95
787.307	77.86
787.484	77.7
787.66	74.52
787.837	70.27
788.014	71.6
788.191	72.14
788.367	73.33
788.544	74.72
788.721	77.3
788.897	74.27
789.074	76.19
789.25	75.9
789.427	75.42
789.603	77.68
789.78	79.9
789.956	74.35
790.133	73.22
790.309	73.99
790.486	68.89
790.662	70.89
790.839	76.45
791.015	77.62
791.192	76.21
791.368	80.78
791.544	81.92
791.721	83.42
791.897	81.17
792.073	80.6
792.249	83.06
792.426	81.93
792.602	85
792.778	86.78
792.954	89.6
793.13	86.78
793.307	85.28
793.483	83.65
793.659	83.08
793.835	85.04
794.011	82.74
794.187	81.3
794.363	77.64
794.539	80.74
794.715	78.41
794.891	76.85
795.067	78.85
795.243	82.58
795.419	81.45
795.595	82.95
795.771	86.56
795.947	86.77
796.122	80.88
796.298	81.83
796.474	78.27
796.65	75.28
796.826	74.42
797.001	76.23
797.177	71.79
797.353	71.76
797.529	72.13
797.704	74.4
797.88	78.96
798.056	77.49
798.231	78.58
798.407	82.74
798.582	79.51
798.758	75.9
798.934	79.61
799.109	80.95
799.285	77.36
799.46	79.92
799.636	79.93
799.811	79.9
799.986	81.46
800.162	81.05
800.337	83.6
800.513	82.08
800.688	80.24
800.863	80.65
801.039	83.12
801.214	77.99
801.389	82.11
801.565	80.72
801.74	75.71
801.915	74.65
802.09	74.78
802.265	71.96
802.441	75.03
802.616	84.78
802.791	84.99
802.966	88.38
803.141	86.24
803.316	88.25
803.491	84.84
803.666	81.62
803.841	71.59
804.016	75.8
804.191	75.75
804.366	72.67
804.541	73.09
804.716	77.75
804.891	73.31
805.066	70.77
805.241	68.19
805.416	68.21
805.591	67.71
805.765	71.65
805.94	73.12
806.115	71.28
806.29	77.14
806.464	85.15
806.639	79.42
806.814	78.1
806.989	82.44
807.163	76.82
807.338	67.73
807.512	68.73
807.687	70.67
807.862	73.47
808.036	76.74
808.211	81.52
808.385	81.57
808.56	83.11
808.734	70.94
808.909	69.18
809.083	67.93
809.258	67.68
809.432	65.82
809.606	74.05
809.781	72.57
809.955	74.17
810.13	76.58
810.304	69.24
810.478	65.63
810.652	62.97
810.827	64.68
811.001	65.72
811.175	75.7
811.349	77.72
811.524	78.4
811.698	75.99
811.872	71.37
812.046	70.26
812.22	71.36
812.394	74.11
812.568	79.04
812.742	79.82
812.916	78.4
813.09	74.46
813.264	73.45
813.438	60.82
813.612	66.09
813.786	68.03
813.96	74.56
814.134	84.87
814.308	91.66
814.482	84.14
814.656	79.91
814.83	77.17
815.003	70.46
815.177	73.21
815.351	78.2
815.525	80.77
815.698	84.96
815.872	83.18
816.046	83.29
816.219	78.35
816.393	83.02
816.567	83.36
816.74	85.26
816.914	82.69
817.088	83.06
817.261	71.83
817.435	69.39
817.608	67.3
817.782	66.3
817.955	70.05
818.129	78.03
818.302	74.61
818.475	68.82
818.649	72.05
818.822	63.47
818.996	64.01
819.169	66.92
819.342	72.86
819.516	75.29
819.689	87.58
819.862	82.54
820.035	87.12
820.209	84.21
820.382	83.75
820.555	81.72
820.728	90.67
820.901	87.5
821.075	87.04
821.248	75.8
821.421	73.59
821.594	69.02
821.767	69.02
821.94	68.28
822.113	77.29
822.286	79.32
822.459	76.88
822.632	70.18
822.805	74.6
822.978	73.69
823.151	68.16
823.324	66.62
823.496	66.71
823.669	61.4
823.842	58.12
824.015	59.26
824.188	61.61
824.361	63.19
824.533	68.13
824.706	68.95
824.879	67.43
825.051	69.32
825.224	65.32
825.397	60.8
825.569	60.87
825.742	71.76
825.915	77.62
826.087	78.77
826.26	83.64
826.432	78.07
826.605	68.62
826.777	73.93
826.95	69.38
827.122	58.94
827.295	57.84
827.467	61.79
827.64	46.82
827.812	47.04
827.984	57.81
828.157	67.36
828.329	59.46
828.501	59.85
828.674	70.53
828.846	64.59
829.018	64.72
829.19	69.31
829.363	71.55
829.535	66.79
829.707	69.95
829.879	65.84
830.051	64.33
830.223	56.99
830.395	64.22
830.568	63.3
830.74	65.99
830.912	67.91
831.084	87.68
831.256	71.35
831.428	70.05
831.6	61.55
831.772	66.42
831.943	58.67
832.115	63.32
832.287	68.13
832.459	66.18
832.631	67.56
832.803	80.26
832.975	87.01
833.146	80.37
833.318	82.82
833.49	78.85
833.662	68.68
833.833	65.27
834.005	72.37
834.177	72.3
834.348	66.25
834.52	60.95
834.692	57.88
834.863	52.62
835.035	56.33
835.206	67.32
835.378	65.69
835.549	60.49
835.721	59.84
835.892	53.36
836.064	42.6
836.235	47.03
836.407	59.52
836.578	62.06
836.749	76.22
836.921	68.27
837.092	61.92
837.264	64.58
837.435	56.11
837.606	57.6
837.777	74.9
837.949	77.29
838.12	58.25
838.291	64.05
838.462	51
838.633	49.35
838.805	55.25
838.976	59.59
839.147	58.38
839.318	61.28
839.489	56.39
839.66	50.2
839.831	52.46
840.002	46.57
840.173	48.83
840.344	54.54
840.515	53.09
840.686	38.55
840.857	41.73
841.028	42.18
841.199	32.54
841.369	45.39
841.54	65.28
841.711	72.67
841.882	65.24
842.053	75.96
842.223	70.09
842.394	72.78
842.565	52.86
842.736	68.58
842.906	68.59
843.077	80.65
843.248	69.7
843.418	88.14
843.589	89.38
843.759	82.04
843.93	69.28
844.101	87.08
844.271	80.85
844.442	74.84
844.612	83.41
844.783	79.33
844.953	72.08
845.123	74.08
845.294	72.77
845.464	56.74
845.635	68.16
845.805	55.32
845.975	52.59
846.146	47.08
846.316	61.54
846.486	57.17
846.656	63.66
846.827	68.55
846.997	65.17
847.167	58.67
847.337	67.28
847.507	69.99
847.677	53.03
847.848	80.25
848.018	93.73
848.188	78.38
848.358	72.48
848.528	81.48
848.698	64.23
848.868	45.56
849.038	36.51
849.208	38.93
849.378	51.73
849.548	36.36
849.718	48.19
849.887	57.37
850.057	59.72
850.227	41.27
850.397	53.5
850.567	62.91
850.737	41.94
850.906	38.64
851.076	64.36
851.246	94.77
851.415	82.9
851.585	109.93
851.755	91.88
851.924	54.68
852.094	29.1
852.264	34.89
852.433	35.27
852.603	28.55
852.772	39.36
852.942	42.99
853.111	43.55
853.281	56.99
853.45	70.81
853.62	67.24
853.789	59.23
853.959	73.77
854.128	66.69
854.297	72.63
854.467	75.29
854.636	83.25
854.805	79.83
854.975	45.12
855.144	38.78
855.313	45.92
855.482	52.41
855.652	5.05
855.821	40.36
855.99	48.74
856.159	59.96
856.328	67.21
856.497	82.08
856.667	86.56
856.836	65.09
857.005	58.13
857.174	45.22
857.343	64
857.512	73.44
857.681	78.11
857.85	71.91
858.019	81.4
858.188	72.96
858.356	40.19
858.525	46.08
858.694	28.19
858.863	43.55
859.032	50.32
859.201	45.69
859.369	55.09
859.538	65.02
859.707	64.48
859.876	52.16
860.044	50.99
860.213	71.37
860.382	58.8
860.55	67.04
860.719	56.14
860.888	65.08
861.056	35.06
861.225	44.55
861.393	68.66
861.562	64.91
861.73	60.27
861.899	64.9
862.067	70.75
862.236	55.72
862.404	57.05
862.572	64.35
862.741	64.55
862.909	71.06
863.078	63.77
863.246	70.93
863.414	52.31
863.582	61.4
863.751	47.22
863.919	52.52
864.087	73.5
864.255	97.29
864.424	108.94
864.592	138.81
864.76	134.93
864.928	206.68
865.096	142.36
865.264	129.66
865.432	117.86
865.6	95.84
865.768	66.84
865.936	80.95
866.104	94.36
866.272	89.02
866.44	72.42
866.608	60.2
866.776	24.04
866.944	-22.9
867.112	-21.84
867.28	-38.81
867.448	-23.4
867.615	23.01
867.783	75.63
867.951	81.27
868.119	108.84
868.286	75.72
868.454	81.89
868.622	56.95
868.789	53.93
868.957	49.04
869.125	36.87
869.292	29.59
869.46	58.65
869.627	43.24
869.795	30.11
869.963	33.77
870.13	17.4
870.298	-10.41
870.465	15.93
870.632	37.22
870.8	48.37
870.967	52
871.135	59.39
871.302	34.25
871.469	-11.81
871.637	4.66
871.804	-45.8
871.971	26.92
872.139	95.56
872.306	100.29
872.473	76.87
872.64	64.19
872.807	59.45
872.975	38.37
873.142	23.49
873.309	31.67
873.476	45.63
873.643	84.51
873.81	83.6
873.977	96.06
874.144	53.33
874.311	49.52
874.478	35.64
874.645	37.5
874.812	22.32
874.979	70.81
875.146	63.66
875.313	83.61
875.48	112.7
875.647	103.98
875.813	86.03
875.98	85.12
876.147	79.17
876.314	76.48
876.481	71.43
876.647	81.39
876.814	56.47
876.981	66.34
877.147	52.41
877.314	47.73
877.481	41.17
877.647	100.04
877.814	77.4
877.98	51.22
878.147	66.83
878.314	83.72
878.48	60.7
878.647	55.55
878.813	86.41
878.979	72.81
879.146	56.06
879.312	82.45
879.479	69.9
879.645	38.71
879.811	40.58
879.978	37.94
880.144	13.79
880.31	16.62
880.477	12.44
880.643	29.37
880.809	29.19
880.975	26.79
881.142	39.34
881.308	67.43
881.474	30.66
881.64	45.98
881.806	56.09
881.972	70.85
882.138	57.58
882.304	109.69
882.47	120.15
882.636	285.24
882.802	234.89
882.968	836.21
883.134	144.3
883.3	208.38
883.466	189.74
883.632	176.48
883.798	173.74
883.964	128.63
884.129	112.52
884.295	87.36
884.461	95.25
884.627	51.67
884.793	59.81
884.958	65.42
885.124	68.95
885.29	55.94
885.455	49.88
885.621	56.74
885.787	24.26
885.952	16.04
886.118	16.35
886.283	45.63
886.449	50.3
886.614	70.72
886.78	72.53
886.945	77.98
887.111	77.96
887.276	74.53
887.442	59.74
887.607	80.55
887.773	67.58
887.938	62.51
888.103	52.64
888.269	61.37
888.434	39.38
888.599	59.01
888.764	66.1
888.93	82.11
889.095	79.63
889.26	65.12
889.425	46.53
889.59	30.13
889.756	34.08
889.921	34.6
890.086	48.09
890.251	50.05
890.416	35.09
890.581	18.19
890.746	26.55
890.911	25.92
891.076	26.74
891.241	57.16
891.406	66.54
891.571	63.83
891.736	81.75
891.901	76.08
892.065	69.12
892.23	74.81
892.395	79.25
892.56	86.85
892.725	101.33
892.889	88.79
893.054	48.9
893.219	46.45
893.384	25.01
893.548	18.12
893.713	28.36
893.878	48.44
