Data from Ofra_PS_Phys_8HS24_Reflection_3.txt Node
Date: Tue Jul 20 20:39:18 EDT 2021
User: USUARIO
Spectrometer: FLMT01687
Trigger mode: 0
Integration Time (sec): 1.042999E0
Scans to average: 2
Electric dark correction enabled: true
Nonlinearity correction enabled: false
Boxcar width: 2
XAxis mode: Wavelengths
Number of Pixels in Spectrum: 3648
>>>>>Begin Spectral Data<<<<<
179.494	-1.41
179.716	21.33
179.937	41.8
180.158	30.12
180.38	44.21
180.601	32.78
180.823	59.11
181.044	28.07
181.265	-246.07
181.486	-29.81
181.708	-95.63
181.929	41.13
182.15	-70.3
182.372	-4.45
182.593	83.19
182.814	53.61
183.035	34.96
183.257	-16.11
183.478	-317.56
183.699	-307.04
183.92	-128.57
184.141	-195.33
184.363	-38.93
184.584	40.33
184.805	36.32
185.026	40.72
185.247	20.91
185.468	3.61
185.689	22.01
185.91	26.05
186.132	-19.91
186.353	-20.51
186.574	-5.65
186.795	-28.65
187.016	-24.58
187.237	-5.01
187.458	-0.79
187.679	13.68
187.9	18.27
188.121	18.43
188.342	44.67
188.563	38.86
188.784	25.11
189.005	13.76
189.226	25.09
189.447	24.41
189.667	21.44
189.888	17.58
190.109	51.96
190.33	22.82
190.551	-0.88
190.772	-26.48
190.993	-19.35
191.214	-62.22
191.434	-30.19
191.655	-18.33
191.876	-8.53
192.097	19.41
192.318	33.58
192.538	27.38
192.759	21.87
192.98	22.04
193.201	7.74
193.421	10.72
193.642	15.45
193.863	16.07
194.083	26.06
194.304	37.77
194.525	33.44
194.745	47.31
194.966	39.82
195.187	24.56
195.407	-2.62
195.628	-9.35
195.848	-43.69
196.069	-4.48
196.29	7.5
196.51	7.44
196.731	14.3
196.951	15.93
197.172	3.75
197.392	3.99
197.613	16.33
197.833	17.3
198.054	21.96
198.274	23.43
198.495	3.85
198.715	-11.02
198.936	-17.83
199.156	-9.54
199.377	7.11
199.597	16.18
199.817	19.04
200.038	18.28
200.258	17.21
200.479	13.11
200.699	27.15
200.919	21.77
201.14	32.28
201.36	54.59
201.58	173.61
201.801	113.25
202.021	59.84
202.241	42.4
202.461	34.46
202.682	22.88
202.902	-14.33
203.122	-5.99
203.342	-16.68
203.563	-29.3
203.783	-21.11
204.003	10.76
204.223	25.11
204.443	29.63
204.663	18.87
204.884	9.27
205.104	2.02
205.324	-10.79
205.544	-9.77
205.764	-8.35
205.984	1.74
206.204	-8.16
206.424	17.01
206.644	8.48
206.864	14.65
207.084	4.82
207.304	17.68
207.525	-10.09
207.745	3.02
207.964	2.12
208.184	25.39
208.404	32.99
208.624	41.44
208.844	37.09
209.064	26.45
209.284	3.64
209.504	-2.47
209.724	15.05
209.944	-5.38
210.164	20.35
210.384	27.23
210.604	33.68
210.823	14.06
211.043	25.28
211.263	5.67
211.483	-10.08
211.703	-38.18
211.922	-42.37
212.142	-45.94
212.362	-39.3
212.582	-15.47
212.801	-21.8
213.021	-13.04
213.241	-42.07
213.461	-30.05
213.68	-80.2
213.9	-61.17
214.12	-89.57
214.339	-63.05
214.559	-30.88
214.779	-12.14
214.998	-1.06
215.218	3.18
215.438	-4.55
215.657	8.28
215.877	10.41
216.096	15.28
216.316	17.69
216.535	28.66
216.755	-3.39
216.974	-8.55
217.194	-33.13
217.413	-23.43
217.633	-33.33
217.852	-14.59
218.072	-15.55
218.291	-7.01
218.511	2.3
218.73	-0.14
218.95	8.68
219.169	13.13
219.389	14.79
219.608	9.98
219.827	24.22
220.047	10.28
220.266	-10.55
220.485	-3.47
220.705	-18.4
220.924	-29.17
221.143	-32.36
221.363	-36.16
221.582	-50.2
221.801	-38.23
222.021	-40.97
222.24	-30.21
222.459	-19.26
222.678	-18.51
222.897	-27.54
223.117	-41.59
223.336	-40.6
223.555	-24.24
223.774	-20.96
223.993	20.89
224.213	32.53
224.432	26.35
224.651	33.45
224.87	35.77
225.089	12.57
225.308	7.41
225.527	6.72
225.746	-13.59
225.965	7.18
226.184	3.63
226.404	-8.22
226.623	-9.2
226.842	10.59
227.061	-9.53
227.28	-12.89
227.499	-13.58
227.718	-4.57
227.936	-0.15
228.155	-1.68
228.374	10.7
228.593	15.35
228.812	11.71
229.031	19.45
229.25	12.73
229.469	-1.89
229.688	-15.14
229.907	-6.13
230.125	-13.61
230.344	5.72
230.563	33.68
230.782	42.76
231.001	49.54
231.22	50.02
231.438	27.15
231.657	1.1
231.876	9.84
232.095	-7.91
232.313	-21.2
232.532	-18.31
232.751	10.53
232.969	-5.44
233.188	31.5
233.407	64.53
233.625	52.44
233.844	40.99
234.063	49
234.281	34.48
234.5	25.56
234.719	30.61
234.937	41.04
235.156	24.06
235.374	16.97
235.593	19.8
235.811	6.96
236.03	3.46
236.249	-8.04
236.467	-2.34
236.686	-10.59
236.904	8.33
237.123	-13.43
237.341	-11.12
237.559	-1.51
237.778	-1.88
237.996	-36.05
238.215	-29.68
238.433	-4.35
238.652	-15.42
238.87	-19.9
239.088	1.26
239.307	-1.12
239.525	-1.65
239.743	-8.8
239.962	-0.54
240.18	-1.44
240.398	4.96
240.617	-13.15
240.835	-6.98
241.053	-4
241.271	2.11
241.49	3.37
241.708	16.53
241.926	9.81
242.144	14.14
242.363	3.55
242.581	10.52
242.799	13.07
243.017	16.25
243.235	12.25
243.453	12.27
243.672	9.08
243.89	0.84
244.108	2.92
244.326	3.42
244.544	13.42
244.762	13.51
244.98	19.47
245.198	20.38
245.416	10.85
245.634	14.22
245.852	11.4
246.07	20.44
246.288	22.78
246.506	34.29
246.724	12.97
246.942	7.94
247.16	-16.36
247.378	-12.32
247.596	-6.19
247.814	24.53
248.032	25.18
248.25	20.29
248.468	2.57
248.685	-9.34
248.903	-54
249.121	-34.77
249.339	-12.69
249.557	2.83
249.775	11.96
249.992	17.99
250.21	21.52
250.428	3.43
250.646	-3.51
250.863	-64.09
251.081	-66.06
251.299	-85.13
251.517	-53.86
251.734	-49.35
251.952	-33.59
252.17	-12.42
252.387	5.47
252.605	16.95
252.823	23.34
253.04	21.6
253.258	15.73
253.475	15.95
253.693	11.59
253.911	3.31
254.128	-45.45
254.346	-7.99
254.563	7.44
254.781	-10.7
254.998	22.14
255.216	40.1
255.433	21.67
255.651	19.3
255.868	28.47
256.086	-4.7
256.303	24.23
256.521	12.36
256.738	-7.46
256.956	-23.26
257.173	-40.28
257.39	-34.59
257.608	-9.21
257.825	3.51
258.043	32.02
258.26	39.67
258.477	45.62
258.695	36.61
258.912	47.38
259.129	49.29
259.346	32.19
259.564	30.02
259.781	52.29
259.998	35.94
260.216	16.08
260.433	34.84
260.65	23.56
260.867	17.78
261.084	12.23
261.302	9.73
261.519	-2.82
261.736	14.1
261.953	-0.15
262.17	-5.19
262.387	9.75
262.604	17.74
262.822	13.2
263.039	11.25
263.256	10.9
263.473	-6.07
263.69	-7.76
263.907	11.39
264.124	7.67
264.341	9.84
264.558	4.85
264.775	-37.72
264.992	-29.95
265.209	22.27
265.426	22.04
265.643	24.4
265.86	48.82
266.077	34.37
266.294	30.84
266.51	27.06
266.727	33.99
266.944	17.22
267.161	0.39
267.378	-19.9
267.595	-6.19
267.812	-24.99
268.028	-23.04
268.245	-14.68
268.462	-15.81
268.679	-40.78
268.896	-19.38
269.112	-12.12
269.329	-15.53
269.546	-15.13
269.763	6
269.979	-9.97
270.196	-19.82
270.413	-5.7
270.629	-13.96
270.846	-16.99
271.063	5.17
271.279	15.15
271.496	17.3
271.712	26
271.929	22.4
272.146	-2.03
272.362	-6.75
272.579	1.89
272.795	17.22
273.012	8.7
273.228	9.69
273.445	1.07
273.661	-16.29
273.878	-26.58
274.094	9.14
274.311	18.16
274.527	21.68
274.744	29.32
274.96	21.79
275.177	18.06
275.393	10.88
275.609	2.66
275.826	-8.03
276.042	-2.78
276.259	-10.15
276.475	-14.45
276.691	1.26
276.908	25.98
277.124	25.31
277.34	14.23
277.557	20.67
277.773	12.72
277.989	1.95
278.205	8.75
278.422	7.99
278.638	13
278.854	18.12
279.07	15.34
279.286	5.79
279.503	16.12
279.719	-6.68
279.935	7.98
280.151	7.16
280.367	9.57
280.583	17.9
280.799	38.21
281.016	19.82
281.232	39.06
281.448	35.86
281.664	25.55
281.88	14.32
282.096	23.76
282.312	-13.63
282.528	8.57
282.744	5.26
282.96	8.6
283.176	-13.24
283.392	0.46
283.608	-18.59
283.824	-10.11
284.04	-11.24
284.256	2.24
284.471	-0.84
284.687	0.89
284.903	5.47
285.119	11.97
285.335	15.17
285.551	7.94
285.767	6.72
285.982	-5.29
286.198	2.78
286.414	0.58
286.63	11.61
286.846	5.18
287.061	5.72
287.277	-14.95
287.493	-6.53
287.709	-18.08
287.924	1.27
288.14	18.5
288.356	30.72
288.571	33.88
288.787	45.74
289.003	45.16
289.218	29.16
289.434	27.25
289.65	34.33
289.865	32.18
290.081	27.62
290.296	31.13
290.512	20.34
290.727	14.08
290.943	12.11
291.159	5.51
291.374	10.86
291.59	25.93
291.805	24.39
292.021	34.48
292.236	35.49
292.451	35.96
292.667	34.1
292.882	24.12
293.098	11.4
293.313	18.92
293.529	12.7
293.744	6.74
293.959	8.15
294.175	21.95
294.39	-8.72
294.605	-6.63
294.821	1.55
295.036	0.04
295.251	-34.99
295.467	-44.12
295.682	-44.54
295.897	-43.31
296.112	-44.71
296.328	-32.67
296.543	-4.67
296.758	-11.26
296.973	-13
297.188	5.52
297.404	11.89
297.619	9.28
297.834	19.39
298.049	38.82
298.264	27.08
298.479	24.99
298.694	32.44
298.909	42.83
299.125	18.54
299.34	12.74
299.555	27.98
299.77	22.44
299.985	22.6
300.2	20.49
300.415	27.25
300.63	21.19
300.845	10.11
301.06	11.26
301.275	24.76
301.49	27.07
301.704	29.44
301.919	34.35
302.134	23.89
302.349	18.31
302.564	9.64
302.779	8.34
302.994	-0.13
303.209	-9.84
303.423	-10.23
303.638	0.84
303.853	6.56
304.068	11.2
304.283	26.65
304.497	21.29
304.712	10.93
304.927	-0.12
305.142	-7.41
305.356	-14.75
305.571	-0.91
305.786	-3.81
306	0.19
306.215	-5.66
306.43	14.44
306.644	15.89
306.859	35.58
307.074	31.29
307.288	43.02
307.503	27.55
307.717	21.4
307.932	13.74
308.147	18.96
308.361	30.74
308.576	33.08
308.79	37.85
309.005	9.53
309.219	12.43
309.434	-11.68
309.648	4.02
309.863	-8.72
310.077	11.88
310.292	1.85
310.506	3.83
310.72	-5.68
310.935	12.48
311.149	4.81
311.364	15.18
311.578	25.25
311.792	24.99
312.007	11.6
312.221	22.43
312.435	10.22
312.649	6.82
312.864	-13.03
313.078	-4.99
313.292	-3.7
313.507	0.47
313.721	-4.7
313.935	11.22
314.149	11.39
314.363	2.24
314.578	1.32
314.792	1.66
315.006	-3.57
315.22	-33.99
315.434	-21.17
315.648	-9.62
315.862	-6.41
316.077	8.63
316.291	45.25
316.505	23.19
316.719	31.41
316.933	20.1
317.147	5.39
317.361	-4.15
317.575	10.34
317.789	-6.67
318.003	-9.92
318.217	6.5
318.431	19.23
318.645	18.22
318.859	6.93
319.073	5.73
319.287	-0.99
319.5	-21.09
319.714	-25.16
319.928	-11.36
320.142	-10.59
320.356	7.69
320.57	21.8
320.784	24.04
320.997	25.75
321.211	29.9
321.425	22.07
321.639	28.46
321.853	24.78
322.066	26.08
322.28	33.57
322.494	41.19
322.707	36.91
322.921	28.31
323.135	20.87
323.349	8.14
323.562	-12.75
323.776	-12.82
323.989	16.71
324.203	21.35
324.417	27.31
324.63	34.73
324.844	38.03
325.057	33.54
325.271	38.04
325.485	18.67
325.698	17.95
325.912	15.81
326.125	5.9
326.339	-3.31
326.552	9.64
326.766	15.29
326.979	23.74
327.193	25.37
327.406	33.5
327.619	28.13
327.833	4.98
328.046	-15.83
328.26	-28.08
328.473	-14.88
328.686	-22.57
328.9	3.55
329.113	8.63
329.326	23.81
329.54	0.96
329.753	6.97
329.966	-1.98
330.179	3.31
330.393	9.43
330.606	16.2
330.819	17.81
331.032	29.09
331.246	40.26
331.459	36.45
331.672	30.47
331.885	35.68
332.098	30.96
332.311	22.39
332.525	24.95
332.738	35.04
332.951	31.33
333.164	44.26
333.377	46.79
333.59	38.41
333.803	35.83
334.016	26.76
334.229	-0.99
334.442	-13.76
334.655	-16.82
334.868	-27.51
335.081	-22.83
335.294	3.93
335.507	10.85
335.72	14.1
335.933	17.04
336.146	27.36
336.359	8.83
336.572	7.59
336.785	14.57
336.997	15.34
337.21	13.35
337.423	42.89
337.636	22.07
337.849	19.18
338.062	28.29
338.274	38.11
338.487	32.78
338.7	30.7
338.913	22.06
339.125	6.91
339.338	-13.22
339.551	-28.73
339.763	1.71
339.976	6.84
340.189	9.41
340.402	25.63
340.614	18.96
340.827	12.52
341.039	22.05
341.252	14.81
341.465	-4.2
341.677	0.76
341.89	-23.22
342.102	-19.43
342.315	11.22
342.527	27.22
342.74	17.61
342.952	27.63
343.165	14.01
343.377	20.47
343.59	18.53
343.802	29.91
344.015	26.58
344.227	37.42
344.44	16.49
344.652	13.86
344.864	7.35
345.077	-1.79
345.289	9.55
345.502	10.87
345.714	-5.28
345.926	-5.87
346.139	13.14
346.351	-3.9
346.563	18.02
346.775	22.43
346.988	23.14
347.2	14.13
347.412	9.11
347.624	1.77
347.837	2.4
348.049	-20.91
348.261	-8.24
348.473	-40.07
348.685	-28.01
348.897	-17.24
349.11	4.55
349.322	6.94
349.534	21.79
349.746	6.43
349.958	2.5
350.17	1.75
350.382	-5.76
350.594	-5.55
350.806	12.58
351.018	24.02
351.23	21.2
351.442	26.91
351.654	21.06
351.866	23.85
352.078	11.18
352.29	13.96
352.502	4.6
352.714	6.94
352.926	8.74
353.138	-2.1
353.35	-9.94
353.561	-8.9
353.773	-10.37
353.985	-6.19
354.197	5.63
354.409	18.17
354.621	27.22
354.832	17.69
355.044	14.07
355.256	21.82
355.468	9.63
355.679	3.65
355.891	14.76
356.103	10.11
356.314	9.92
356.526	20.42
356.738	13.74
356.949	12.79
357.161	25.18
357.373	19.81
357.584	13.73
357.796	16.72
358.008	25.47
358.219	15.8
358.431	17
358.642	17.57
358.854	15.48
359.065	1.66
359.277	-6.1
359.488	15.56
359.7	20.19
359.911	38.16
360.123	41.69
360.334	40.23
360.546	52.81
360.757	51.74
360.969	43.74
361.18	44.34
361.391	49.62
361.603	24.77
361.814	14.73
362.025	15.31
362.237	9.75
362.448	5.75
362.659	-4.78
362.871	1.7
363.082	-11.02
363.293	-17.51
363.504	-22.43
363.716	-1.21
363.927	-1.74
364.138	12.27
364.349	17.1
364.56	9.75
364.772	9.69
364.983	12.49
365.194	6.1
365.405	-13.72
365.616	13.61
365.827	-0.37
366.038	-11.7
366.25	-12.82
366.461	10.57
366.672	0.55
366.883	-5.97
367.094	8.64
367.305	10.87
367.516	9.17
367.727	1.59
367.938	16.65
368.149	8.78
368.36	7.53
368.571	17.47
368.781	13.69
368.992	11.26
369.203	16.81
369.414	13.86
369.625	-15.94
369.836	-11.7
370.047	-10.06
370.258	-6.42
370.468	-3.92
370.679	11.71
370.89	9.05
371.101	14.2
371.312	5.03
371.522	-0.91
371.733	5.79
371.944	14.13
372.155	15.37
372.365	16.43
372.576	22.58
372.787	10.96
372.997	12.92
373.208	1.99
373.419	-1.03
373.629	-6.85
373.84	-10.34
374.05	-22.7
374.261	-3.62
374.472	1.99
374.682	10.41
374.893	12.25
375.103	11.51
375.314	6.91
375.524	14.06
375.735	7.4
375.945	1.18
376.156	6.24
376.366	2.84
376.577	-20.96
376.787	-20.45
376.997	2.43
377.208	1.29
377.418	-2.53
377.629	8.36
377.839	2.07
378.049	4.43
378.26	10.82
378.47	16.74
378.68	17.15
378.89	26.16
379.101	-7.61
379.311	-10.49
379.521	-11.56
379.732	-13.47
379.942	6.9
380.152	14.9
380.362	7.05
380.572	6.99
380.783	14.7
380.993	13.06
381.203	16.07
381.413	10.04
381.623	20.56
381.833	15.3
382.043	10.21
382.253	10.81
382.463	26.27
382.674	26.04
382.884	21.75
383.094	12.36
383.304	5.74
383.514	1.97
383.724	-6.05
383.934	-5.22
384.144	0.92
384.353	9.21
384.563	3.09
384.773	11.43
384.983	10.56
385.193	13.38
385.403	11.84
385.613	14.06
385.823	3.14
386.033	9.68
386.242	-1.76
386.452	-2.53
386.662	-1.1
386.872	1.43
387.082	-7.7
387.291	2.69
387.501	5.17
387.711	4.99
387.921	9.47
388.13	15.98
388.34	8.32
388.55	7.33
388.759	0.88
388.969	-0.7
389.179	-2.57
389.388	-2.35
389.598	-4.28
389.807	5.62
390.017	0.74
390.227	-4.05
390.436	3.78
390.646	6.46
390.855	3.58
391.065	4.18
391.274	7.04
391.484	5.84
391.693	5.78
391.903	7.46
392.112	8.18
392.322	5.25
392.531	4.83
392.74	2.9
392.95	0.06
393.159	-0.63
393.369	2.74
393.578	1.8
393.787	2.59
393.997	3.73
394.206	4.77
394.415	3.94
394.625	3.96
394.834	4
395.043	4.06
395.252	4.91
395.462	4.41
395.671	3.87
395.88	3.81
396.089	2.32
396.298	1.81
396.508	3.16
396.717	3.6
396.926	4.25
397.135	4.23
397.344	4.31
397.553	4.34
397.762	5.07
397.971	4.85
398.181	4.91
398.39	4.66
398.599	3.82
398.808	2.76
399.017	2.87
399.226	3.91
399.435	3.48
399.644	3.95
399.853	4.35
400.062	4.32
400.27	4.11
400.479	4.54
400.688	4.41
400.897	4.64
401.106	4.64
401.315	4.44
401.524	4.51
401.733	4.29
401.941	3.74
402.15	3.42
402.359	3.38
402.568	3.64
402.777	3.64
402.985	3.56
403.194	3.8
403.403	3.99
403.612	3.67
403.82	3.48
404.029	3.73
404.238	3.89
404.446	3.87
404.655	3.62
404.864	3.9
405.072	3.77
405.281	3.77
405.489	3.66
405.698	3.95
405.906	3.91
406.115	4.21
406.324	4.07
406.532	4
406.741	3.98
406.949	4.1
407.158	3.99
407.366	3.88
407.574	3.79
407.783	3.84
407.991	3.71
408.2	3.73
408.408	3.76
408.617	3.85
408.825	3.71
409.033	3.98
409.242	3.92
409.45	3.91
409.658	3.89
409.867	3.93
410.075	3.73
410.283	3.67
410.491	3.7
410.7	3.89
410.908	3.87
411.116	3.91
411.324	3.93
411.533	3.97
411.741	3.82
411.949	4.04
412.157	3.86
412.365	3.99
412.573	3.98
412.781	3.96
412.99	3.75
413.198	3.87
413.406	3.7
413.614	3.74
413.822	3.8
414.03	3.8
414.238	3.65
414.446	3.71
414.654	3.7
414.862	3.58
415.07	3.6
415.278	3.7
415.486	3.63
415.694	3.48
415.902	3.46
416.109	3.31
416.317	3.15
416.525	3.25
416.733	3.15
416.941	3.26
417.149	3.38
417.357	3.59
417.564	3.46
417.772	3.62
417.98	3.6
418.188	3.53
418.395	3.47
418.603	3.58
418.811	3.54
419.019	3.39
419.226	3.55
419.434	3.5
419.642	3.17
419.849	3.08
420.057	3.09
420.265	3.12
420.472	3.18
420.68	3.4
420.887	3.47
421.095	3.6
421.302	3.29
421.51	3.16
421.717	3.05
421.925	3.19
422.132	3.04
422.34	3.1
422.547	3.1
422.755	3.34
422.962	3.21
423.17	3.24
423.377	3.27
423.585	3.3
423.792	2.93
423.999	2.87
424.207	2.83
424.414	2.85
424.621	2.74
424.829	2.75
425.036	2.74
425.243	2.82
425.451	2.8
425.658	2.79
425.865	2.95
426.072	3
426.28	3.18
426.487	3.26
426.694	3.27
426.901	3.2
427.108	3.18
427.315	2.95
427.523	2.94
427.73	3.05
427.937	3.08
428.144	2.95
428.351	3.04
428.558	3.03
428.765	2.93
428.972	2.93
429.179	2.85
429.386	2.76
429.593	2.8
429.8	2.82
430.007	2.89
430.214	3.13
430.421	3.14
430.628	3.18
430.835	3.19
431.042	3.1
431.249	3.28
431.456	3.37
431.662	3.35
431.869	3.43
432.076	3.68
432.283	3.53
432.49	3.48
432.697	3.3
432.903	3.25
433.11	3.04
433.317	3.02
433.524	3.12
433.73	3.23
433.937	3.26
434.144	3.26
434.35	3.14
434.557	3.18
434.764	3.06
434.97	2.97
435.177	2.99
435.384	3.08
435.59	3.05
435.797	3.17
436.003	3.33
436.21	3.41
436.416	3.3
436.623	3.21
436.829	3.24
437.036	3.2
437.242	3.19
437.449	3.47
437.655	3.52
437.862	3.53
438.068	3.55
438.275	3.47
438.481	3.32
438.687	3.24
438.894	3.14
439.1	3.1
439.307	3.24
439.513	3.36
439.719	3.43
439.926	3.55
440.132	3.58
440.338	3.51
440.544	3.46
440.751	3.42
440.957	3.27
441.163	3.29
441.369	3.39
441.575	3.43
441.782	3.48
441.988	3.58
442.194	3.53
442.4	3.44
442.606	3.34
442.812	3.33
443.018	3.32
443.224	3.29
443.431	3.36
443.637	3.39
443.843	3.47
444.049	3.46
444.255	3.54
444.461	3.49
444.667	3.55
444.873	3.55
445.079	3.61
445.284	3.58
445.49	3.65
445.696	3.66
445.902	3.58
446.108	3.68
446.314	3.76
446.52	3.7
446.726	3.66
446.931	3.78
447.137	3.69
447.343	3.66
447.549	3.69
447.755	3.66
447.96	3.64
448.166	3.59
448.372	3.61
448.578	3.6
448.783	3.69
448.989	3.61
449.195	3.64
449.4	3.66
449.606	3.61
449.812	3.56
450.017	3.51
450.223	3.51
450.428	3.52
450.634	3.56
450.84	3.6
451.045	3.65
451.251	3.63
451.456	3.55
451.662	3.53
451.867	3.63
452.073	3.76
452.278	3.77
452.483	3.86
452.689	3.89
452.894	3.83
453.1	3.72
453.305	3.8
453.51	3.76
453.716	3.75
453.921	3.76
454.127	3.82
454.332	3.78
454.537	3.79
454.742	3.84
454.948	3.77
455.153	3.8
455.358	3.88
455.563	3.91
455.769	3.86
455.974	3.94
456.179	3.88
456.384	3.7
456.589	3.59
456.795	3.57
457	3.5
457.205	3.54
457.41	3.66
457.615	3.79
457.82	3.79
458.025	3.73
458.23	3.69
458.435	3.69
458.64	3.64
458.845	3.77
459.05	3.83
459.255	3.87
459.46	3.89
459.665	3.96
459.87	3.84
460.075	3.83
460.28	3.82
460.485	3.78
460.69	3.83
460.895	3.78
461.099	3.87
461.304	3.86
461.509	3.88
461.714	3.74
461.919	3.88
462.123	3.91
462.328	3.9
462.533	3.96
462.738	4.01
462.942	3.97
463.147	3.95
463.352	4.02
463.556	3.89
463.761	3.86
463.966	3.84
464.17	3.86
464.375	3.8
464.58	3.92
464.784	3.97
464.989	3.95
465.193	3.95
465.398	4.06
465.602	4.06
465.807	4.06
466.011	4.14
466.216	4.06
466.42	3.96
466.625	4.01
466.829	3.98
467.034	4.02
467.238	4.15
467.443	4.15
467.647	4.06
467.851	4.02
468.056	4
468.26	3.97
468.464	4.02
468.669	4.07
468.873	4.16
469.077	4.12
469.282	4.1
469.486	4.12
469.69	4.22
469.894	4.18
470.099	4.22
470.303	4.25
470.507	4.33
470.711	4.26
470.915	4.3
471.119	4.35
471.324	4.37
471.528	4.35
471.732	4.35
471.936	4.32
472.14	4.41
472.344	4.45
472.548	4.46
472.752	4.58
472.956	4.66
473.16	4.65
473.364	4.63
473.568	4.64
473.772	4.57
473.976	4.66
474.18	4.59
474.384	4.59
474.588	4.65
474.792	4.7
474.995	4.71
475.199	4.77
475.403	4.88
475.607	4.8
475.811	4.77
476.015	4.66
476.218	4.74
476.422	4.66
476.626	4.7
476.83	4.7
477.033	4.76
477.237	4.78
477.441	4.81
477.644	4.88
477.848	4.91
478.052	4.92
478.255	4.92
478.459	4.93
478.663	4.93
478.866	4.99
479.07	5.04
479.273	5.03
479.477	5.12
479.681	5.13
479.884	5.05
480.088	5.07
480.291	5.04
480.495	4.98
480.698	4.99
480.901	5.15
481.105	5.18
481.308	5.17
481.512	5.2
481.715	5.21
481.919	5.2
482.122	5.22
482.325	5.27
482.529	5.23
482.732	5.2
482.935	5.14
483.138	5.06
483.342	5.02
483.545	5.1
483.748	5.12
483.952	5.22
484.155	5.25
484.358	5.35
484.561	5.33
484.764	5.36
484.967	5.37
485.171	5.42
485.374	5.43
485.577	5.38
485.78	5.34
485.983	5.34
486.186	5.32
486.389	5.25
486.592	5.33
486.795	5.39
486.998	5.34
487.201	5.35
487.404	5.4
487.607	5.36
487.81	5.45
488.013	5.53
488.216	5.46
488.419	5.37
488.622	5.4
488.825	5.33
489.028	5.33
489.231	5.44
489.433	5.46
489.636	5.45
489.839	5.43
490.042	5.38
490.245	5.38
490.447	5.39
490.65	5.42
490.853	5.46
491.056	5.45
491.258	5.44
491.461	5.47
491.664	5.45
491.866	5.46
492.069	5.44
492.272	5.45
492.474	5.43
492.677	5.47
492.879	5.48
493.082	5.5
493.285	5.52
493.487	5.6
493.69	5.59
493.892	5.58
494.095	5.6
494.297	5.56
494.5	5.55
494.702	5.57
494.905	5.6
495.107	5.62
495.309	5.76
495.512	5.79
495.714	5.8
495.917	5.78
496.119	5.78
496.321	5.68
496.524	5.75
496.726	5.76
496.928	5.78
497.13	5.81
497.333	5.92
497.535	5.89
497.737	5.89
497.939	5.93
498.142	6
498.344	5.93
498.546	5.93
498.748	5.98
498.95	6.04
499.152	5.99
499.355	6
499.557	5.99
499.759	6.01
499.961	6.01
500.163	6.09
500.365	6.11
500.567	6.12
500.769	6.12
500.971	6.13
501.173	6.15
501.375	6.22
501.577	6.29
501.779	6.35
501.981	6.37
502.183	6.39
502.385	6.34
502.587	6.42
502.788	6.45
502.99	6.47
503.192	6.48
503.394	6.52
503.596	6.49
503.798	6.48
503.999	6.58
504.201	6.62
504.403	6.7
504.605	6.72
504.806	6.77
505.008	6.71
505.21	6.7
505.411	6.66
505.613	6.68
505.815	6.74
506.016	6.83
506.218	6.9
506.42	6.95
506.621	7.02
506.823	6.94
507.024	6.9
507.226	6.94
507.427	6.99
507.629	7.05
507.83	7.14
508.032	7.24
508.233	7.3
508.435	7.35
508.636	7.34
508.838	7.35
509.039	7.37
509.24	7.35
509.442	7.36
509.643	7.42
509.845	7.42
510.046	7.41
510.247	7.48
510.448	7.49
510.65	7.5
510.851	7.56
511.052	7.62
511.254	7.67
511.455	7.76
511.656	7.77
511.857	7.81
512.058	7.79
512.26	7.82
512.461	7.8
512.662	7.77
512.863	7.81
513.064	7.87
513.265	7.87
513.466	7.89
513.667	7.97
513.868	7.99
514.069	8.04
514.27	8.01
514.471	8.02
514.672	8.02
514.873	8.02
515.074	7.99
515.275	8
515.476	8
515.677	7.99
515.878	7.98
516.079	8.04
516.28	8.1
516.481	8.23
516.682	8.35
516.882	8.39
517.083	8.38
517.284	8.4
517.485	8.35
517.686	8.3
517.886	8.34
518.087	8.39
518.288	8.43
518.488	8.45
518.689	8.51
518.89	8.54
519.091	8.59
519.291	8.63
519.492	8.65
519.692	8.69
519.893	8.71
520.094	8.64
520.294	8.62
520.495	8.69
520.695	8.67
520.896	8.66
521.096	8.7
521.297	8.71
521.497	8.69
521.698	8.69
521.898	8.73
522.099	8.78
522.299	8.87
522.499	8.82
522.7	8.89
522.9	8.86
523.101	8.87
523.301	8.86
523.501	8.9
523.702	8.9
523.902	8.96
524.102	8.98
524.302	8.99
524.503	9.07
524.703	9.12
524.903	9.13
525.103	9.17
525.304	9.13
525.504	9.14
525.704	9.15
525.904	9.18
526.104	9.18
526.304	9.28
526.504	9.26
526.705	9.3
526.905	9.28
527.105	9.29
527.305	9.27
527.505	9.24
527.705	9.24
527.905	9.29
528.105	9.3
528.305	9.28
528.505	9.4
528.705	9.43
528.905	9.46
529.105	9.54
529.304	9.59
529.504	9.65
529.704	9.64
529.904	9.72
530.104	9.73
530.304	9.74
530.503	9.74
530.703	9.71
530.903	9.66
531.103	9.68
531.303	9.74
531.502	9.76
531.702	9.77
531.902	9.8
532.101	9.8
532.301	9.77
532.501	9.77
532.7	9.87
532.9	9.9
533.1	9.95
533.299	10
533.499	10.04
533.698	10.01
533.898	9.99
534.097	10
534.297	10.02
534.496	10.03
534.696	10.12
534.895	10.15
535.095	10.23
535.294	10.28
535.494	10.29
535.693	10.29
535.892	10.32
536.092	10.3
536.291	10.36
536.491	10.44
536.69	10.48
536.889	10.56
537.088	10.62
537.288	10.58
537.487	10.59
537.686	10.59
537.886	10.65
538.085	10.66
538.284	10.72
538.483	10.74
538.682	10.87
538.882	10.84
539.081	10.87
539.28	10.89
539.479	10.91
539.678	10.9
539.877	10.93
540.076	10.99
540.275	11.08
540.474	11.13
540.673	11.19
540.872	11.19
541.071	11.25
541.27	11.29
541.469	11.36
541.668	11.36
541.867	11.47
542.066	11.48
542.265	11.47
542.464	11.5
542.663	11.54
542.862	11.61
543.06	11.7
543.259	11.79
543.458	11.86
543.657	11.9
543.856	11.96
544.054	12.01
544.253	12.04
544.452	12.07
544.651	12.11
544.849	12.13
545.048	12.16
545.247	12.19
545.445	12.22
545.644	12.32
545.843	12.41
546.041	12.48
546.24	12.55
546.438	12.61
546.637	12.66
546.836	12.68
547.034	12.75
547.233	12.86
547.431	13.01
547.63	13.01
547.828	13.12
548.027	13.13
548.225	13.18
548.423	13.15
548.622	13.24
548.82	13.28
549.019	13.4
549.217	13.45
549.415	13.51
549.614	13.65
549.812	13.65
550.01	13.66
550.209	13.72
550.407	13.86
550.605	13.84
550.803	13.97
551.002	14
551.2	14.05
551.398	14.18
551.596	14.33
551.794	14.44
551.993	14.62
552.191	14.78
552.389	14.82
552.587	14.87
552.785	14.9
552.983	14.97
553.181	15.02
553.379	15.09
553.577	15.22
553.775	15.32
553.973	15.37
554.171	15.49
554.369	15.56
554.567	15.63
554.765	15.74
554.963	15.89
555.161	15.96
555.359	16.13
555.557	16.16
555.755	16.36
555.952	16.49
556.15	16.63
556.348	16.67
556.546	16.88
556.744	16.95
556.941	17.04
557.139	17.1
557.337	17.27
557.535	17.3
557.732	17.37
557.93	17.38
558.128	17.46
558.325	17.5
558.523	17.63
558.721	17.69
558.918	17.91
559.116	18.06
559.313	18.18
559.511	18.35
559.708	18.53
559.906	18.59
560.104	18.64
560.301	18.74
560.498	18.76
560.696	18.77
560.893	18.97
561.091	19.05
561.288	19.19
561.486	19.38
561.683	19.54
561.88	19.6
562.078	19.83
562.275	19.97
562.473	19.99
562.67	20.18
562.867	20.28
563.064	20.36
563.262	20.4
563.459	20.6
563.656	20.71
563.853	20.8
564.051	20.92
564.248	21.09
564.445	21.15
564.642	21.24
564.839	21.34
565.036	21.56
565.234	21.64
565.431	21.8
565.628	21.96
565.825	22.12
566.022	22.06
566.219	22.16
566.416	22.29
566.613	22.32
566.81	22.5
567.007	22.64
567.204	22.79
567.401	22.8
567.598	22.94
567.795	22.97
567.991	23.12
568.188	23.21
568.385	23.37
568.582	23.46
568.779	23.55
568.976	23.56
569.172	23.62
569.369	23.74
569.566	23.8
569.763	23.84
569.96	23.95
570.156	23.99
570.353	23.92
570.55	24
570.746	24.02
570.943	24.04
571.14	24.14
571.336	24.27
571.533	24.26
571.729	24.37
571.926	24.5
572.123	24.52
572.319	24.47
572.516	24.63
572.712	24.66
572.909	24.62
573.105	24.72
573.302	24.84
573.498	24.73
573.695	24.76
573.891	24.83
574.087	24.75
574.284	24.81
574.48	24.89
574.677	24.97
574.873	25.11
575.069	25.23
575.266	25.24
575.462	25.34
575.658	25.32
575.854	25.29
576.051	25.21
576.247	25.24
576.443	25.26
576.639	25.26
576.835	25.27
577.032	25.26
577.228	25.25
577.424	25.21
577.62	25.24
577.816	25.19
578.012	25.27
578.208	25.26
578.404	25.39
578.6	25.36
578.796	25.33
578.993	25.31
579.189	25.25
579.384	25.12
579.58	25.14
579.776	25.23
579.972	25.31
580.168	25.29
580.364	25.25
580.56	25.2
580.756	25.08
580.952	24.99
581.148	25
581.343	25.06
581.539	25.08
581.735	25.12
581.931	25.2
582.127	25.2
582.322	25.14
582.518	25.09
582.714	25.11
582.909	25.02
583.105	25.02
583.301	25.01
583.496	25.04
583.692	24.96
583.888	25
584.083	25.03
584.279	25.03
584.474	25
584.67	25.07
584.866	24.96
585.061	24.82
585.257	24.89
585.452	24.94
585.648	24.85
585.843	24.89
586.039	25.01
586.234	24.92
586.429	24.85
586.625	24.9
586.82	24.89
587.015	24.79
587.211	24.73
587.406	24.78
587.601	24.79
587.797	24.86
587.992	24.92
588.187	24.9
588.383	24.89
588.578	24.92
588.773	24.81
588.968	24.84
589.163	24.93
589.359	24.92
589.554	24.8
589.749	24.87
589.944	24.86
590.139	24.88
590.334	25.04
590.529	25.11
590.724	25.17
590.919	25.2
591.114	25.35
591.309	25.3
591.504	25.39
591.699	25.38
591.894	25.47
592.089	25.4
592.284	25.37
592.479	25.49
592.674	25.54
592.869	25.56
593.064	25.62
593.259	25.69
593.454	25.65
593.648	25.72
593.843	25.8
594.038	25.81
594.233	25.86
594.428	25.98
594.622	26.11
594.817	26.19
595.012	26.16
595.206	26.21
595.401	26.19
595.596	26.22
595.79	26.2
595.985	26.35
596.18	26.42
596.374	26.53
596.569	26.62
596.763	26.72
596.958	26.92
597.153	27.04
597.347	27.13
597.542	27.22
597.736	27.28
597.931	27.24
598.125	27.34
598.319	27.41
598.514	27.38
598.708	27.42
598.903	27.47
599.097	27.48
599.291	27.52
599.486	27.54
599.68	27.65
599.874	27.66
600.069	27.81
600.263	27.82
600.457	27.93
600.651	27.95
600.846	28.06
601.04	27.96
601.234	28
601.428	28.03
601.622	28.01
601.817	28.08
602.011	28.12
602.205	28.23
602.399	28.24
602.593	28.35
602.787	28.21
602.981	28.22
603.175	28.21
603.369	28.23
603.563	28.21
603.757	28.34
603.951	28.35
604.145	28.19
604.339	28.2
604.533	28.17
604.727	28.12
604.921	28.07
605.115	28.18
605.309	28.05
605.502	28.14
605.696	28.18
605.89	28.16
606.084	28.09
606.278	28.08
606.471	27.94
606.665	27.85
606.859	27.86
607.053	27.8
607.246	27.84
607.44	27.68
607.634	27.62
607.827	27.56
608.021	27.34
608.214	27.24
608.408	27.35
608.602	27.32
608.795	27.25
608.989	27.34
609.182	27.3
609.376	27.22
609.569	27.13
609.763	26.9
609.956	26.76
610.15	26.67
610.343	26.53
610.537	26.42
610.73	26.44
610.923	26.46
611.117	26.4
611.31	26.35
611.504	26.33
611.697	26.3
611.89	26.15
612.083	26.04
612.277	25.9
612.47	25.81
612.663	25.72
612.856	25.6
613.05	25.47
613.243	25.47
613.436	25.28
613.629	25.21
613.822	25.2
614.015	25.17
614.209	25.04
614.402	25.07
614.595	25
614.788	24.97
614.981	24.85
615.174	24.85
615.367	24.78
615.56	24.76
615.753	24.63
615.946	24.66
616.139	24.48
616.332	24.43
616.525	24.33
616.718	24.25
616.911	24.15
617.103	24.09
617.296	24
617.489	23.94
617.682	23.91
617.875	23.86
618.067	23.85
618.26	23.84
618.453	23.75
618.646	23.69
618.838	23.6
619.031	23.51
619.224	23.52
619.417	23.58
619.609	23.63
619.802	23.63
619.994	23.68
620.187	23.56
620.38	23.45
620.572	23.39
620.765	23.33
620.957	23.24
621.15	23.19
621.342	23.2
621.535	23.05
621.727	23.08
621.92	23.1
622.112	23.09
622.305	23.04
622.497	23.07
622.69	22.96
622.882	22.93
623.074	22.89
623.267	22.8
623.459	22.76
623.651	22.77
623.844	22.75
624.036	22.77
624.228	22.76
624.42	22.79
624.613	22.83
624.805	22.76
624.997	22.65
625.189	22.64
625.381	22.59
625.574	22.46
625.766	22.41
625.958	22.4
626.15	22.34
626.342	22.33
626.534	22.31
626.726	22.36
626.918	22.38
627.11	22.35
627.302	22.28
627.494	22.21
627.686	22.07
627.878	22.04
628.07	22.01
628.262	21.98
628.454	21.95
628.646	21.94
628.838	21.87
629.029	21.79
629.221	21.81
629.413	21.82
629.605	21.74
629.797	21.64
629.989	21.56
630.18	21.41
630.372	21.35
630.564	21.33
630.755	21.29
630.947	21.35
631.139	21.28
631.33	21.23
631.522	21.27
631.714	21.2
631.905	21.11
632.097	21.21
632.289	21.18
632.48	21.06
632.672	20.97
632.863	20.94
633.055	20.87
633.246	20.78
633.438	20.79
633.629	20.91
633.821	20.88
634.012	20.87
634.203	20.93
634.395	20.91
634.586	20.87
634.777	20.86
634.969	20.75
635.16	20.76
635.351	20.65
635.543	20.63
635.734	20.56
635.925	20.6
636.117	20.56
636.308	20.65
636.499	20.6
636.69	20.6
636.881	20.57
637.073	20.55
637.264	20.51
637.455	20.45
637.646	20.4
637.837	20.27
638.028	20.19
638.219	20.16
638.41	20.18
638.601	20.15
638.792	20.13
638.983	20.14
639.174	20.09
639.365	20.02
639.556	20.03
639.747	19.96
639.938	19.95
640.129	19.92
640.32	19.87
640.511	19.88
640.701	19.93
640.892	19.81
641.083	19.71
641.274	19.69
641.465	19.59
641.655	19.62
641.846	19.56
642.037	19.58
642.228	19.55
642.418	19.56
642.609	19.48
642.8	19.46
642.99	19.36
643.181	19.39
643.372	19.37
643.562	19.33
643.753	19.24
643.943	19.23
644.134	19.19
644.324	19.04
644.515	18.99
644.705	18.94
644.896	18.96
645.086	18.81
645.277	18.77
645.467	18.85
645.658	18.88
645.848	18.88
646.038	18.87
646.229	18.96
646.419	18.81
646.61	18.8
646.8	18.72
646.99	18.79
647.18	18.67
647.371	18.57
647.561	18.52
647.751	18.48
647.941	18.39
648.132	18.41
648.322	18.49
648.512	18.49
648.702	18.45
648.892	18.45
649.082	18.39
649.272	18.37
649.462	18.38
649.653	18.4
649.843	18.39
650.033	18.38
650.223	18.4
650.413	18.31
650.603	18.27
650.793	18.32
650.983	18.27
651.172	18.19
651.362	18.11
651.552	18.05
651.742	17.88
651.932	17.85
652.122	17.82
652.312	17.83
652.502	17.82
652.691	17.79
652.881	17.71
653.071	17.58
653.261	17.49
653.45	17.39
653.64	17.33
653.83	17.2
654.019	17.1
654.209	17
654.399	16.82
654.588	16.7
654.778	16.65
654.968	16.58
655.157	16.4
655.347	16.35
655.536	16.16
655.726	16.04
655.915	15.88
656.105	15.76
656.294	15.59
656.484	15.49
656.673	15.39
656.863	15.36
657.052	15.27
657.241	15.09
657.431	14.86
657.62	14.65
657.809	14.38
657.999	14.25
658.188	14.23
658.377	14.19
658.567	13.95
658.756	13.75
658.945	13.57
659.134	13.32
659.324	13.08
659.513	12.92
659.702	12.72
659.891	12.58
660.08	12.47
660.269	12.37
660.458	12.3
660.648	12.15
660.837	11.96
661.026	11.78
661.215	11.64
661.404	11.39
661.593	11.25
661.782	11.06
661.971	10.86
662.16	10.71
662.349	10.52
662.538	10.38
662.726	10.13
662.915	10.03
663.104	9.8
663.293	9.71
663.482	9.58
663.671	9.58
663.86	9.44
664.048	9.37
664.237	9.17
664.426	9.07
664.615	8.94
664.803	8.76
664.992	8.67
665.181	8.71
665.369	8.58
665.558	8.47
665.747	8.52
665.935	8.41
666.124	8.35
666.312	8.3
666.501	8.12
666.69	8.01
666.878	7.94
667.067	7.85
667.255	7.8
667.444	7.87
667.632	7.8
667.82	7.73
668.009	7.68
668.197	7.68
668.386	7.58
668.574	7.55
668.762	7.51
668.951	7.46
669.139	7.36
669.327	7.35
669.516	7.31
669.704	7.32
669.892	7.26
670.08	7.24
670.269	7.21
670.457	7.12
670.645	7.08
670.833	7.04
671.021	7.04
671.21	7.09
671.398	7.15
671.586	7.11
671.774	7.22
671.962	7.24
672.15	7.22
672.338	7.22
672.526	7.32
672.714	7.29
672.902	7.26
673.09	7.28
673.278	7.31
673.466	7.34
673.654	7.42
673.842	7.5
674.03	7.6
674.218	7.72
674.405	7.83
674.593	7.8
674.781	7.83
674.969	7.85
675.157	7.8
675.344	7.75
675.532	7.91
675.72	8.05
675.908	8.08
676.095	8.21
676.283	8.23
676.471	8.26
676.658	8.28
676.846	8.39
677.033	8.46
677.221	8.63
677.409	8.62
677.596	8.69
677.784	8.74
677.971	8.82
678.159	8.81
678.346	8.97
678.534	9.13
678.721	9.29
678.909	9.38
679.096	9.52
679.283	9.59
679.471	9.57
679.658	9.62
679.846	9.63
680.033	9.72
680.22	9.87
680.408	9.98
680.595	10.09
680.782	10.23
680.969	10.29
681.157	10.34
681.344	10.46
681.531	10.59
681.718	10.8
681.905	10.99
682.093	11.2
682.28	11.43
682.467	11.65
682.654	11.79
682.841	12
683.028	12.18
683.215	12.38
683.402	12.44
683.589	12.61
683.776	12.89
683.963	13.16
684.15	13.45
684.337	13.78
684.524	14.15
684.711	14.28
684.898	14.38
685.085	14.47
685.271	14.73
685.458	14.98
685.645	15.29
685.832	15.72
686.019	16.07
686.205	16.42
686.392	16.76
686.579	17.13
686.766	17.5
686.952	17.9
687.139	18.41
687.326	18.88
687.512	19.29
687.699	19.68
687.886	20.16
688.072	20.44
688.259	20.63
688.445	21.03
688.632	21.42
688.818	21.8
689.005	22.23
689.191	22.81
689.378	23.35
689.564	23.94
689.751	24.44
689.937	24.87
690.124	25.5
690.31	26.1
690.496	26.56
690.683	27.26
690.869	27.95
691.055	28.49
691.242	29.03
691.428	29.68
691.614	30.25
691.8	31.01
691.987	31.5
692.173	32.17
692.359	32.88
692.545	33.5
692.731	33.93
692.918	34.59
693.104	35.17
693.29	35.67
693.476	36.2
693.662	36.88
693.848	37.59
694.034	38.22
694.22	38.86
694.406	39.51
694.592	40.04
694.778	40.67
694.964	41.17
695.15	41.62
695.336	42.32
695.522	43.07
695.708	43.58
695.894	43.99
696.08	44.64
696.265	45.15
696.451	45.79
696.637	46.27
696.823	47.07
697.009	47.54
697.194	47.95
697.38	48.24
697.566	48.83
697.751	49.3
697.937	50.05
698.123	50.54
698.308	51.06
698.494	51.69
698.68	52.28
698.865	52.72
699.051	53.43
699.236	53.93
699.422	54.39
699.607	54.55
699.793	54.97
699.978	55.01
700.164	55.49
700.349	55.61
700.535	56.25
700.72	56.5
700.906	57.19
701.091	57.6
701.276	58.17
701.462	58.63
701.647	59.29
701.832	59.71
702.018	60.17
702.203	60.5
702.388	60.83
702.573	61.12
702.759	61.55
702.944	61.73
703.129	62.2
703.314	62.43
703.499	62.64
703.684	62.47
703.87	62.89
704.055	63
704.24	62.98
704.425	63.45
704.61	63.95
704.795	64.21
704.98	64.72
705.165	65.41
705.35	65.85
705.535	66.17
705.72	66.62
705.905	66.91
706.09	66.89
706.275	67.02
706.459	67.45
706.644	67.39
706.829	67.65
707.014	68.27
707.199	68.17
707.384	68.19
707.568	68.4
707.753	68.78
707.938	68.61
708.123	68.82
708.307	69.19
708.492	69.66
708.677	69.3
708.861	69.59
709.046	69.93
709.231	70
709.415	69.92
709.6	70.54
709.784	70.77
709.969	70.75
710.153	70.88
710.338	71.07
710.522	70.85
710.707	71.19
710.891	71.36
711.076	71.37
711.26	71.75
711.445	71.96
711.629	72.07
711.813	72.36
711.998	72.77
712.182	72.97
712.366	73.07
712.551	73.28
712.735	73.29
712.919	73.25
713.103	73.08
713.288	73.22
713.472	72.9
713.656	73.27
713.84	73.42
714.024	73.8
714.208	73.93
714.393	74.3
714.577	74.27
714.761	75.02
714.945	75.06
715.129	75.42
715.313	75.75
715.497	75.74
715.681	75.15
715.865	75.25
716.049	75.84
716.233	75.92
716.417	76.47
716.601	76.84
716.785	76.95
716.968	76.75
717.152	76.48
717.336	75.96
717.52	75.84
717.704	75.75
717.888	75.3
718.071	75.6
718.255	75.96
718.439	75.98
718.622	75.84
718.806	76.35
718.99	76.56
719.174	77.07
719.357	77.47
719.541	78.02
719.724	77.76
719.908	77.77
720.092	77.29
720.275	77.1
720.459	77.19
720.642	77.2
720.826	76.7
721.009	76.83
721.193	77.08
721.376	76.85
721.559	76.97
721.743	77.59
721.926	77.68
722.11	77.42
722.293	77.88
722.476	77.89
722.66	78.05
722.843	78.22
723.026	78.08
723.21	77.94
723.393	78.51
723.576	78.38
723.759	78.21
723.942	78.84
724.126	78.47
724.309	77.94
724.492	78.08
724.675	78.75
724.858	78.65
725.041	78.98
725.224	79.82
725.407	80.18
725.59	79.74
725.774	79.82
725.957	79.77
726.14	79.75
726.322	79.49
726.505	79.55
726.688	79.85
726.871	79.98
727.054	79.89
727.237	80.24
727.42	80.82
727.603	80.62
727.786	80.91
727.968	81.01
728.151	80.88
728.334	80.29
728.517	80.2
728.699	79.92
728.882	79.83
729.065	79.67
729.248	80.1
729.43	80.19
729.613	80.17
729.796	80.73
729.978	81.07
730.161	81.07
730.343	81.18
730.526	81.02
730.708	80.36
730.891	80.34
731.073	80.46
731.256	81.09
731.438	81.71
731.621	81.71
731.803	81.4
731.986	81.59
732.168	81.26
732.35	80.87
732.533	81
732.715	81.14
732.898	81.46
733.08	81.58
733.262	82.33
733.444	83.05
733.627	83.73
733.809	83.14
733.991	82.95
734.173	82.5
734.355	82.4
734.538	81.86
734.72	82.26
734.902	82.32
735.084	83.08
735.266	82.74
735.448	83.21
735.63	83.88
735.812	84.24
735.994	84.6
736.176	84.99
736.358	84.89
736.54	84.42
736.722	84.23
736.904	82.86
737.086	82.21
737.268	82.13
737.45	82.04
737.632	82.45
737.814	83.45
737.995	84.12
738.177	84.43
738.359	84.86
738.541	84.11
738.723	84.46
738.904	83.89
739.086	83.62
739.268	83.01
739.449	83.92
739.631	83.31
739.813	83.92
739.994	84.82
740.176	85.48
740.358	85.27
740.539	85.69
740.721	85.66
740.902	85.06
741.084	84.87
741.265	85.43
741.447	85.85
741.628	85.84
741.81	86.56
741.991	86.11
742.172	85.01
742.354	84.59
742.535	84.03
742.717	83.33
742.898	83.72
743.079	84.62
743.261	84.73
743.442	85.34
743.623	85.27
743.804	85.01
743.986	84.34
744.167	84.72
744.348	84
744.529	83.58
744.71	84.27
744.891	84.56
745.073	84.76
745.254	85.09
745.435	85.49
745.616	84.78
745.797	83.88
745.978	82.95
746.159	82.94
746.34	82.65
746.521	82.54
746.702	82.74
746.883	82.28
747.064	82.79
747.245	82.76
747.426	82.51
747.606	82.55
747.787	82.81
747.968	82.5
748.149	82.55
748.33	82.73
748.51	83.05
748.691	84.05
748.872	84.96
749.053	85.73
749.233	85.76
749.414	86.3
749.595	84.97
749.775	83.92
749.956	84.05
750.137	83.06
750.317	82.86
750.498	83.89
750.678	84.14
750.859	82.9
751.04	84.65
751.22	83.76
751.4	84.06
751.581	83.74
751.761	83.01
751.942	82.27
752.122	82.74
752.303	82.05
752.483	82.93
752.663	83.96
752.844	84.01
753.024	84.25
753.204	83.6
753.385	82.69
753.565	82.52
753.745	83.16
753.925	82.64
754.106	83.03
754.286	82.19
754.466	82.25
754.646	81.43
754.826	81.35
755.006	80.62
755.187	81.1
755.367	81.98
755.547	83.18
755.727	83.83
755.907	84.47
756.087	85.65
756.267	84.32
756.447	83.62
756.627	82.76
756.807	82.09
756.987	81.27
757.167	81.59
757.346	81.98
757.526	82.43
757.706	83.29
757.886	81.88
758.066	81.61
758.246	80.58
758.425	81.09
758.605	80.58
758.785	82.05
758.965	82.58
759.144	82.61
759.324	81.43
759.504	81.62
759.683	80.77
759.863	80.64
760.043	79.97
760.222	80.19
760.402	80.09
760.581	80.97
760.761	81.47
760.94	82.64
761.12	83.6
761.299	83.98
761.479	83.28
761.658	82.13
761.838	81.8
762.017	81.22
762.197	81.6
762.376	83.58
762.555	82.99
762.735	82.66
762.914	83.88
763.093	82.51
763.273	80.52
763.452	80.67
763.631	80.46
763.81	79.58
763.99	79.83
764.169	81.6
764.348	82.45
764.527	81.74
764.706	82.32
764.885	81.99
765.064	79.87
765.243	79.66
765.423	80.42
765.602	78.27
765.781	77.74
765.96	77.57
766.139	78.73
766.318	78.72
766.497	78.76
766.676	80.65
766.854	81.34
767.033	81.63
767.212	80.95
767.391	82.08
767.57	80.76
767.749	80.3
767.928	78.48
768.106	79.42
768.285	78.62
768.464	78.94
768.643	78.62
768.821	79.88
769	80.38
769.179	80.51
769.357	79.14
769.536	79.5
769.715	78.42
769.893	78.29
770.072	79.18
770.25	80.13
770.429	79.55
770.607	81.27
770.786	80.23
770.964	79.61
771.143	79.58
771.321	80.76
771.5	79.1
771.678	79.24
771.857	79.63
772.035	79.23
772.213	78.23
772.392	78.44
772.57	77.59
772.748	76.33
772.927	76.05
773.105	76.34
773.283	77.3
773.461	78.36
773.64	79.89
773.818	81.09
773.996	80.85
774.174	79.9
774.352	77.92
774.531	76.92
774.709	76.08
774.887	75.7
775.065	75.36
775.243	77.59
775.421	77.05
775.599	78.39
775.777	79.48
775.955	78.81
776.133	80.01
776.311	80.45
776.489	79.55
776.667	80.17
776.844	80.92
777.022	80.23
777.2	80.41
777.378	79.24
777.556	78.15
777.734	78.73
777.911	77.63
778.089	77.36
778.267	80.25
778.445	80.24
778.622	78.63
778.8	79.58
778.978	80.21
779.155	77.95
779.333	77.02
779.511	77.25
779.688	76.45
779.866	75.75
780.043	74.11
780.221	76.15
780.398	75.76
780.576	75.5
780.753	75.07
780.931	76.94
781.108	73.77
781.286	73.97
781.463	72.54
781.64	74.3
781.818	74.4
781.995	74.02
782.172	74.44
782.35	76.65
782.527	74.93
782.704	74.61
782.882	74.91
783.059	73.42
783.236	72.87
783.413	72.26
783.59	73.37
783.768	78.11
783.945	79.78
784.122	79.41
784.299	78.87
784.476	76.77
784.653	72.79
784.83	69.79
785.007	69.29
785.184	70.47
785.361	72.38
785.538	73.35
785.715	75.29
785.892	78.68
786.069	79.88
786.246	77.45
786.423	76.93
786.6	77.69
786.776	75.05
786.953	73.23
787.13	75.28
787.307	75.98
787.484	74.47
787.66	73.76
787.837	76.1
788.014	75.02
788.191	73.33
788.367	74.51
788.544	73.78
788.721	74.87
788.897	74.68
789.074	75.19
789.25	74.01
789.427	75.14
789.603	72
789.78	70.28
789.956	71.43
790.133	74.07
790.309	71.23
790.486	73.33
790.662	74.81
790.839	70.8
791.015	67.95
791.192	71.62
791.368	69.12
791.544	67.37
791.721	73.66
791.897	75.93
792.073	74.84
792.249	76.21
792.426	74.47
792.602	71.86
792.778	69.19
792.954	68.3
793.13	66.84
793.307	67.92
793.483	66.47
793.659	68.96
793.835	69.06
794.011	70.18
794.187	73.66
794.363	74.29
794.539	75.38
794.715	73.32
794.891	70.63
795.067	70.48
795.243	73.67
795.419	69.74
795.595	71.35
795.771	74.14
795.947	72.34
796.122	68.81
796.298	71.29
796.474	69.59
796.65	67.51
796.826	68.37
797.001	69.21
797.177	66.98
797.353	71.38
797.529	74.98
797.704	73.99
797.88	72.49
798.056	74.18
798.231	73.62
798.407	73.05
798.582	73.56
798.758	74.33
798.934	76.72
799.109	76.2
799.285	69.58
799.46	67.59
799.636	67.6
799.811	66.8
799.986	64.23
800.162	66.39
800.337	69.79
800.513	76.74
800.688	73.92
800.863	75.27
801.039	76.96
801.214	77.8
801.389	72.96
801.565	70.48
801.74	67.92
801.915	65.53
802.09	61.19
802.265	54.49
802.441	57.86
802.616	60.07
802.791	65.45
802.966	68.89
803.141	73.42
803.316	70.36
803.491	69.58
803.666	63.46
803.841	61.2
804.016	60.88
804.191	61.92
804.366	63.02
804.541	71.89
804.716	70.61
804.891	73.02
805.066	72.52
805.241	69.45
805.416	63.26
805.591	66.02
805.765	65.92
805.94	67.15
806.115	68.17
806.29	68.93
806.464	63.21
806.639	59.84
806.814	55.11
806.989	54.72
807.163	50.31
807.338	52.99
807.512	58.66
807.687	64.51
807.862	61.32
808.036	65.53
808.211	68.93
808.385	65.37
808.56	64.97
808.734	65.23
808.909	65.63
809.083	68.08
809.258	64.45
809.432	63.95
809.606	69.2
809.781	72.17
809.955	65.64
810.13	64.97
810.304	62
810.478	60.6
810.652	59.1
810.827	63
811.001	65.84
811.175	65.5
811.349	69.26
811.524	62.94
811.698	64.9
811.872	67.07
812.046	74.04
812.22	68.04
812.394	78.3
812.568	77.28
812.742	79.41
812.916	68.78
813.09	71.53
813.264	64.18
813.438	60.68
813.612	51.57
813.786	57.52
813.96	66.52
814.134	68.79
814.308	69.95
814.482	78.46
814.656	74.11
814.83	60.98
815.003	65.29
815.177	66.42
815.351	59.99
815.525	59.06
815.698	61.68
815.872	55.2
816.046	52.71
816.219	54.27
816.393	59.85
816.567	70.52
816.74	74.69
816.914	78.52
817.088	85.51
817.261	82.9
817.435	71.99
817.608	65.43
817.782	62.13
817.955	50.73
818.129	49.11
818.302	47.33
818.475	57.81
818.649	60.58
818.822	73.84
818.996	79.72
819.169	82.97
819.342	60.25
819.516	58.5
819.689	57.04
819.862	57.81
820.035	56.28
820.209	63.72
820.382	67.9
820.555	65.23
820.728	69.59
820.901	63.31
821.075	68.07
821.248	63.68
821.421	58.63
821.594	57.83
821.767	60.81
821.94	60.06
822.113	56.19
822.286	53.63
822.459	52.92
822.632	65.13
822.805	62.42
822.978	62.02
823.151	73.88
823.324	74.22
823.496	58.98
823.669	54.73
823.842	55.14
824.015	52.05
824.188	52.68
824.361	63.75
824.533	59.08
824.706	60.43
824.879	53.42
825.051	53.87
825.224	53.09
825.397	67.08
825.569	61.65
825.742	70.11
825.915	61.64
826.087	61.31
826.26	54.06
826.432	67.43
826.605	55.27
826.777	65.27
826.95	68.65
827.122	67.11
827.295	59.67
827.467	65.81
827.64	59.44
827.812	51.25
827.984	57.86
828.157	66.72
828.329	58.56
828.501	56.34
828.674	57.51
828.846	56.21
829.018	47.84
829.19	52.51
829.363	49.78
829.535	36.65
829.707	9.35
829.879	16.49
830.051	21.01
830.223	18.84
830.395	32.66
830.568	58.32
830.74	63.81
830.912	55.37
831.084	57.3
831.256	49.18
831.428	48.44
831.6	49.12
831.772	54.5
831.943	69.24
832.115	76.12
832.287	74.4
832.459	68.94
832.631	75.81
832.803	70.05
832.975	56.17
833.146	64.06
833.318	67.99
833.49	59.9
833.662	64.23
833.833	82.36
834.005	80.93
834.177	77.06
834.348	74.88
834.52	56.39
834.692	53.5
834.863	47.77
835.035	50.9
835.206	48.86
835.378	43.92
835.549	49.04
835.721	46.54
835.892	42.94
836.064	48.78
836.235	52.64
836.407	44.52
836.578	52.57
836.749	48.43
836.921	44.55
837.092	57.68
837.264	66.91
837.435	53.91
837.606	58.48
837.777	60.27
837.949	50.47
838.12	37.7
838.291	49.68
838.462	45.67
838.633	52.36
838.805	62.81
838.976	66.47
839.147	50.62
839.318	64.4
839.489	65.74
839.66	50.46
839.831	40.74
840.002	44.83
840.173	22.7
840.344	12.2
840.515	43.51
840.686	64.19
840.857	74.65
841.028	65.34
841.199	75.22
841.369	66.12
841.54	72.01
841.711	75.01
841.882	81.14
842.053	72.98
842.223	71.35
842.394	59.84
842.565	47.95
842.736	17.69
842.906	24.44
843.077	26.62
843.248	18.47
843.418	20.43
843.589	27.62
843.759	0.44
843.93	11.57
844.101	12.15
844.271	10.29
844.442	-4.12
844.612	14.5
844.783	0.98
844.953	-7.65
845.123	-2.46
845.294	33.24
845.464	43.64
845.635	45.4
845.805	61.27
845.975	54.76
846.146	55.11
846.316	64.49
846.486	69.98
846.656	67.75
846.827	69.17
846.997	51.15
847.167	53.53
847.337	59.01
847.507	35.53
847.677	55.19
847.848	87.93
848.018	104.1
848.188	98.6
848.358	101.09
848.528	66.62
848.698	38.05
848.868	6.05
849.038	-12.95
849.208	-8.88
849.378	-26.94
849.548	-22
849.718	15
849.887	36.44
850.057	36.27
850.227	44.75
850.397	42.2
850.567	39.66
850.737	33.49
850.906	35.7
851.076	23.07
851.246	11.73
851.415	-10.73
851.585	14.06
851.755	-6.62
851.924	32.74
852.094	47.38
852.264	52.21
852.433	40.95
852.603	52.26
852.772	47.72
852.942	58.49
853.111	67.72
853.281	72.72
853.45	51.42
853.62	49.19
853.789	27.61
853.959	24.77
854.128	20.68
854.297	9.87
854.467	-6.49
854.636	2.36
854.805	-32.32
854.975	-25.08
855.144	32.69
855.313	44.1
855.482	76.98
855.652	64.51
855.821	24.9
855.99	-3.92
856.159	12.09
856.328	-18.52
856.497	23.81
856.667	34.03
856.836	43.53
857.005	66.88
857.174	50.91
857.343	10.84
857.512	43.41
857.681	60.78
857.85	54.55
858.019	54.91
858.188	59.35
858.356	59.36
858.525	49.3
858.694	40.05
858.863	33.49
859.032	58.31
859.201	38.29
859.369	9.65
859.538	38.76
859.707	46.48
859.876	27.53
860.044	15.64
860.213	17.06
860.382	-12.59
860.55	1.88
860.719	13.97
860.888	-9.16
861.056	46.2
861.225	49.61
861.393	66.4
861.562	57.29
861.73	85.44
861.899	22.16
862.067	32.44
862.236	7.69
862.404	24.71
862.572	34.74
862.741	22.86
862.909	17.64
863.078	22.03
863.246	-5.73
863.414	4.28
863.582	29.54
863.751	40.07
863.919	51.67
864.087	86.04
864.255	85.22
864.424	84.17
864.592	60.5
864.76	-1.42
864.928	-78
865.096	-54.09
865.264	-21.11
865.432	-9.59
865.6	24.97
865.768	72.47
865.936	38.81
866.104	26.08
866.272	21.89
866.44	24.51
866.608	33.8
866.776	28.94
866.944	16.98
867.112	8.86
867.28	7.74
867.448	10.56
867.615	7.48
867.783	27.54
867.951	26.02
868.119	39.57
868.286	16.32
868.454	30.11
868.622	18.84
868.789	17.99
868.957	-21.72
869.125	29.99
869.292	-3.8
869.46	-14.04
869.627	9.63
869.795	21.63
869.963	-22.75
870.13	10.28
870.298	9.04
870.465	28.86
870.632	25.24
870.8	15.99
870.967	10.9
871.135	23.35
871.302	-49.73
871.469	-19.24
871.637	17.13
871.804	-8.97
871.971	-79.21
872.139	-54.53
872.306	-76.88
872.473	-23.23
872.64	-25.85
872.807	-41.03
872.975	-36.46
873.142	-23.47
873.309	-68.33
873.476	-16.78
873.643	-3.98
873.81	4.41
873.977	-14.91
874.144	-2.44
874.311	-20.93
874.478	7.93
874.645	40.05
874.812	90.45
874.979	65.56
875.146	95.99
875.313	80.17
875.48	62.83
875.647	26.77
875.813	65.41
875.98	33.38
876.147	33.88
876.314	21.37
876.481	36.63
876.647	29.7
876.814	47.33
876.981	61.51
877.147	90.78
877.314	86.84
877.481	104.81
877.647	119.55
877.814	96.91
877.98	43.64
878.147	8.68
878.314	-32.36
878.48	-48.53
878.647	-65.18
878.813	3.07
878.979	7.52
879.146	34.56
879.312	42.16
879.479	31.78
879.645	21.03
879.811	38.72
879.978	29.25
880.144	21
880.31	33.6
880.477	23.37
880.643	-54
880.809	-70.35
880.975	-17.78
881.142	-19.9
881.308	24.22
881.474	36.88
881.64	19.42
881.806	13.94
881.972	-10.9
882.138	-167.6
882.304	-50.3
882.47	-7.34
882.636	-9.61
882.802	14.4
882.968	34.47
883.134	32.26
883.3	41.28
883.466	31.37
883.632	1.15
883.798	-26.88
883.964	-41.7
884.129	-57.79
884.295	-101.8
884.461	-60
884.627	-38.08
884.793	-99.54
884.958	-73.15
885.124	34.62
885.29	-15.28
885.455	63.8
885.621	73.14
885.787	63.6
885.952	32.2
886.118	70.85
886.283	29.23
886.449	-29.51
886.614	14.2
886.78	-19.69
886.945	-21.77
887.111	4.56
887.276	24.06
887.442	29.21
887.607	38.65
887.773	52.55
887.938	25.94
888.103	21.13
888.269	-11.13
888.434	-4.74
888.599	3.12
888.764	-7.94
888.93	-5.34
889.095	51.84
889.26	8.89
889.425	-3.95
889.59	11.69
889.756	-5.46
889.921	-9.85
890.086	24.16
890.251	10.43
890.416	5.71
890.581	16.53
890.746	-106.38
890.911	-693.39
891.076	473.51
891.241	887.88
891.406	249.87
891.571	-328.76
891.736	-23.64
891.901	33.88
892.065	16.01
892.23	126.53
892.395	13.96
892.56	-154.55
892.725	-31.28
892.889	-8.18
893.054	-53.05
893.219	21.75
893.384	27.6
893.548	33.62
893.713	46.74
893.878	47.65
