Data from Ofra_PS_Phys_6CX18_Reflection_3.txt Node
Date: Tue Jul 20 20:41:21 EDT 2021
User: USUARIO
Spectrometer: FLMT01687
Trigger mode: 0
Integration Time (sec): 1.042999E0
Scans to average: 2
Electric dark correction enabled: true
Nonlinearity correction enabled: false
Boxcar width: 2
XAxis mode: Wavelengths
Number of Pixels in Spectrum: 3648
>>>>>Begin Spectral Data<<<<<
179.494	-179.34
179.716	-53.78
179.937	30.75
180.158	52.73
180.38	111
180.601	202.2
180.823	142.31
181.044	149.14
181.265	-264.42
181.486	-5.79
181.708	150.51
181.929	56.1
182.15	147.19
182.372	57.17
182.593	154.81
182.814	65.79
183.035	76.91
183.257	45.35
183.478	-173.33
183.699	-144.09
183.92	-25.36
184.141	-69.57
184.363	98.06
184.584	81.4
184.805	66.3
185.026	93.86
185.247	68.18
185.468	26.93
185.689	41.9
185.91	27.14
186.132	-44.85
186.353	-25.07
186.574	-15.47
186.795	-3.62
187.016	26.61
187.237	52.91
187.458	59.43
187.679	61.26
187.9	59.58
188.121	76.67
188.342	71.47
188.563	56.44
188.784	30.49
189.005	25.24
189.226	39.41
189.447	52.95
189.667	53.03
189.888	73.58
190.109	89.18
190.33	83.82
190.551	45.25
190.772	74.03
190.993	44.03
191.214	32.09
191.434	37.06
191.655	50.15
191.876	27.3
192.097	41.28
192.318	52.33
192.538	41.93
192.759	31
192.98	39.61
193.201	38.08
193.421	35.96
193.642	43.23
193.863	69.11
194.083	64.08
194.304	56.42
194.525	57.23
194.745	52.16
194.966	15.98
195.187	11.03
195.407	-4.6
195.628	-52.94
195.848	-32.07
196.069	26.79
196.29	9.96
196.51	13.94
196.731	23.37
196.951	9.6
197.172	-8.9
197.392	18.7
197.613	30.12
197.833	35.15
198.054	41.04
198.274	48.08
198.495	52.79
198.715	47.83
198.936	50.7
199.156	58.39
199.377	61.25
199.597	44.68
199.817	45.84
200.038	32.09
200.258	45.92
200.479	19.72
200.699	24.97
200.919	34.36
201.14	33.91
201.36	17.53
201.58	40.84
201.801	46.47
202.021	7.44
202.241	32.51
202.461	20.63
202.682	25.99
202.902	16.38
203.122	36.85
203.342	17.16
203.563	14.23
203.783	18.22
204.003	7.17
204.223	16.66
204.443	8.29
204.663	21.54
204.884	13.27
205.104	34.66
205.324	23.72
205.544	43.81
205.764	27.91
205.984	37.99
206.204	0.62
206.424	38.44
206.644	26.46
206.864	29.67
207.084	27.8
207.304	51.29
207.525	14.87
207.745	15.09
207.964	1.8
208.184	16.93
208.404	28.31
208.624	48.97
208.844	47.78
209.064	73.6
209.284	33.66
209.504	14.5
209.724	1.78
209.944	-12.75
210.164	11.34
210.384	50.6
210.604	70.5
210.823	79.19
211.043	66.01
211.263	50.64
211.483	57.11
211.703	43.64
211.922	23.63
212.142	21.49
212.362	40.09
212.582	14.47
212.801	8.69
213.021	-1.17
213.241	-6.33
213.461	-27.73
213.68	-65.43
213.9	-40.68
214.12	-60.69
214.339	-83.13
214.559	-27.46
214.779	-9.49
214.998	13.08
215.218	21.39
215.438	26.84
215.657	36.62
215.877	49.67
216.096	43.85
216.316	53.58
216.535	81.04
216.755	64.83
216.974	52.64
217.194	55.9
217.413	55.05
217.633	55.15
217.852	39.2
218.072	42.32
218.291	32.84
218.511	41.23
218.73	19.58
218.95	40.58
219.169	22.68
219.389	19.07
219.608	13.5
219.827	40.45
220.047	36.51
220.266	48.34
220.485	45.52
220.705	28.86
220.924	-3.46
221.143	14.66
221.363	16.47
221.582	5.39
221.801	57.52
222.021	55.37
222.24	33.08
222.459	34.86
222.678	46.34
222.897	22.17
223.117	29.89
223.336	53.79
223.555	68.84
223.774	55.27
223.993	70.27
224.213	65.47
224.432	51.22
224.651	49.79
224.87	44.76
225.089	13.58
225.308	22.11
225.527	16.47
225.746	20.39
225.965	39.97
226.184	72.38
226.404	78.15
226.623	89.9
226.842	51.18
227.061	47.47
227.28	0.91
227.499	-6.9
227.718	9.76
227.936	6.12
228.155	-0.54
228.374	13.36
228.593	23.14
228.812	9.95
229.031	13.06
229.25	4.89
229.469	5.66
229.688	-6.15
229.907	2.28
230.125	5.49
230.344	17.84
230.563	15.23
230.782	24.73
231.001	27.4
231.22	15.9
231.438	6.7
231.657	9.54
231.876	1.44
232.095	19.56
232.313	17.98
232.532	31.78
232.751	42.61
232.969	44.09
233.188	34.74
233.407	71.5
233.625	55.09
233.844	49.93
234.063	46.67
234.281	37.48
234.5	26.86
234.719	32.71
234.937	31.85
235.156	18.24
235.374	29.1
235.593	37.74
235.811	37.86
236.03	35.5
236.249	44.75
236.467	50.31
236.686	37.66
236.904	25.29
237.123	26.42
237.341	44.13
237.559	29.49
237.778	43.33
237.996	45.05
238.215	37.59
238.433	33.77
238.652	53.16
238.87	48.16
239.088	41.54
239.307	41.73
239.525	17.19
239.743	1.48
239.962	-16.96
240.18	5.3
240.398	18.02
240.617	32.33
240.835	27.4
241.053	33.29
241.271	33.93
241.49	15.55
241.708	20.85
241.926	19.24
242.144	12.29
242.363	11.95
242.581	34.3
242.799	29.84
243.017	34.19
243.235	49.36
243.453	39.14
243.672	30.63
243.89	27.17
244.108	31.61
244.326	19.6
244.544	18.95
244.762	24.18
244.98	21.95
245.198	24.58
245.416	21.79
245.634	28.4
245.852	23.18
246.07	27.93
246.288	19.93
246.506	24.39
246.724	11.96
246.942	18.04
247.16	13.51
247.378	25.26
247.596	38.58
247.814	40.41
248.032	39.49
248.25	40.67
248.468	29.97
248.685	14.22
248.903	10.46
249.121	9.71
249.339	7.29
249.557	20.1
249.775	30.41
249.992	32.42
250.21	37.28
250.428	39.29
250.646	46.7
250.863	33.71
251.081	4.71
251.299	-6.65
251.517	-11.69
251.734	-32.22
251.952	-46.51
252.17	-8.57
252.387	13.55
252.605	16.93
252.823	27.2
253.04	48.47
253.258	46.81
253.475	38.45
253.693	60.06
253.911	81.66
254.128	81.26
254.346	80.11
254.563	87.96
254.781	53.67
254.998	33.97
255.216	35.38
255.433	9.9
255.651	48.06
255.868	107.78
256.086	140.33
256.303	85.57
256.521	77.36
256.738	45.87
256.956	18.68
257.173	9.13
257.39	19.14
257.608	19.28
257.825	24.88
258.043	42.79
258.26	36.02
258.477	36.95
258.695	21.66
258.912	35.15
259.129	30.1
259.346	18.69
259.564	10.09
259.781	51.14
259.998	45.31
260.216	46.46
260.433	61.2
260.65	69.77
260.867	68.62
261.084	63.66
261.302	48.4
261.519	30.55
261.736	20.02
261.953	-5.91
262.17	-33.05
262.387	4.59
262.604	12.87
262.822	20.9
263.039	38.89
263.256	60
263.473	47.74
263.69	55.43
263.907	59.88
264.124	39.08
264.341	38.85
264.558	35.55
264.775	-17.47
264.992	-7.82
265.209	32.41
265.426	25.94
265.643	42.42
265.86	50.99
266.077	51.61
266.294	56.03
266.51	41.88
266.727	39.85
266.944	43.86
267.161	36.62
267.378	14.61
267.595	22.96
267.812	19.39
268.028	12.03
268.245	13.71
268.462	30.32
268.679	34.77
268.896	38.35
269.112	38.16
269.329	47.2
269.546	54.46
269.763	53.31
269.979	50.27
270.196	55.76
270.413	47.72
270.629	39.4
270.846	29.14
271.063	23.67
271.279	13.8
271.496	16.22
271.712	18.73
271.929	23.84
272.146	20.02
272.362	19.3
272.579	24.56
272.795	21.42
273.012	8.53
273.228	2.81
273.445	3.29
273.661	-12.34
273.878	1.92
274.094	39
274.311	49.1
274.527	49.59
274.744	55.25
274.96	46.31
275.177	38.06
275.393	24.63
275.609	-5.17
275.826	-14.11
276.042	-20.41
276.259	-18.68
276.475	-1.57
276.691	33.03
276.908	19.19
277.124	29.94
277.34	32.59
277.557	18.83
277.773	14.69
277.989	27.11
278.205	35.21
278.422	23.03
278.638	35.32
278.854	55.95
279.07	48.22
279.286	34.19
279.503	37.43
279.719	31.65
279.935	28.92
280.151	39.26
280.367	34.7
280.583	38.54
280.799	47.46
281.016	23.32
281.232	28.08
281.448	39.58
281.664	51.03
281.88	30.94
282.096	45.89
282.312	23.82
282.528	42.17
282.744	21.07
282.96	40.58
283.176	28.78
283.392	37.62
283.608	27.68
283.824	14.18
284.04	13.91
284.256	21.78
284.471	27.71
284.687	16.07
284.903	45.34
285.119	38.17
285.335	27.7
285.551	9.08
285.767	8.15
285.982	-8.08
286.198	10.75
286.414	15.92
286.63	20.73
286.846	16.95
287.061	9.62
287.277	-8.33
287.493	-11.83
287.709	-17.02
287.924	-12.79
288.14	-4.46
288.356	3.9
288.571	7.14
288.787	16.66
289.003	29.34
289.218	29.66
289.434	35.27
289.65	49.5
289.865	43.21
290.081	37.22
290.296	41.54
290.512	42.46
290.727	31.99
290.943	34.63
291.159	38.08
291.374	42.9
291.59	39.12
291.805	32.98
292.021	48.41
292.236	49.17
292.451	44.19
292.667	38.37
292.882	30.16
293.098	22.9
293.313	25.74
293.529	21.59
293.744	21.69
293.959	21.54
294.175	31.53
294.39	15.14
294.605	13.01
294.821	20.17
295.036	28.82
295.251	8.7
295.467	10.31
295.682	9.41
295.897	5.42
296.112	11.1
296.328	13.96
296.543	17.85
296.758	16.44
296.973	14.83
297.188	4.88
297.404	0.51
297.619	5
297.834	11.08
298.049	23.15
298.264	25.05
298.479	23.95
298.694	18.05
298.909	37.41
299.125	26.03
299.34	9.6
299.555	18.12
299.77	22.82
299.985	27.91
300.2	26.27
300.415	33.62
300.63	45.76
300.845	51.75
301.06	49.91
301.275	66.52
301.49	74.5
301.704	61.93
301.919	53.95
302.134	31.22
302.349	26.92
302.564	30.81
302.779	30.52
302.994	28.9
303.209	28.27
303.423	29.92
303.638	44.94
303.853	30.9
304.068	33.08
304.283	47.82
304.497	21.1
304.712	5.88
304.927	23.49
305.142	26.34
305.356	18.09
305.571	43.48
305.786	41.87
306	34.2
306.215	13.74
306.43	20.12
306.644	22.9
306.859	29.67
307.074	27.08
307.288	44.41
307.503	45.42
307.717	18.9
307.932	12.28
308.147	9.41
308.361	14.82
308.576	0.87
308.79	14.21
309.005	7.04
309.219	12.41
309.434	-12.06
309.648	-5.64
309.863	-12.24
310.077	5.37
310.292	19.12
310.506	26.86
310.72	35.53
310.935	20.91
311.149	15.04
311.364	5.68
311.578	35.66
311.792	36.81
312.007	49.36
312.221	59.42
312.435	55.93
312.649	44.27
312.864	26.73
313.078	37.86
313.292	34.13
313.507	39.02
313.721	31.73
313.935	35.76
314.149	35.1
314.363	33.43
314.578	7.22
314.792	8.74
315.006	10.55
315.22	-6.5
315.434	-12.07
315.648	12.5
315.862	10.75
316.077	6.9
316.291	9.35
316.505	12.04
316.719	20.02
316.933	21.05
317.147	22.47
317.361	11.77
317.575	13.89
317.789	-5.99
318.003	-10.61
318.217	3.37
318.431	29.11
318.645	33.46
318.859	22.68
319.073	16.19
319.287	11.92
319.5	13.68
319.714	14.5
319.928	43
320.142	38
320.356	45.56
320.57	36.51
320.784	40.17
320.997	39.72
321.211	43.3
321.425	40.98
321.639	53.16
321.853	43.6
322.066	32.96
322.28	42.45
322.494	45.79
322.707	37.25
322.921	35.94
323.135	35.18
323.349	25.24
323.562	9.22
323.776	11.11
323.989	23.08
324.203	31.5
324.417	44.11
324.63	53.86
324.844	61.1
325.057	63.6
325.271	42.33
325.485	17.51
325.698	10.46
325.912	13.93
326.125	26.73
326.339	31
326.552	44.11
326.766	49.75
326.979	42.28
327.193	26.01
327.406	32.29
327.619	41.68
327.833	42.87
328.046	44.86
328.26	33.24
328.473	31.47
328.686	23.68
328.9	6.62
329.113	-1.16
329.326	10.97
329.54	21.96
329.753	24.43
329.966	22.41
330.179	20.67
330.393	18.08
330.606	18.9
330.819	4.62
331.032	5.29
331.246	16.61
331.459	19.26
331.672	-13
331.885	5.04
332.098	24.34
332.311	18.91
332.525	33.96
332.738	55.59
332.951	46.68
333.164	52.67
333.377	48.54
333.59	32.59
333.803	21.12
334.016	23.98
334.229	13.64
334.442	17.7
334.655	0.25
334.868	-1.81
335.081	12.06
335.294	17.57
335.507	21.55
335.72	39.8
335.933	41.38
336.146	54.68
336.359	44.12
336.572	37.05
336.785	28.89
336.997	36.58
337.21	7.04
337.423	20.75
337.636	17.21
337.849	23.6
338.062	38.55
338.274	59.48
338.487	66.38
338.7	60
338.913	59.01
339.125	50.08
339.338	38.73
339.551	36.7
339.763	56.53
339.976	47.99
340.189	40.93
340.402	37.64
340.614	25.81
340.827	-0.37
341.039	15.54
341.252	24.34
341.465	31.51
341.677	34.9
341.89	29.87
342.102	22.46
342.315	28.76
342.527	40.05
342.74	34.85
342.952	50.77
343.165	40.97
343.377	48.69
343.59	27.52
343.802	26.7
344.015	24.34
344.227	43.03
344.44	31.57
344.652	36.12
344.864	46.48
345.077	26.31
345.289	8.48
345.502	-2.48
345.714	-18.98
345.926	-48.81
346.139	-1.47
346.351	2.72
346.563	15.86
346.775	21.4
346.988	24.8
347.2	30.28
347.412	32.75
347.624	32.19
347.837	27.78
348.049	19.78
348.261	18.11
348.473	-5.3
348.685	23.54
348.897	26.06
349.11	31.06
349.322	15.95
349.534	28.43
349.746	13.32
349.958	17.88
350.17	13.66
350.382	23.97
350.594	26.63
350.806	27.94
351.018	14.84
351.23	23.18
351.442	20.59
351.654	16.58
351.866	18.91
352.078	23.42
352.29	28.95
352.502	31.67
352.714	22.02
352.926	27.72
353.138	29.95
353.35	18.14
353.561	3.83
353.773	18.17
353.985	12.16
354.197	18.02
354.409	28.46
354.621	35.72
354.832	26.3
355.044	28.09
355.256	24.98
355.468	24.15
355.679	28.63
355.891	35.52
356.103	24.59
356.314	26.01
356.526	28.98
356.738	20.24
356.949	23.33
357.161	31.77
357.373	28.57
357.584	16.14
357.796	15.41
358.008	15.21
358.219	15.1
358.431	13.05
358.642	19.69
358.854	20.09
359.065	26.46
359.277	28.51
359.488	30.91
359.7	25.46
359.911	42.1
360.123	42.22
360.334	38.24
360.546	49.55
360.757	50.07
360.969	39.02
361.18	38.78
361.391	36.93
361.603	23.33
361.814	19.66
362.025	20.82
362.237	15.62
362.448	15.71
362.659	21.67
362.871	48.34
363.082	45.4
363.293	45.18
363.504	46.76
363.716	38.46
363.927	14.32
364.138	20.41
364.349	10.03
364.56	8.76
364.772	10.62
364.983	13.69
365.194	9.86
365.405	11.62
365.616	10.73
365.827	15.04
366.038	13.24
366.25	9.66
366.461	13.71
366.672	21
366.883	8.48
367.094	19.16
367.305	11.88
367.516	16.34
367.727	12.15
367.938	21.18
368.149	18.88
368.36	29.8
368.571	31.41
368.781	34.9
368.992	27.63
369.203	25.97
369.414	25.98
369.625	5.92
369.836	10.57
370.047	21.39
370.258	20.66
370.468	24.26
370.679	38.2
370.89	36.22
371.101	42.16
371.312	37.3
371.522	36.03
371.733	33.96
371.944	32.58
372.155	25.43
372.365	28.33
372.576	20.79
372.787	12.29
372.997	6.85
373.208	4.2
373.419	10.37
373.629	3.39
373.84	-7.54
374.05	-6.68
374.261	-0.61
374.472	-15.03
374.682	3.68
374.893	16.36
375.103	4.86
375.314	7.36
375.524	18.02
375.735	15.68
375.945	7.99
376.156	24.4
376.366	20.21
376.577	9.2
376.787	5.31
376.997	13.16
377.208	10.6
377.418	2.81
377.629	8.6
377.839	7.05
378.049	14.05
378.26	16.83
378.47	29.83
378.68	30.89
378.89	37.08
379.101	25.95
379.311	18.58
379.521	9.43
379.732	8.13
379.942	14.83
380.152	11.9
380.362	16.15
380.572	18.77
380.783	13.42
380.993	11.78
381.203	17.06
381.413	0.7
381.623	2.58
381.833	14.59
382.043	12.77
382.253	10.8
382.463	27.93
382.674	28.09
382.884	20.98
383.094	16.56
383.304	20.01
383.514	27.59
383.724	17.69
383.934	19.61
384.144	22.79
384.353	24.62
384.563	11.28
384.773	17.16
384.983	21.56
385.193	25.34
385.403	23.82
385.613	25.8
385.823	24.83
386.033	22.39
386.242	19.14
386.452	12.37
386.662	13.18
386.872	12.39
387.082	6.87
387.291	4.02
387.501	5.88
387.711	7.96
387.921	10.67
388.13	14.84
388.34	13.29
388.55	9.37
388.759	3.17
388.969	-2.94
389.179	-4.8
389.388	-2.35
389.598	2.84
389.807	7.12
390.017	9.72
390.227	5.66
390.436	9.8
390.646	6.03
390.855	3.76
391.065	5.69
391.274	8.81
391.484	7.63
391.693	9.59
391.903	10.71
392.112	8.69
392.322	7.78
392.531	6.42
392.74	5.02
392.95	2.97
393.159	2.56
393.369	4.62
393.578	4.28
393.787	6.24
393.997	9.31
394.206	10.99
394.415	9.35
394.625	9.3
394.834	8.95
395.043	7.97
395.252	7.34
395.462	6.28
395.671	5.92
395.88	6.05
396.089	5.2
396.298	5.25
396.508	4.65
396.717	4.87
396.926	4.65
397.135	4.5
397.344	4.41
397.553	5.94
397.762	6.02
397.971	5.5
398.181	4.89
398.39	4.59
398.599	4.3
398.808	3.71
399.017	3.96
399.226	5.12
399.435	4.78
399.644	4.84
399.853	5.42
400.062	5.48
400.27	5.28
400.479	5.95
400.688	5.99
400.897	5.96
401.106	5.77
401.315	5.67
401.524	5.08
401.733	4.48
401.941	4.02
402.15	3.93
402.359	3.75
402.568	3.87
402.777	4.17
402.985	3.78
403.194	4.06
403.403	4.25
403.612	4.22
403.82	4.04
404.029	4.47
404.238	4.32
404.446	4.18
404.655	4.13
404.864	4.47
405.072	4.45
405.281	4.53
405.489	4.46
405.698	4.4
405.906	4.2
406.115	4.32
406.324	4.15
406.532	4.1
406.741	4.21
406.949	4.26
407.158	4.17
407.366	4.21
407.574	4.19
407.783	4.18
407.991	4.18
408.2	4.16
408.408	4.06
408.617	4.12
408.825	4.2
409.033	4.14
409.242	4.16
409.45	4.18
409.658	4.13
409.867	3.94
410.075	3.98
410.283	3.87
410.491	3.84
410.7	4.05
410.908	3.95
411.116	4.02
411.324	4.11
411.533	4.29
411.741	4.08
411.949	4.38
412.157	4.29
412.365	4.4
412.573	4.28
412.781	4.26
412.99	4.12
413.198	4.14
413.406	3.92
413.614	3.94
413.822	4.02
414.03	3.95
414.238	3.84
414.446	3.84
414.654	3.93
414.862	3.8
415.07	3.82
415.278	3.9
415.486	3.97
415.694	3.86
415.902	3.89
416.109	3.81
416.317	3.9
416.525	3.83
416.733	3.72
416.941	3.73
417.149	3.76
417.357	3.59
417.564	3.65
417.772	3.76
417.98	3.92
418.188	4
418.395	4.02
418.603	3.96
418.811	3.95
419.019	3.69
419.226	3.8
419.434	3.73
419.642	3.69
419.849	3.54
420.057	3.55
420.265	3.5
420.472	3.53
420.68	3.7
420.887	3.74
421.095	3.83
421.302	3.59
421.51	3.53
421.717	3.31
421.925	3.48
422.132	3.48
422.34	3.65
422.547	3.64
422.755	3.74
422.962	3.62
423.17	3.42
423.377	3.47
423.585	3.6
423.792	3.57
423.999	3.6
424.207	3.62
424.414	3.69
424.621	3.58
424.829	3.43
425.036	3.5
425.243	3.75
425.451	3.6
425.658	3.66
425.865	3.95
426.072	3.84
426.28	3.61
426.487	3.77
426.694	3.75
426.901	3.66
427.108	3.49
427.315	3.62
427.523	3.52
427.73	3.52
427.937	3.42
428.144	3.58
428.351	3.6
428.558	3.55
428.765	3.38
428.972	3.44
429.179	3.38
429.386	3.36
429.593	3.46
429.8	3.53
430.007	3.51
430.214	3.59
430.421	3.54
430.628	3.51
430.835	3.49
431.042	3.51
431.249	3.64
431.456	3.75
431.662	3.74
431.869	3.92
432.076	3.99
432.283	3.85
432.49	3.7
432.697	3.64
432.903	3.53
433.11	3.42
433.317	3.49
433.524	3.58
433.73	3.54
433.937	3.53
434.144	3.53
434.35	3.53
434.557	3.59
434.764	3.53
434.97	3.59
435.177	3.66
435.384	3.59
435.59	3.56
435.797	3.82
436.003	3.9
436.21	3.89
436.416	3.82
436.623	3.79
436.829	3.62
437.036	3.58
437.242	3.63
437.449	3.78
437.655	3.85
437.862	3.86
438.068	3.87
438.275	3.81
438.481	3.88
438.687	3.71
438.894	3.75
439.1	3.65
439.307	3.76
439.513	3.72
439.719	3.79
439.926	3.82
440.132	3.91
440.338	3.76
440.544	3.66
440.751	3.74
440.957	3.66
441.163	3.62
441.369	3.84
441.575	3.91
441.782	3.82
441.988	3.83
442.194	3.87
442.4	3.7
442.606	3.76
442.812	3.79
443.018	3.85
443.224	3.75
443.431	3.83
443.637	3.73
443.843	3.73
444.049	3.7
444.255	3.8
444.461	3.77
444.667	3.79
444.873	3.74
445.079	3.78
445.284	3.65
445.49	3.63
445.696	3.62
445.902	3.65
446.108	3.76
446.314	3.9
446.52	3.85
446.726	3.85
446.931	3.97
447.137	3.83
447.343	3.82
447.549	3.96
447.755	3.93
447.96	3.87
448.166	3.87
448.372	3.96
448.578	3.96
448.783	4.04
448.989	4.02
449.195	4
449.4	3.98
449.606	3.91
449.812	3.9
450.017	3.92
450.223	3.92
450.428	3.86
450.634	3.88
450.84	3.93
451.045	3.99
451.251	4.03
451.456	3.95
451.662	3.89
451.867	3.93
452.073	3.95
452.278	3.94
452.483	4.1
452.689	4.2
452.894	4.19
453.1	4.08
453.305	4.15
453.51	4.1
453.716	4.08
453.921	4.05
454.127	4.13
454.332	4.11
454.537	4.07
454.742	4.13
454.948	4.11
455.153	4.12
455.358	4.14
455.563	4.26
455.769	4.17
455.974	4.11
456.179	4.08
456.384	3.98
456.589	3.8
456.795	3.86
457	3.91
457.205	3.97
457.41	4.02
457.615	4.19
457.82	4.18
458.025	4.21
458.23	4.17
458.435	4.18
458.64	4.09
458.845	4.09
459.05	4.09
459.255	4.08
459.46	4.18
459.665	4.22
459.87	4.3
460.075	4.36
460.28	4.47
460.485	4.42
460.69	4.42
460.895	4.34
461.099	4.28
461.304	4.18
461.509	4.13
461.714	4.12
461.919	4.22
462.123	4.21
462.328	4.12
462.533	4.19
462.738	4.23
462.942	4.17
463.147	4.2
463.352	4.4
463.556	4.38
463.761	4.31
463.966	4.24
464.17	4.27
464.375	4.24
464.58	4.28
464.784	4.35
464.989	4.37
465.193	4.4
465.398	4.48
465.602	4.51
465.807	4.49
466.011	4.52
466.216	4.45
466.42	4.33
466.625	4.36
466.829	4.26
467.034	4.31
467.238	4.41
467.443	4.45
467.647	4.4
467.851	4.46
468.056	4.55
468.26	4.52
468.464	4.5
468.669	4.55
468.873	4.62
469.077	4.56
469.282	4.52
469.486	4.55
469.69	4.5
469.894	4.56
470.099	4.55
470.303	4.65
470.507	4.73
470.711	4.76
470.915	4.72
471.119	4.74
471.324	4.74
471.528	4.69
471.732	4.7
471.936	4.69
472.14	4.79
472.344	4.8
472.548	4.84
472.752	4.93
472.956	4.97
473.16	4.96
473.364	4.93
473.568	4.94
473.772	4.9
473.976	4.96
474.18	4.89
474.384	4.86
474.588	4.89
474.792	4.87
474.995	4.83
475.199	4.96
475.403	4.97
475.607	4.94
475.811	5.01
476.015	4.96
476.218	4.9
476.422	4.89
476.626	4.9
476.83	4.83
477.033	4.95
477.237	5.01
477.441	5.09
477.644	5.05
477.848	5.07
478.052	5.02
478.255	4.9
478.459	4.85
478.663	4.88
478.866	4.97
479.07	4.98
479.273	5.03
479.477	5.1
479.681	5.25
479.884	5.12
480.088	5.11
480.291	5.18
480.495	5.18
480.698	5.02
480.901	5.13
481.105	5.21
481.308	5.19
481.512	5.15
481.715	5.27
481.919	5.27
482.122	5.19
482.325	5.17
482.529	5.13
482.732	5.11
482.935	5.03
483.138	5.02
483.342	5.06
483.545	5.14
483.748	5.08
483.952	5.18
484.155	5.26
484.358	5.23
484.561	5.26
484.764	5.32
484.967	5.32
485.171	5.3
485.374	5.33
485.577	5.34
485.78	5.3
485.983	5.3
486.186	5.29
486.389	5.27
486.592	5.27
486.795	5.31
486.998	5.29
487.201	5.33
487.404	5.37
487.607	5.37
487.81	5.41
488.013	5.46
488.216	5.34
488.419	5.3
488.622	5.27
488.825	5.22
489.028	5.21
489.231	5.27
489.433	5.3
489.636	5.32
489.839	5.33
490.042	5.29
490.245	5.31
490.447	5.31
490.65	5.24
490.853	5.28
491.056	5.29
491.258	5.25
491.461	5.26
491.664	5.31
491.866	5.22
492.069	5.15
492.272	5.15
492.474	5.11
492.677	5.09
492.879	5.12
493.082	5.26
493.285	5.25
493.487	5.33
493.69	5.37
493.892	5.36
494.095	5.29
494.297	5.33
494.5	5.31
494.702	5.26
494.905	5.27
495.107	5.26
495.309	5.35
495.512	5.4
495.714	5.45
495.917	5.42
496.119	5.44
496.321	5.34
496.524	5.28
496.726	5.33
496.928	5.34
497.13	5.38
497.333	5.41
497.535	5.41
497.737	5.38
497.939	5.43
498.142	5.38
498.344	5.35
498.546	5.35
498.748	5.3
498.95	5.33
499.152	5.28
499.355	5.31
499.557	5.33
499.759	5.38
499.961	5.36
500.163	5.48
500.365	5.5
500.567	5.43
500.769	5.43
500.971	5.46
501.173	5.36
501.375	5.35
501.577	5.44
501.779	5.43
501.981	5.43
502.183	5.46
502.385	5.47
502.587	5.48
502.788	5.49
502.99	5.38
503.192	5.43
503.394	5.41
503.596	5.4
503.798	5.45
503.999	5.59
504.201	5.57
504.403	5.59
504.605	5.61
504.806	5.59
505.008	5.53
505.21	5.53
505.411	5.57
505.613	5.57
505.815	5.62
506.016	5.68
506.218	5.67
506.42	5.67
506.621	5.66
506.823	5.59
507.024	5.5
507.226	5.58
507.427	5.55
507.629	5.55
507.83	5.62
508.032	5.7
508.233	5.67
508.435	5.69
508.636	5.68
508.838	5.63
509.039	5.65
509.24	5.62
509.442	5.67
509.643	5.79
509.845	5.81
510.046	5.8
510.247	5.82
510.448	5.8
510.65	5.7
510.851	5.71
511.052	5.73
511.254	5.81
511.455	5.88
511.656	5.85
511.857	5.86
512.058	5.85
512.26	5.81
512.461	5.8
512.662	5.88
512.863	5.91
513.064	5.94
513.265	5.96
513.466	5.95
513.667	6.01
513.868	6.01
514.069	6
514.27	5.94
514.471	5.94
514.672	5.88
514.873	5.8
515.074	5.79
515.275	5.83
515.476	5.81
515.677	5.77
515.878	5.89
516.079	5.95
516.28	5.96
516.481	5.97
516.682	6.03
516.882	6.01
517.083	5.98
517.284	6.04
517.485	6.05
517.686	6.07
517.886	6.06
518.087	6.01
518.288	5.99
518.488	5.99
518.689	5.95
518.89	5.92
519.091	5.95
519.291	5.94
519.492	5.93
519.692	5.96
519.893	6
520.094	6.01
520.294	6.05
520.495	6.1
520.695	6.12
520.896	6.16
521.096	6.2
521.297	6.14
521.497	6.15
521.698	6.15
521.898	6.14
522.099	6.11
522.299	6.18
522.499	6.14
522.7	6.14
522.9	6.07
523.101	6.09
523.301	6.1
523.501	6.17
523.702	6.21
523.902	6.29
524.102	6.29
524.302	6.28
524.503	6.26
524.703	6.27
524.903	6.28
525.103	6.29
525.304	6.23
525.504	6.29
525.704	6.3
525.904	6.27
526.104	6.26
526.304	6.36
526.504	6.29
526.705	6.3
526.905	6.34
527.105	6.4
527.305	6.35
527.505	6.33
527.705	6.33
527.905	6.33
528.105	6.35
528.305	6.34
528.505	6.4
528.705	6.37
528.905	6.38
529.105	6.36
529.304	6.4
529.504	6.41
529.704	6.44
529.904	6.48
530.104	6.45
530.304	6.46
530.503	6.45
530.703	6.42
530.903	6.43
531.103	6.47
531.303	6.5
531.502	6.55
531.702	6.58
531.902	6.62
532.101	6.61
532.301	6.63
532.501	6.65
532.7	6.66
532.9	6.64
533.1	6.67
533.299	6.71
533.499	6.67
533.698	6.68
533.898	6.63
534.097	6.64
534.297	6.59
534.496	6.6
534.696	6.64
534.895	6.69
535.095	6.71
535.294	6.78
535.494	6.8
535.693	6.8
535.892	6.79
536.092	6.79
536.291	6.74
536.491	6.76
536.69	6.79
536.889	6.84
537.088	6.88
537.288	6.91
537.487	6.91
537.686	6.93
537.886	6.99
538.085	6.97
538.284	6.98
538.483	6.97
538.682	7
538.882	6.93
539.081	6.93
539.28	6.89
539.479	6.95
539.678	6.92
539.877	6.93
540.076	7.03
540.275	7.14
540.474	7.16
540.673	7.17
540.872	7.19
541.071	7.17
541.27	7.19
541.469	7.18
541.668	7.28
541.867	7.35
542.066	7.36
542.265	7.36
542.464	7.41
542.663	7.37
542.862	7.36
543.06	7.36
543.259	7.45
543.458	7.49
543.657	7.59
543.856	7.65
544.054	7.71
544.253	7.7
544.452	7.74
544.651	7.71
544.849	7.76
545.048	7.79
545.247	7.78
545.445	7.8
545.644	7.85
545.843	7.88
546.041	7.86
546.24	7.89
546.438	7.98
546.637	7.98
546.836	8.04
547.034	8.12
547.233	8.12
547.431	8.16
547.63	8.18
547.828	8.22
548.027	8.3
548.225	8.42
548.423	8.44
548.622	8.5
548.82	8.48
549.019	8.52
549.217	8.52
549.415	8.53
549.614	8.6
549.812	8.61
550.01	8.7
550.209	8.79
550.407	8.87
550.605	8.83
550.803	8.91
551.002	8.86
551.2	8.91
551.398	8.98
551.596	9.05
551.794	9.14
551.993	9.24
552.191	9.29
552.389	9.3
552.587	9.46
552.785	9.49
552.983	9.53
553.181	9.57
553.379	9.69
553.577	9.74
553.775	9.81
553.973	9.92
554.171	9.95
554.369	9.94
554.567	9.97
554.765	10.03
554.963	10.06
555.161	10.16
555.359	10.18
555.557	10.26
555.755	10.37
555.952	10.42
556.15	10.49
556.348	10.66
556.546	10.73
556.744	10.86
556.941	10.91
557.139	11.01
557.337	11.09
557.535	11.16
557.732	11.11
557.93	11.16
558.128	11.25
558.325	11.35
558.523	11.45
558.721	11.51
558.918	11.66
559.116	11.7
559.313	11.73
559.511	11.79
559.708	11.96
559.906	12.03
560.104	12.14
560.301	12.2
560.498	12.35
560.696	12.38
560.893	12.5
561.091	12.63
561.288	12.82
561.486	12.86
561.683	12.98
561.88	13.03
562.078	13.1
562.275	13.12
562.473	13.21
562.67	13.33
562.867	13.44
563.064	13.59
563.262	13.61
563.459	13.75
563.656	13.84
563.853	13.94
564.051	13.9
564.248	14.08
564.445	14.16
564.642	14.21
564.839	14.3
565.036	14.46
565.234	14.49
565.431	14.55
565.628	14.68
565.825	14.78
566.022	14.78
566.219	14.86
566.416	14.94
566.613	14.93
566.81	15
567.007	15.16
567.204	15.28
567.401	15.32
567.598	15.45
567.795	15.53
567.991	15.6
568.188	15.64
568.385	15.71
568.582	15.86
568.779	15.96
568.976	15.98
569.172	16.1
569.369	16.17
569.566	16.18
569.763	16.28
569.96	16.35
570.156	16.36
570.353	16.44
570.55	16.54
570.746	16.52
570.943	16.6
571.14	16.75
571.336	16.82
571.533	16.84
571.729	16.92
571.926	16.96
572.123	16.96
572.319	17.02
572.516	17.07
572.712	17.08
572.909	17.15
573.105	17.22
573.302	17.31
573.498	17.34
573.695	17.31
573.891	17.26
574.087	17.16
574.284	17.18
574.48	17.24
574.677	17.35
574.873	17.43
575.069	17.59
575.266	17.52
575.462	17.51
575.658	17.5
575.854	17.54
576.051	17.51
576.247	17.59
576.443	17.62
576.639	17.69
576.835	17.73
577.032	17.76
577.228	17.74
577.424	17.71
577.62	17.69
577.816	17.65
578.012	17.68
578.208	17.66
578.404	17.66
578.6	17.58
578.796	17.59
578.993	17.6
579.189	17.7
579.384	17.71
579.58	17.81
579.776	17.86
579.972	17.81
580.168	17.7
580.364	17.72
580.56	17.66
580.756	17.6
580.952	17.53
581.148	17.54
581.343	17.53
581.539	17.55
581.735	17.47
581.931	17.51
582.127	17.44
582.322	17.47
582.518	17.47
582.714	17.58
582.909	17.68
583.105	17.83
583.301	17.83
583.496	17.78
583.692	17.72
583.888	17.66
584.083	17.6
584.279	17.59
584.474	17.62
584.67	17.63
584.866	17.55
585.061	17.45
585.257	17.43
585.452	17.47
585.648	17.48
585.843	17.52
586.039	17.63
586.234	17.62
586.429	17.57
586.625	17.61
586.82	17.63
587.015	17.53
587.211	17.47
587.406	17.52
587.601	17.49
587.797	17.51
587.992	17.55
588.187	17.56
588.383	17.6
588.578	17.59
588.773	17.61
588.968	17.71
589.163	17.77
589.359	17.66
589.554	17.67
589.749	17.65
589.944	17.59
590.139	17.66
590.334	17.85
590.529	17.93
590.724	18
590.919	18.07
591.114	18.05
591.309	18.02
591.504	18.03
591.699	18.06
591.894	18.09
592.089	18.19
592.284	18.14
592.479	18.16
592.674	18.2
592.869	18.25
593.064	18.27
593.259	18.34
593.454	18.37
593.648	18.38
593.843	18.41
594.038	18.44
594.233	18.45
594.428	18.6
594.622	18.74
594.817	18.75
595.012	18.82
595.206	18.97
595.401	18.99
595.596	18.97
595.79	19.1
595.985	19.15
596.18	19.19
596.374	19.24
596.569	19.37
596.763	19.37
596.958	19.45
597.153	19.52
597.347	19.52
597.542	19.55
597.736	19.71
597.931	19.67
598.125	19.75
598.319	19.84
598.514	19.91
598.708	19.88
598.903	19.98
599.097	19.99
599.291	20.06
599.486	20.1
599.68	20.19
599.874	20.19
600.069	20.29
600.263	20.37
600.457	20.43
600.651	20.5
600.846	20.67
601.04	20.66
601.234	20.65
601.428	20.72
601.622	20.62
601.817	20.62
602.011	20.64
602.205	20.73
602.399	20.62
602.593	20.82
602.787	20.81
602.981	20.88
603.175	20.85
603.369	21.02
603.563	20.89
603.757	20.96
603.951	20.91
604.145	20.86
604.339	20.78
604.533	20.83
604.727	20.71
604.921	20.72
605.115	20.75
605.309	20.7
605.502	20.71
605.696	20.69
605.89	20.6
606.084	20.59
606.278	20.57
606.471	20.4
606.665	20.43
606.859	20.45
607.053	20.33
607.246	20.3
607.44	20.34
607.634	20.26
607.827	20.29
608.021	20.18
608.214	20.15
608.408	20.09
608.602	20.02
608.795	19.92
608.989	20
609.182	19.95
609.376	19.95
609.569	19.87
609.763	19.71
609.956	19.56
610.15	19.43
610.343	19.27
610.537	19.17
610.73	19.18
610.923	19.09
611.117	19.04
611.31	19.01
611.504	19.05
611.697	18.98
611.89	18.95
612.083	18.92
612.277	18.82
612.47	18.71
612.663	18.66
612.856	18.59
613.05	18.54
613.243	18.55
613.436	18.4
613.629	18.28
613.822	18.26
614.015	18.09
614.209	17.99
614.402	17.97
614.595	17.9
614.788	17.76
614.981	17.75
615.174	17.66
615.367	17.65
615.56	17.58
615.753	17.56
615.946	17.47
616.139	17.45
616.332	17.39
616.525	17.3
616.718	17.16
616.911	17.14
617.103	17.06
617.296	17.05
617.489	17.04
617.682	17.09
617.875	17.07
618.067	17.02
618.26	16.96
618.453	16.93
618.646	16.88
618.838	16.78
619.031	16.74
619.224	16.65
619.417	16.68
619.609	16.65
619.802	16.66
619.994	16.57
620.187	16.56
620.38	16.45
620.572	16.45
620.765	16.47
620.957	16.46
621.15	16.36
621.342	16.37
621.535	16.29
621.727	16.14
621.92	16.15
622.112	16.19
622.305	16.17
622.497	16.2
622.69	16.2
622.882	16.07
623.074	16.11
623.267	16.05
623.459	16
623.651	16.04
623.844	16.11
624.036	16.11
624.228	16.13
624.42	16.06
624.613	16.06
624.805	16.02
624.997	15.9
625.189	15.84
625.381	15.81
625.574	15.73
625.766	15.64
625.958	15.62
626.15	15.61
626.342	15.58
626.534	15.57
626.726	15.56
626.918	15.54
627.11	15.51
627.302	15.48
627.494	15.44
627.686	15.47
627.878	15.47
628.07	15.41
628.262	15.37
628.454	15.35
628.646	15.35
628.838	15.31
629.029	15.29
629.221	15.31
629.413	15.28
629.605	15.12
629.797	15.04
629.989	14.96
630.18	14.91
630.372	14.85
630.564	14.89
630.755	14.92
630.947	14.98
631.139	14.9
631.33	14.86
631.522	14.86
631.714	14.78
631.905	14.65
632.097	14.66
632.289	14.61
632.48	14.49
632.672	14.44
632.863	14.44
633.055	14.45
633.246	14.46
633.438	14.47
633.629	14.49
633.821	14.45
634.012	14.42
634.203	14.46
634.395	14.46
634.586	14.41
634.777	14.47
634.969	14.41
635.16	14.38
635.351	14.41
635.543	14.47
635.734	14.45
635.925	14.45
636.117	14.41
636.308	14.41
636.499	14.43
636.69	14.44
636.881	14.52
637.073	14.57
637.264	14.59
637.455	14.54
637.646	14.53
637.837	14.44
638.028	14.36
638.219	14.32
638.41	14.29
638.601	14.24
638.792	14.26
638.983	14.25
639.174	14.17
639.365	14.16
639.556	14.16
639.747	14.09
639.938	14.16
640.129	14.15
640.32	14.14
640.511	14.13
640.701	14.2
640.892	14.12
641.083	14.09
641.274	14.07
641.465	14.05
641.655	14.08
641.846	14.08
642.037	14.09
642.228	14.15
642.418	14.11
642.609	13.98
642.8	13.96
642.99	13.87
643.181	13.82
643.372	13.78
643.562	13.75
643.753	13.75
643.943	13.79
644.134	13.7
644.324	13.73
644.515	13.79
644.705	13.73
644.896	13.77
645.086	13.78
645.277	13.75
645.467	13.66
645.658	13.58
645.848	13.48
646.038	13.4
646.229	13.39
646.419	13.38
646.61	13.45
646.8	13.48
646.99	13.54
647.18	13.48
647.371	13.39
647.561	13.39
647.751	13.33
647.941	13.31
648.132	13.26
648.322	13.31
648.512	13.24
648.702	13.33
648.892	13.22
649.082	13.34
649.272	13.32
649.462	13.4
649.653	13.35
649.843	13.39
650.033	13.29
650.223	13.27
650.413	13.14
650.603	13.06
650.793	13.03
650.983	13.02
651.172	12.92
651.362	12.86
651.552	12.82
651.742	12.81
651.932	12.71
652.122	12.77
652.312	12.73
652.502	12.7
652.691	12.61
652.881	12.55
653.071	12.45
653.261	12.43
653.45	12.4
653.64	12.42
653.83	12.35
654.019	12.25
654.209	12.12
654.399	11.93
654.588	11.82
654.778	11.75
654.968	11.63
655.157	11.51
655.347	11.38
655.536	11.17
655.726	11
655.915	10.86
656.105	10.79
656.294	10.78
656.484	10.64
656.673	10.53
656.863	10.5
657.052	10.39
657.241	10.16
657.431	10.04
657.62	9.94
657.809	9.73
657.999	9.61
658.188	9.56
658.377	9.54
658.567	9.33
658.756	9.19
658.945	9.13
659.134	8.98
659.324	8.78
659.513	8.8
659.702	8.67
659.891	8.53
660.08	8.42
660.269	8.31
660.458	8.2
660.648	8.17
660.837	8.09
661.026	7.96
661.215	7.86
661.404	7.73
661.593	7.55
661.782	7.38
661.971	7.28
662.16	7.16
662.349	7.02
662.538	6.98
662.726	6.79
662.915	6.78
663.104	6.69
663.293	6.53
663.482	6.48
663.671	6.49
663.86	6.33
664.048	6.34
664.237	6.34
664.426	6.33
664.615	6.27
664.803	6.27
664.992	6.11
665.181	6.06
665.369	5.93
665.558	5.87
665.747	5.83
665.935	5.83
666.124	5.91
666.312	5.9
666.501	5.86
666.69	5.82
666.878	5.79
667.067	5.68
667.255	5.69
667.444	5.66
667.632	5.63
667.82	5.57
668.009	5.57
668.197	5.52
668.386	5.54
668.574	5.5
668.762	5.51
668.951	5.53
669.139	5.55
669.327	5.57
669.516	5.61
669.704	5.7
669.892	5.6
670.08	5.57
670.269	5.51
670.457	5.54
670.645	5.58
670.833	5.61
671.021	5.69
671.21	5.74
671.398	5.68
671.586	5.57
671.774	5.64
671.962	5.65
672.15	5.68
672.338	5.8
672.526	5.96
672.714	6
672.902	5.98
673.09	5.96
673.278	5.95
673.466	5.93
673.654	6.02
673.842	6.03
674.03	6.17
674.218	6.24
674.405	6.28
674.593	6.22
674.781	6.22
674.969	6.22
675.157	6.24
675.344	6.17
675.532	6.34
675.72	6.46
675.908	6.41
676.095	6.48
676.283	6.61
676.471	6.56
676.658	6.58
676.846	6.67
677.033	6.71
677.221	6.76
677.409	6.82
677.596	6.84
677.784	6.9
677.971	7.03
678.159	7.07
678.346	7.12
678.534	7.23
678.721	7.37
678.909	7.48
679.096	7.62
679.283	7.65
679.471	7.72
679.658	7.71
679.846	7.69
680.033	7.74
680.22	7.89
680.408	7.99
680.595	8.14
680.782	8.22
680.969	8.24
681.157	8.25
681.344	8.23
681.531	8.32
681.718	8.34
681.905	8.35
682.093	8.49
682.28	8.75
682.467	8.84
682.654	8.93
682.841	9.1
683.028	9.21
683.215	9.25
683.402	9.27
683.589	9.44
683.776	9.72
683.963	9.89
684.15	10.18
684.337	10.42
684.524	10.71
684.711	10.72
684.898	10.93
685.085	10.97
685.271	11.18
685.458	11.26
685.645	11.46
685.832	11.58
686.019	11.69
686.205	11.91
686.392	12.16
686.579	12.47
686.766	12.75
686.952	13.15
687.139	13.62
687.326	13.97
687.512	14.28
687.699	14.65
687.886	15.13
688.072	15.32
688.259	15.64
688.445	15.85
688.632	16.19
688.818	16.49
689.005	16.77
689.191	17.2
689.378	17.71
689.564	18.13
689.751	18.47
689.937	18.94
690.124	19.38
690.31	19.88
690.496	20.25
690.683	20.72
690.869	21.22
691.055	21.71
691.242	22.25
691.428	22.8
691.614	23.54
691.8	24.11
691.987	24.72
692.173	25.35
692.359	26.06
692.545	26.49
692.731	26.93
692.918	27.39
693.104	27.78
693.29	28.44
693.476	28.94
693.662	29.64
693.848	30.2
694.034	30.89
694.22	31.47
694.406	32.21
694.592	32.76
694.778	33.6
694.964	34.27
695.15	34.8
695.336	35.47
695.522	36.14
695.708	36.67
695.894	37.23
696.08	37.85
696.265	38.39
696.451	39.01
696.637	39.53
696.823	40.15
697.009	40.83
697.194	41.55
697.38	42.24
697.566	42.88
697.751	43.46
697.937	43.97
698.123	44.6
698.308	45.15
698.494	45.71
698.68	46.52
698.865	46.94
699.051	47.23
699.236	47.73
699.422	48.38
699.607	48.53
699.793	49.19
699.978	49.76
700.164	50.32
700.349	50.68
700.535	51.19
700.72	51.69
700.906	52.2
701.091	52.44
701.276	52.99
701.462	53.56
701.647	53.85
701.832	54.29
702.018	55.11
702.203	55.43
702.388	55.91
702.573	56.46
702.759	56.91
702.944	57.31
703.129	57.94
703.314	58.48
703.499	58.84
703.684	59.24
703.87	59.22
704.055	59.4
704.24	59.38
704.425	59.87
704.61	60.24
704.795	60.61
704.98	61.18
705.165	61.75
705.35	62.25
705.535	62.52
705.72	63.25
705.905	63.65
706.09	64.18
706.275	64.56
706.459	64.83
706.644	64.9
706.829	65.23
707.014	65.47
707.199	65.4
707.384	65.53
707.568	66.01
707.753	66.06
707.938	66.05
708.123	66.21
708.307	66.44
708.492	66.57
708.677	66.57
708.861	66.74
709.046	67.13
709.231	67.64
709.415	67.65
709.6	68.06
709.784	68.62
709.969	69.07
710.153	69.41
710.338	70.03
710.522	70.37
710.707	70.28
710.891	70.13
711.076	70.2
711.26	70.39
711.445	70.62
711.629	71.08
711.813	71.3
711.998	71.19
712.182	70.97
712.366	70.76
712.551	70.92
712.735	71.16
712.919	71.51
713.103	71.96
713.288	72.18
713.472	71.74
713.656	71.69
713.84	71.63
714.024	71.67
714.208	72.1
714.393	72.49
714.577	72.86
714.761	73.43
714.945	73.56
715.129	73.24
715.313	73.56
715.497	73.8
715.681	73.56
715.865	73.83
716.049	74.6
716.233	74.75
716.417	74.68
716.601	74.69
716.785	74.82
716.968	74.54
717.152	74.32
717.336	74.4
717.52	74.59
717.704	74.54
717.888	74.57
718.071	75.12
718.255	75.3
718.439	75.41
718.622	75.34
718.806	75.53
718.99	75.43
719.174	75.51
719.357	76.12
719.541	76.21
719.724	76.4
719.908	76.63
720.092	76.44
720.275	76.38
720.459	76.65
720.642	76.54
720.826	75.75
721.009	75.91
721.193	75.87
721.376	75.9
721.559	76.17
721.743	76.8
721.926	77.2
722.11	77.22
722.293	77.61
722.476	77.42
722.66	77.66
722.843	77.53
723.026	77.36
723.21	77.09
723.393	77.2
723.576	77.42
723.759	77.5
723.942	77.91
724.126	77.96
724.309	78.49
724.492	78.42
724.675	79.01
724.858	78.92
725.041	78.98
725.224	78.93
725.407	79.4
725.59	79.55
725.774	79.93
725.957	79.72
726.14	79.65
726.322	79.26
726.505	78.97
726.688	79.09
726.871	79.41
727.054	79.04
727.237	79.16
727.42	79.35
727.603	79.47
727.786	80.02
727.968	81.08
728.151	81.45
728.334	81.79
728.517	82.03
728.699	81.24
728.882	80.98
729.065	80.89
729.248	81.06
729.43	80.57
729.613	81.06
729.796	81.25
729.978	81.07
730.161	80.75
730.343	81.13
730.526	81.2
730.708	80.85
730.891	81.12
731.073	80.75
731.256	81.02
731.438	81.38
731.621	81.83
731.803	82.11
731.986	83.14
732.168	82.66
732.35	82.17
732.533	81.93
732.715	81.8
732.898	81.52
733.08	81.91
733.262	82.51
733.444	83.03
733.627	84.04
733.809	84.02
733.991	83.64
734.173	83.64
734.355	83.37
734.538	82.69
734.72	83.33
734.902	83.49
735.084	83.72
735.266	83.68
735.448	83.59
735.63	83.45
735.812	84.05
735.994	84.54
736.176	85.03
736.358	85.49
736.54	85.69
736.722	84.76
736.904	83.78
737.086	83.4
737.268	83.22
737.45	82.5
737.632	82.54
737.814	83.18
737.995	83.74
738.177	84.03
738.359	84.64
738.541	85.33
738.723	86.25
738.904	85.02
739.086	84.77
739.268	84.22
739.449	84.63
739.631	83.14
739.813	84.71
739.994	85.61
740.176	86.24
740.358	85.34
740.539	86.42
740.721	85.67
740.902	84.76
741.084	84.9
741.265	85.25
741.447	84.5
741.628	85.61
741.81	86.78
741.991	87
742.172	87.32
742.354	87.32
742.535	86.66
742.717	86.02
742.898	85.79
743.079	87.16
743.261	87.47
743.442	87.64
743.623	87
743.804	86.46
743.986	85.24
744.167	86.04
744.348	85.35
744.529	85.24
744.71	85.98
744.891	86.52
745.073	86.6
745.254	87.06
745.435	87.49
745.616	87.05
745.797	86.82
745.978	86.45
746.159	86.57
746.34	86.61
746.521	86.38
746.702	86.74
746.883	87.11
747.064	86.86
747.245	86.81
747.426	86.93
747.606	86.54
747.787	86
747.968	86.37
748.149	86.94
748.33	87.4
748.51	86.86
748.691	87.68
748.872	88.45
749.053	89.13
749.233	88.59
749.414	89.42
749.595	88.3
749.775	87.6
749.956	87.72
750.137	87.03
750.317	86.77
750.498	86.96
750.678	87.58
750.859	86.25
751.04	87.54
751.22	86.47
751.4	86.47
751.581	85.09
751.761	84.76
751.942	84.76
752.122	86
752.303	85.84
752.483	86.57
752.663	87.12
752.844	86.48
753.024	86.28
753.204	86.3
753.385	86.75
753.565	86.47
753.745	87.08
753.925	87.39
754.106	87.52
754.286	85.38
754.466	85.87
754.646	85.38
754.826	83.51
755.006	83.68
755.187	84.94
755.367	85.23
755.547	84.9
755.727	85.62
755.907	85.69
756.087	85.76
756.267	84.8
756.447	84.34
756.627	84.06
756.807	83.42
756.987	83.71
757.167	84.6
757.346	85.78
757.526	86.64
757.706	87.99
757.886	86.69
758.066	85.75
758.246	84.33
758.425	83.4
758.605	82.29
758.785	84
758.965	84.22
759.144	84.7
759.324	83.76
759.504	83.13
759.683	83
759.863	82.92
760.043	82.23
760.222	83.54
760.402	84.27
760.581	84.45
760.761	83.67
760.94	85
761.12	85.95
761.299	86.19
761.479	85.16
761.658	86.43
761.838	85.86
762.017	85.7
762.197	86.09
762.376	87.04
762.555	86.61
762.735	86.4
762.914	86.31
763.093	86.08
763.273	83.74
763.452	83.38
763.631	84.54
763.81	83.96
763.99	83.23
764.169	85.95
764.348	85.54
764.527	84
764.706	85.64
764.885	86.06
765.064	84.54
765.243	85.6
765.423	86.9
765.602	83.7
765.781	82.45
765.96	82.2
766.139	82.68
766.318	82.39
766.497	83.99
766.676	86.4
766.854	87.42
767.033	87.05
767.212	86.35
767.391	86.52
767.57	84.89
767.749	84.8
767.928	84.05
768.106	84
768.285	84.15
768.464	84.19
768.643	82.85
768.821	84.13
769	85.66
769.179	85.59
769.357	85.06
769.536	86.79
769.715	85.67
769.893	84.86
770.072	84.08
770.25	84.66
770.429	83.47
770.607	83.79
770.786	82.6
770.964	82.34
771.143	82.39
771.321	81.85
771.5	82.11
771.678	82.25
771.857	83.46
772.035	82.7
772.213	84.59
772.392	83.2
772.57	83.32
772.748	82.22
772.927	82.75
773.105	82.17
773.283	82.63
773.461	83.04
773.64	83.48
773.818	84.03
773.996	82.85
774.174	82.85
774.352	81.6
774.531	80.71
774.709	80.57
774.887	80.8
775.065	80.73
775.243	82.06
775.421	83.41
775.599	83.59
775.777	84.59
775.955	85.3
776.133	86.38
776.311	85.59
776.489	84.71
776.667	85.36
776.844	83.74
777.022	82.47
777.2	80.7
777.378	80.78
777.556	78.12
777.734	78.71
777.911	78.75
778.089	79.75
778.267	80.62
778.445	82.76
778.622	83.37
778.8	83.6
778.978	85.88
779.155	83
779.333	81.22
779.511	79.32
779.688	76.29
779.866	75.12
780.043	74.68
780.221	75.87
780.398	77.37
780.576	78.6
780.753	77.84
780.931	78.28
781.108	76.31
781.286	77.67
781.463	78.78
781.64	81.01
781.818	82.05
781.995	81.92
782.172	81.33
782.35	81.33
782.527	81.16
782.704	81.87
782.882	85.28
783.059	82.42
783.236	84.38
783.413	83.75
783.59	83.62
783.768	83.1
783.945	85.2
784.122	83.37
784.299	81.63
784.476	81.48
784.653	77.27
784.83	77.64
785.007	78.72
785.184	78.27
785.361	79.35
785.538	82.67
785.715	81.73
785.892	81.11
786.069	83.23
786.246	80.35
786.423	79.02
786.6	81.12
786.776	79.44
786.953	77.64
787.13	78.52
787.307	80.23
787.484	77.84
787.66	78.39
787.837	82.15
788.014	83.26
788.191	85.13
788.367	85.29
788.544	85.36
788.721	83.33
788.897	83.56
789.074	79.97
789.25	76.87
789.427	77.4
789.603	78.29
789.78	77.42
789.956	76.54
790.133	78.81
790.309	76.47
790.486	75.94
790.662	76.39
790.839	76.9
791.015	76.5
791.192	79.11
791.368	78.98
791.544	79.2
791.721	83.83
791.897	85.12
792.073	82.81
792.249	79.7
792.426	75.32
792.602	70.29
792.778	69.45
792.954	70.79
793.13	72.29
793.307	76.92
793.483	79
793.659	80.03
793.835	78.53
794.011	79.02
794.187	79.04
794.363	77.2
794.539	78.58
794.715	81.36
794.891	81.4
795.067	79.43
795.243	78.93
795.419	76.74
795.595	74.9
795.771	73.98
795.947	74.6
796.122	74.56
796.298	75.49
796.474	72.9
796.65	72.8
796.826	72.89
797.001	72.62
797.177	72.1
797.353	75.49
797.529	77.08
797.704	77.49
797.88	76.96
798.056	77.59
798.231	78.31
798.407	79.76
798.582	82.29
798.758	85.08
798.934	84.99
799.109	86.16
799.285	84.25
799.46	81.11
799.636	78.04
799.811	79.19
799.986	79.05
800.162	74.74
800.337	76.02
800.513	79.11
800.688	80.47
800.863	80.2
801.039	82.03
801.214	79.94
801.389	81.67
801.565	80.23
801.74	81.18
801.915	82.88
802.09	84.47
802.265	79.06
802.441	77.35
802.616	71.03
802.791	72.66
802.966	75.21
803.141	79.39
803.316	80.3
803.491	81.87
803.666	83.36
803.841	82.47
804.016	78.89
804.191	79.95
804.366	82.63
804.541	82.17
804.716	81.78
804.891	86.01
805.066	85.95
805.241	82.61
805.416	83.42
805.591	79.38
805.765	77.25
805.94	77.04
806.115	81.06
806.29	80.24
806.464	78.38
806.639	74.7
806.814	76.33
806.989	70.46
807.163	72.72
807.338	76.84
807.512	84.67
807.687	86.4
807.862	86.12
808.036	81.11
808.211	79.44
808.385	73.9
808.56	67.99
808.734	66.76
808.909	70.54
809.083	73.99
809.258	77.27
809.432	79.63
809.606	87.51
809.781	84.74
809.955	81.75
810.13	76.62
810.304	78.7
810.478	72.81
810.652	74.45
810.827	75.51
811.001	79.85
811.175	78.4
811.349	85.64
811.524	79.62
811.698	83.1
811.872	80.87
812.046	81.99
812.22	77.53
812.394	85.38
812.568	82.74
812.742	80.63
812.916	71.13
813.09	74.2
813.264	71.58
813.438	73.14
813.612	77.26
813.786	81.01
813.96	75.72
814.134	77.36
814.308	79.01
814.482	77.94
814.656	77.45
814.83	79.65
815.003	81.12
815.177	78.13
815.351	72.46
815.525	74.98
815.698	74.85
815.872	67.22
816.046	66.06
816.219	75.32
816.393	74.42
816.567	74.8
816.74	75.28
816.914	73.83
817.088	75.2
817.261	79.22
817.435	80.64
817.608	80.13
817.782	82.92
817.955	68.84
818.129	59.93
818.302	61.92
818.475	69.97
818.649	73.93
818.822	87.71
818.996	103.89
819.169	96.37
819.342	87.95
819.516	85.96
819.689	85.38
819.862	77.5
820.035	75.21
820.209	73.05
820.382	74.44
820.555	70.78
820.728	72.92
820.901	79
821.075	80.99
821.248	62.64
821.421	65.14
821.594	69.64
821.767	71.6
821.94	72.85
822.113	87.84
822.286	84.76
822.459	79.05
822.632	80.5
822.805	81.27
822.978	94.23
823.151	100.38
823.324	103.78
823.496	93.37
823.669	82.28
823.842	74.36
824.015	69.96
824.188	67.89
824.361	68.2
824.533	71.87
824.706	81.25
824.879	78.31
825.051	78.92
825.224	82.23
825.397	88.87
825.569	82.48
825.742	91.45
825.915	86.77
826.087	84.15
826.26	69.41
826.432	73.65
826.605	55
826.777	59.98
826.95	63.39
827.122	67.56
827.295	61.94
827.467	75.19
827.64	69.7
827.812	67.05
827.984	70.3
828.157	66.06
828.329	59.36
828.501	61.34
828.674	52.36
828.846	56.2
829.018	55.26
829.19	68.9
829.363	72.33
829.535	80.22
829.707	84.15
829.879	86.57
830.051	78.14
830.223	75.94
830.395	98.55
830.568	86.7
830.74	98.48
830.912	82.25
831.084	80.41
831.256	73.47
831.428	64.42
831.6	49.83
831.772	58.58
831.943	62.23
832.115	64.99
832.287	84.22
832.459	94.62
832.631	90.31
832.803	93.86
832.975	94.49
833.146	82.53
833.318	84.06
833.49	86.53
833.662	77.22
833.833	89.7
834.005	101.84
834.177	105.92
834.348	92.24
834.52	91.17
834.692	73.62
834.863	57.52
835.035	58.91
835.206	65.89
835.378	67.38
835.549	75.76
835.721	89.92
835.892	79.62
836.064	74.32
836.235	76.57
836.407	78.96
836.578	72.82
836.749	70.23
836.921	65.37
837.092	68.14
837.264	59.29
837.435	44.41
837.606	55.04
837.777	76.98
837.949	67.7
838.12	60.8
838.291	68.62
838.462	87.8
838.633	85.39
838.805	84.08
838.976	75.16
839.147	69.32
839.318	55.49
839.489	59.38
839.66	64.78
839.831	67.98
840.002	75.78
840.173	76.46
840.344	64.45
840.515	68.84
840.686	85.25
840.857	73.46
841.028	78.03
841.199	85.98
841.369	82.86
841.54	59.26
841.711	83.7
841.882	77.73
842.053	82.08
842.223	66.96
842.394	84.69
842.565	69.29
842.736	53.96
842.906	40.35
843.077	50.61
843.248	47.99
843.418	53.02
843.589	62.62
843.759	36.81
843.93	46.33
844.101	53.45
844.271	58.84
844.442	47.04
844.612	90.35
844.783	97.45
844.953	90.57
845.123	74.54
845.294	95.66
845.464	68.99
845.635	59.04
845.805	56.49
845.975	75.95
846.146	72.88
846.316	77.03
846.486	85.97
846.656	87.09
846.827	78.89
846.997	66.29
847.167	71.53
847.337	79.27
847.507	74.75
847.677	81.09
847.848	111.14
848.018	128.37
848.188	116.17
848.358	98.08
848.528	79.44
848.698	52.62
848.868	39.72
849.038	33.8
849.208	37.9
849.378	8.42
849.548	11.68
849.718	26.94
849.887	44.45
850.057	54.54
850.227	65.49
850.397	73.3
850.567	82.56
850.737	116.68
850.906	100.98
851.076	108.56
851.246	112.88
851.415	112
851.585	62.37
851.755	107.5
851.924	87.73
852.094	87.32
852.264	84.34
852.433	94.01
852.603	82.51
852.772	101.33
852.942	111.09
853.111	116.7
853.281	125.71
853.45	102.48
853.62	93.37
853.789	70.1
853.959	49.48
854.128	39.6
854.297	27.42
854.467	24.44
854.636	44.71
854.805	52.3
854.975	67.26
855.144	92.25
855.313	101.02
855.482	115.68
855.652	99.97
855.821	80.81
855.99	56.21
856.159	41.01
856.328	5
856.497	26.59
856.667	23.71
856.836	68.38
857.005	62.25
857.174	15.43
857.343	49.29
857.512	80.67
857.681	72.6
857.85	92.34
858.019	114.9
858.188	126.16
858.356	106.39
858.525	106.35
858.694	89.68
858.863	84.82
859.032	71.19
859.201	48.38
859.369	56.38
859.538	86.95
859.707	70.63
859.876	70.9
860.044	98.51
860.213	77.73
860.382	60.25
860.55	77.77
860.719	90.83
860.888	70.46
861.056	72.89
861.225	58.86
861.393	62.28
861.562	44.61
861.73	63.03
861.899	30.67
862.067	47.5
862.236	40.2
862.404	40.29
862.572	50.98
862.741	51.14
862.909	70.03
863.078	78.98
863.246	76.15
863.414	69.39
863.582	76.35
863.751	65.04
863.919	58.06
864.087	71.69
864.255	67.29
864.424	65.2
864.592	61.26
864.76	46.14
864.928	21.47
865.096	35.94
865.264	44.32
865.432	34.28
865.6	33.5
865.768	30.32
865.936	-33.67
866.104	-12.1
866.272	9.77
866.44	11.43
866.608	16.59
866.776	52.54
866.944	55.9
867.112	48.81
867.28	71.59
867.448	85.99
867.615	84.25
867.783	65.23
867.951	74.02
868.119	76.97
868.286	60.38
868.454	77.16
868.622	77.45
868.789	74.66
868.957	48.98
869.125	110.81
869.292	70.87
869.46	77.83
869.627	90.92
869.795	78.1
869.963	45.82
870.13	53.11
870.298	60.98
870.465	61.22
870.632	21.67
870.8	30.41
870.967	37.09
871.135	52.07
871.302	19.65
871.469	84.21
871.637	131.27
871.804	85.59
871.971	118.84
872.139	93.41
872.306	79.65
872.473	44.68
872.64	39.32
872.807	9.62
872.975	52.99
873.142	61.81
873.309	15.76
873.476	47.57
873.643	28.51
873.81	34.54
873.977	64.82
874.144	111.55
874.311	128.68
874.478	156.42
874.645	111.23
874.812	78.08
874.979	34.5
875.146	29.96
875.313	-3.75
875.48	40.2
875.647	52.45
875.813	68.27
875.98	68.8
876.147	75.82
876.314	65.48
876.481	64.5
876.647	72.81
876.814	69.88
876.981	85.91
877.147	103.84
877.314	97.47
877.481	118.11
877.647	141.13
877.814	105.71
877.98	50.94
878.147	54.29
878.314	50.02
878.48	62.06
878.647	57.31
878.813	71.52
878.979	83.02
879.146	67.16
879.312	47.95
879.479	24
879.645	4.05
879.811	1.3
879.978	11.27
880.144	26.21
880.31	60.27
880.477	53.54
880.643	-10.49
880.809	-78.9
880.975	-20.54
881.142	-19.6
881.308	25.14
881.474	37.08
881.64	32.12
881.806	12.56
881.972	29.33
882.138	-75.37
882.304	-38.34
882.47	-18.14
882.636	-40.15
882.802	-44.3
882.968	-5.88
883.134	20.5
883.3	73.28
883.466	97.51
883.632	63.15
883.798	87.36
883.964	78.13
884.129	21.73
884.295	-16.4
884.461	-17.06
884.627	-24.8
884.793	-87.72
884.958	-46.94
885.124	-15.95
885.29	-18.44
885.455	49.73
885.621	92.83
885.787	69.77
885.952	60.65
886.118	101.52
886.283	78.12
886.449	120.85
886.614	129.4
886.78	152.33
886.945	88.91
887.111	101.1
887.276	58.92
887.442	74.92
887.607	52.48
887.773	85.83
887.938	63.64
888.103	75.94
888.269	48.98
888.434	58
888.599	56.09
888.764	72.03
888.93	87.04
889.095	64.47
889.26	53.19
889.425	44.37
889.59	27.38
889.756	10.12
889.921	42.65
890.086	68.25
890.251	49.21
890.416	85.32
890.581	97.15
890.746	105.7
890.911	69.97
891.076	-13.69
891.241	205.39
891.406	53.73
891.571	63.18
891.736	70.19
891.901	78.23
892.065	198.1
892.23	139.73
892.395	174.98
892.56	665.8
892.725	149.26
892.889	71.61
893.054	54.09
893.219	62.46
893.384	66.33
893.548	58.77
893.713	65.04
893.878	68.97
