Data from Ofra_PS_Phys_1GT42_Reflection_1.txt Node
Date: Tue Jul 20 17:51:27 EDT 2021
User: USUARIO
Spectrometer: FLMT01687
Trigger mode: 0
Integration Time (sec): 1.042999E0
Scans to average: 2
Electric dark correction enabled: true
Nonlinearity correction enabled: false
Boxcar width: 2
XAxis mode: Wavelengths
Number of Pixels in Spectrum: 3648
>>>>>Begin Spectral Data<<<<<
179.494	-1.01
179.716	-48.85
179.937	-82.49
180.158	-655.71
180.38	-447.19
180.601	434.22
180.823	288.65
181.044	-129.64
181.265	-934.3
181.486	-11.6
181.708	-36.02
181.929	-47.92
182.15	57.76
182.372	-220.07
182.593	7.47
182.814	-5.36
183.035	15.42
183.257	35.25
183.478	47.58
183.699	55.03
183.92	59.93
184.141	82.55
184.363	66.61
184.584	57.19
184.805	71.59
185.026	88.61
185.247	92.56
185.468	86.67
185.689	89.04
185.91	72.09
186.132	60.28
186.353	40.2
186.574	49.53
186.795	58.8
187.016	55.46
187.237	50.04
187.458	34.39
187.679	42.61
187.9	46.81
188.121	89.93
188.342	35.92
188.563	43.12
188.784	44.17
189.005	51.96
189.226	55.36
189.447	73.39
189.667	81.42
189.888	89.79
190.109	92.9
190.33	83.34
190.551	100.12
190.772	99.52
190.993	95.78
191.214	96.63
191.434	85.73
191.655	68.91
191.876	57.01
192.097	52.29
192.318	75.87
192.538	90.84
192.759	69.92
192.98	64.85
193.201	88.11
193.421	48.49
193.642	69.72
193.863	77.47
194.083	83.62
194.304	72.79
194.525	84.38
194.745	60.35
194.966	45.42
195.187	51.49
195.407	51.49
195.628	71.13
195.848	58.58
196.069	83.23
196.29	61.87
196.51	65.8
196.731	53.91
196.951	57.97
197.172	47.46
197.392	72.22
197.613	59.83
197.833	78.8
198.054	69.11
198.274	66.7
198.495	53.68
198.715	61.67
198.936	52.04
199.156	55.48
199.377	56.77
199.597	71.58
199.817	57.87
200.038	69.75
200.258	70.57
200.479	105.17
200.699	115.5
200.919	110.13
201.14	111.6
201.36	94.36
201.58	24.28
201.801	53.07
202.021	78.37
202.241	37.66
202.461	176.32
202.682	186.71
202.902	178.66
203.122	107.19
203.342	138.01
203.563	113.17
203.783	108.11
204.003	113.5
204.223	139.25
204.443	186.62
204.663	100.61
204.884	139.24
205.104	99.48
205.324	99.33
205.544	69.61
205.764	84.15
205.984	65.11
206.204	35.13
206.424	37.41
206.644	24.48
206.864	28.26
207.084	25.7
207.304	39.84
207.525	17.35
207.745	20.52
207.964	9.87
208.184	32.06
208.404	31.3
208.624	43.45
208.844	61.98
209.064	62.82
209.284	59.16
209.504	81.97
209.724	70.97
209.944	72.53
210.164	74.45
210.384	96.58
210.604	87.9
210.823	107.2
211.043	69.98
211.263	68.72
211.483	50.02
211.703	38.97
211.922	35.27
212.142	56.86
212.362	43.03
212.582	48.58
212.801	39.45
213.021	64.22
213.241	64.28
213.461	122.61
213.68	106.54
213.9	128.05
214.12	103.79
214.339	122.34
214.559	69.77
214.779	58.38
214.998	99
215.218	109.65
215.438	85.1
215.657	75.11
215.877	85.03
216.096	76.3
216.316	53.01
216.535	55.64
216.755	60.94
216.974	43.73
217.194	48.55
217.413	49.81
217.633	41.81
217.852	32.04
218.072	34.46
218.291	21.26
218.511	30.25
218.73	16.42
218.95	18.49
219.169	23.83
219.389	28.53
219.608	11.72
219.827	50.71
220.047	61.49
220.266	70.01
220.485	50.25
220.705	67.94
220.924	43.89
221.143	49.43
221.363	48.56
221.582	64.6
221.801	52.61
222.021	103.13
222.24	54.28
222.459	43.44
222.678	46.9
222.897	50.67
223.117	48.72
223.336	56.46
223.555	51.58
223.774	45.39
223.993	40.35
224.213	25
224.432	59.98
224.651	51.43
224.87	51.51
225.089	32.89
225.308	44.2
225.527	31.25
225.746	32.12
225.965	37.97
226.184	66.24
226.404	66.54
226.623	47.67
226.842	68.92
227.061	61.63
227.28	45.56
227.499	32.7
227.718	44.49
227.936	54.46
228.155	50.95
228.374	41.4
228.593	48.65
228.812	47.37
229.031	34.61
229.25	30.4
229.469	53.16
229.688	47.68
229.907	52.25
230.125	50.1
230.344	56.91
230.563	40.23
230.782	40.29
231.001	31.16
231.22	24.84
231.438	25.65
231.657	24.38
231.876	34.92
232.095	30.68
232.313	34.5
232.532	32.31
232.751	34.68
232.969	37.29
233.188	57.14
233.407	60.66
233.625	88.45
233.844	87.61
234.063	82.85
234.281	73.99
234.5	82.58
234.719	79.69
234.937	89.9
235.156	85.44
235.374	93.81
235.593	102.04
235.811	120.83
236.03	64.89
236.249	39.56
236.467	51.18
236.686	35.84
236.904	37.53
237.123	52.81
237.341	78.87
237.559	76.05
237.778	82.95
237.996	80.64
238.215	85.63
238.433	57.23
238.652	42.04
238.87	23.57
239.088	11.64
239.307	28.22
239.525	34.21
239.743	37.8
239.962	38.19
240.18	40.78
240.398	22
240.617	38.03
240.835	47.98
241.053	66.63
241.271	66.13
241.49	68.31
241.708	54.6
241.926	43.56
242.144	29.36
242.363	25.12
242.581	22.87
242.799	20
243.017	26.73
243.235	25.69
243.453	15.24
243.672	25.04
243.89	29.75
244.108	42.6
244.326	40.57
244.544	48.73
244.762	41.63
244.98	28.42
245.198	13.33
245.416	31.32
245.634	45.77
245.852	49.76
246.07	76.8
246.288	88.42
246.506	85
246.724	79.16
246.942	70.05
247.16	55.92
247.378	47.18
247.596	50.53
247.814	42.35
248.032	44.54
248.25	36.85
248.468	45.81
248.685	40.61
248.903	36.37
249.121	33.28
249.339	30.37
249.557	37.13
249.775	44.82
249.992	49.71
250.21	45.91
250.428	31.56
250.646	13.56
250.863	19.27
251.081	24.39
251.299	25.45
251.517	46.28
251.734	70.36
251.952	57.12
252.17	63.91
252.387	61.93
252.605	46.52
252.823	51.26
253.04	62.05
253.258	62.09
253.475	55.39
253.693	78.82
253.911	73.91
254.128	72.74
254.346	70.52
254.563	78.18
254.781	68.39
254.998	93.21
255.216	75.83
255.433	66.82
255.651	48.94
255.868	47.42
256.086	40.29
256.303	30.73
256.521	34.95
256.738	36.98
256.956	44.06
257.173	37.31
257.39	56.84
257.608	51.83
257.825	97.6
258.043	75.77
258.26	80.41
258.477	82.72
258.695	76.9
258.912	45.42
259.129	64.03
259.346	52.82
259.564	40.7
259.781	56.3
259.998	55.04
260.216	47.93
260.433	51.04
260.65	59.65
260.867	49.49
261.084	54.34
261.302	55.75
261.519	54.43
261.736	35.47
261.953	29.45
262.17	28.04
262.387	13.81
262.604	-0.04
262.822	25.69
263.039	33.65
263.256	34.93
263.473	30.78
263.69	37.07
263.907	52.64
264.124	56.46
264.341	68.3
264.558	86.75
264.775	92.64
264.992	96
265.209	71.02
265.426	45.69
265.643	17.07
265.86	-5.98
266.077	-16.86
266.294	6.14
266.51	32.83
266.727	75.68
266.944	100.31
267.161	93.68
267.378	77.07
267.595	68.86
267.812	46.85
268.028	40.93
268.245	44.63
268.462	39.91
268.679	27.71
268.896	46.94
269.112	58.59
269.329	59.04
269.546	48.88
269.763	67.9
269.979	44.02
270.196	28.2
270.413	37.61
270.629	31.2
270.846	28.77
271.063	22.53
271.279	19.39
271.496	10.97
271.712	38.19
271.929	33.89
272.146	44.53
272.362	57.57
272.579	41.84
272.795	15.22
273.012	45.64
273.228	30.23
273.445	25.88
273.661	43.94
273.878	47.88
274.094	29.79
274.311	39.63
274.527	39.64
274.744	19.71
274.96	26.08
275.177	16.18
275.393	12.49
275.609	23.64
275.826	53.87
276.042	47.19
276.259	62.77
276.475	69.42
276.691	67.21
276.908	54.88
277.124	70.69
277.34	48.88
277.557	44.06
277.773	33.34
277.989	32.99
278.205	20.63
278.422	60.57
278.638	62.92
278.854	74.86
279.07	77.33
279.286	72.29
279.503	43.48
279.719	34.17
279.935	35.97
280.151	48.01
280.367	62.73
280.583	91.98
280.799	102.64
281.016	71.72
281.232	65.61
281.448	43.71
281.664	40.95
281.88	22.19
282.096	16.46
282.312	21.44
282.528	31.72
282.744	19.05
282.96	25.69
283.176	33.88
283.392	18.03
283.608	8.37
283.824	8.16
284.04	24.01
284.256	24.21
284.471	59.43
284.687	77.36
284.903	80.04
285.119	49.32
285.335	52.58
285.551	27.28
285.767	26.11
285.982	44.38
286.198	62.59
286.414	47.96
286.63	48.58
286.846	59.58
287.061	51.36
287.277	65.43
287.493	79.28
287.709	95.88
287.924	78.43
288.14	82.67
288.356	63.79
288.571	66.54
288.787	35.64
289.003	14.9
289.218	30.4
289.434	35.24
289.65	19.09
289.865	31.53
290.081	47.87
290.296	35.74
290.512	40.37
290.727	44.82
290.943	27.62
291.159	41.14
291.374	30.04
291.59	15.47
291.805	22.95
292.021	45.4
292.236	49.55
292.451	53.6
292.667	57.71
292.882	54.42
293.098	59.93
293.313	42.45
293.529	52.87
293.744	50.54
293.959	41.39
294.175	36.99
294.39	25.14
294.605	9.91
294.821	3.47
295.036	0.26
295.251	23.82
295.467	41.37
295.682	44.3
295.897	49.66
296.112	52.05
296.328	50.75
296.543	31.92
296.758	34.55
296.973	33.02
297.188	48.13
297.404	34.9
297.619	41.11
297.834	24.89
298.049	7.77
298.264	8.9
298.479	13.34
298.694	20.45
298.909	37.27
299.125	57.55
299.34	95.15
299.555	84.99
299.77	113.95
299.985	133.34
300.2	97.72
300.415	55.29
300.63	59.83
300.845	45.51
301.06	27.55
301.275	34.94
301.49	36.58
301.704	36.41
301.919	39.13
302.134	27.3
302.349	32.61
302.564	35.98
302.779	38.11
302.994	44.75
303.209	49.82
303.423	45.48
303.638	27.79
303.853	34.75
304.068	35.75
304.283	32.84
304.497	29.97
304.712	49.17
304.927	44.28
305.142	19.45
305.356	25.61
305.571	29.17
305.786	21.38
306	16.76
306.215	39.88
306.43	39.35
306.644	47.39
306.859	60.34
307.074	56.79
307.288	52.75
307.503	59.87
307.717	50.29
307.932	27.98
308.147	35.58
308.361	26.72
308.576	22.48
308.79	27.19
309.005	35.1
309.219	23.39
309.434	30.38
309.648	18.93
309.863	18.29
310.077	57
310.292	80
310.506	71.91
310.72	77.18
310.935	70.63
311.149	53.26
311.364	48.31
311.578	57.43
311.792	47.39
312.007	60.57
312.221	42.14
312.435	37.07
312.649	27.44
312.864	42.84
313.078	38.25
313.292	62.87
313.507	54.92
313.721	61.33
313.935	70.63
314.149	70.89
314.363	55.39
314.578	62.52
314.792	51.13
315.006	45.33
315.22	51.49
315.434	40.97
315.648	28.22
315.862	30.09
316.077	3.89
316.291	0.81
316.505	10.65
316.719	25.81
316.933	31.23
317.147	41.81
317.361	31.98
317.575	52.98
317.789	50.37
318.003	51.03
318.217	46.88
318.431	47.56
318.645	29.91
318.859	32.7
319.073	44.61
319.287	35.4
319.5	50.91
319.714	47.73
319.928	48.11
320.142	32.11
320.356	37.53
320.57	36.25
320.784	33.18
320.997	37.63
321.211	35.62
321.425	55.34
321.639	57.14
321.853	69.75
322.066	66.81
322.28	69.59
322.494	49.05
322.707	50.59
322.921	49.78
323.135	33.44
323.349	30.11
323.562	15.23
323.776	6.54
323.989	11.5
324.203	8.15
324.417	-11.36
324.63	9.13
324.844	21.36
325.057	33.84
325.271	44.89
325.485	68.42
325.698	48.59
325.912	47.81
326.125	28.35
326.339	22.55
326.552	27.21
326.766	37.12
326.979	32.47
327.193	34.71
327.406	38.59
327.619	56
327.833	67.34
328.046	68.9
328.26	71.3
328.473	63.86
328.686	39.3
328.9	22.57
329.113	35.47
329.326	48.07
329.54	57.86
329.753	55.78
329.966	55.77
330.179	48.92
330.393	48.56
330.606	31.92
330.819	31.96
331.032	33.47
331.246	26.16
331.459	21.69
331.672	31.6
331.885	41.6
332.098	47.27
332.311	39.66
332.525	30.64
332.738	14.71
332.951	21.2
333.164	17.55
333.377	15.78
333.59	32
333.803	49.75
334.016	47.49
334.229	51.12
334.442	56
334.655	40.91
334.868	41.78
335.081	46.36
335.294	43.94
335.507	45.57
335.72	50.62
335.933	51.19
336.146	38.99
336.359	39.97
336.572	41.27
336.785	43.78
336.997	31.14
337.21	35.68
337.423	37.76
337.636	34.37
337.849	37.57
338.062	29.13
338.274	26.83
338.487	22.76
338.7	26.51
338.913	12.32
339.125	22.06
339.338	28.42
339.551	26.43
339.763	33.28
339.976	43.18
340.189	60.51
340.402	56.84
340.614	49.86
340.827	49.79
341.039	45.67
341.252	26.41
341.465	37.97
341.677	57.64
341.89	49.59
342.102	60.86
342.315	58.61
342.527	38.03
342.74	54.83
342.952	60.74
343.165	53.49
343.377	57.48
343.59	63.43
343.802	58.67
344.015	63.07
344.227	61.53
344.44	70.37
344.652	74.08
344.864	66.58
345.077	52.31
345.289	50.91
345.502	37.97
345.714	38.1
345.926	38.5
346.139	41.55
346.351	50.17
346.563	56.48
346.775	42.73
346.988	60.9
347.2	67.79
347.412	49.38
347.624	51.94
347.837	48.69
348.049	38.77
348.261	33.34
348.473	37.59
348.685	39.54
348.897	36.96
349.11	47.35
349.322	33.79
349.534	44.62
349.746	44.5
349.958	50.16
350.17	49.74
350.382	70.01
350.594	58.75
350.806	67.65
351.018	68.37
351.23	59.18
351.442	53.34
351.654	54.69
351.866	48.13
352.078	40.06
352.29	36.47
352.502	30.54
352.714	38.83
352.926	33.46
353.138	23.03
353.35	25.05
353.561	36.97
353.773	27.5
353.985	37.64
354.197	51.52
354.409	50.95
354.621	61.75
354.832	45.38
355.044	20.19
355.256	16.14
355.468	23.34
355.679	18.61
355.891	33.98
356.103	57.19
356.314	54.07
356.526	44.96
356.738	36.13
356.949	42.11
357.161	51.17
357.373	59.82
357.584	63.32
357.796	42.52
358.008	40.5
358.219	31.51
358.431	27.71
358.642	32.86
358.854	52.01
359.065	43.56
359.277	31.06
359.488	32.09
359.7	14.7
359.911	-3.37
360.123	11.75
360.334	32.12
360.546	40.86
360.757	49.25
360.969	50.57
361.18	42.35
361.391	29.92
361.603	24.04
361.814	31.95
362.025	43.18
362.237	47.81
362.448	41.81
362.659	35.1
362.871	20.6
363.082	11.88
363.293	10.84
363.504	20.67
363.716	19.57
363.927	22.34
364.138	18.33
364.349	20.95
364.56	19.14
364.772	37.2
364.983	53.31
365.194	55.06
365.405	34.22
365.616	28.35
365.827	23.1
366.038	13.12
366.25	23.99
366.461	44.66
366.672	48.69
366.883	45.02
367.094	48.08
367.305	34.1
367.516	24.07
367.727	23.72
367.938	25.58
368.149	26.52
368.36	22.22
368.571	46.35
368.781	52.12
368.992	53.33
369.203	47.57
369.414	47.19
369.625	24.84
369.836	15.79
370.047	12.68
370.258	14.7
370.468	14.98
370.679	25.26
370.89	27.09
371.101	25.49
371.312	28.59
371.522	29.66
371.733	34.59
371.944	37.49
372.155	44.35
372.365	40.18
372.576	40.38
372.787	37.89
372.997	38.17
373.208	46.11
373.419	50.07
373.629	56.65
373.84	51.57
374.05	36.85
374.261	26.23
374.472	22.27
374.682	32.23
374.893	31.44
375.103	45.09
375.314	42.18
375.524	34.02
375.735	40.69
375.945	40.1
376.156	29.65
376.366	33.97
376.577	45.81
376.787	32.27
376.997	32.38
377.208	37.8
377.418	34.74
377.629	34.38
377.839	34.75
378.049	31.89
378.26	32.16
378.47	38.62
378.68	29.44
378.89	27.88
379.101	48.93
379.311	45.94
379.521	42.97
379.732	50.62
379.942	52.21
380.152	38.66
380.362	41.65
380.572	38.86
380.783	37.98
380.993	45.9
381.203	42.98
381.413	37.7
381.623	30.74
381.833	25.04
382.043	-1.25
382.253	-18.64
382.463	-6.06
382.674	-6.16
382.884	5
383.094	24.92
383.304	36.6
383.514	40.8
383.724	45.29
383.934	34.8
384.144	30.29
384.353	28.9
384.563	23.9
384.773	23.8
384.983	25.26
385.193	24.09
385.403	19.29
385.613	20.32
385.823	16.09
386.033	11.1
386.242	14.78
386.452	8.97
386.662	7.89
386.872	10
387.082	12.64
387.291	8.84
387.501	14.24
387.711	16.15
387.921	17.95
388.13	22.87
388.34	24.46
388.55	25.28
388.759	21.16
388.969	20.03
389.179	19.46
389.388	19.07
389.598	16.5
389.807	16.6
390.017	17.26
390.227	15.71
390.436	9.45
390.646	8.42
390.855	7.75
391.065	4.48
391.274	4.36
391.484	9.05
391.693	9.5
391.903	11.89
392.112	13.06
392.322	11.96
392.531	11.23
392.74	10.58
392.95	8.48
393.159	7.87
393.369	7.66
393.578	6.73
393.787	6.87
393.997	7.05
394.206	6.26
394.415	6.98
394.625	8.53
394.834	8.68
395.043	8.4
395.252	9.73
395.462	9.91
395.671	8.24
395.88	8.17
396.089	7.57
396.298	6.98
396.508	5.92
396.717	6.78
396.926	7.77
397.135	8.25
397.344	7.45
397.553	7.52
397.762	7.28
397.971	6.31
398.181	5.92
398.39	6.53
398.599	6.26
398.808	5.91
399.017	6.46
399.226	7.51
399.435	7.8
399.644	7.77
399.853	7.81
400.062	7.21
400.27	6.78
400.479	6.18
400.688	6.62
400.897	6.8
401.106	6.93
401.315	6.76
401.524	7.33
401.733	7.23
401.941	7.19
402.15	7.2
402.359	7.08
402.568	6.68
402.777	6.57
402.985	6.15
403.194	6.08
403.403	5.88
403.612	5.92
403.82	5.87
404.029	6.21
404.238	6.1
404.446	6.11
404.655	6.02
404.864	6.03
405.072	5.86
405.281	6.17
405.489	6.15
405.698	6.21
405.906	6.2
406.115	6.23
406.324	5.86
406.532	5.94
406.741	5.9
406.949	5.77
407.158	5.82
407.366	5.87
407.574	5.77
407.783	5.72
407.991	5.84
408.2	5.81
408.408	5.84
408.617	5.92
408.825	5.79
409.033	5.69
409.242	5.7
409.45	5.65
409.658	5.63
409.867	5.73
410.075	5.73
410.283	5.6
410.491	5.54
410.7	5.48
410.908	5.47
411.116	5.55
411.324	5.52
411.533	5.48
411.741	5.54
411.949	5.48
412.157	5.46
412.365	5.5
412.573	5.63
412.781	5.66
412.99	5.7
413.198	5.66
413.406	5.73
413.614	5.78
413.822	5.6
414.03	5.61
414.238	5.59
414.446	5.71
414.654	5.67
414.862	5.82
415.07	5.78
415.278	5.9
415.486	5.72
415.694	5.61
415.902	5.36
416.109	5.29
416.317	5.21
416.525	5.15
416.733	5.16
416.941	5.28
417.149	5.4
417.357	5.44
417.564	5.43
417.772	5.44
417.98	5.41
418.188	5.47
418.395	5.24
418.603	5.26
418.811	5.24
419.019	5.28
419.226	5.15
419.434	5.1
419.642	5.16
419.849	5.09
420.057	5.1
420.265	4.99
420.472	5.04
420.68	4.94
420.887	4.96
421.095	4.97
421.302	5
421.51	5.02
421.717	5.14
421.925	5.16
422.132	5.03
422.34	5.12
422.547	5.13
422.755	4.99
422.962	4.98
423.17	5.07
423.377	5.03
423.585	5.04
423.792	5.03
423.999	5.13
424.207	4.92
424.414	4.71
424.621	4.82
424.829	4.69
425.036	4.56
425.243	4.7
425.451	4.96
425.658	4.81
425.865	5.08
426.072	5.05
426.28	5.12
426.487	4.99
426.694	5.11
426.901	5.09
427.108	5.25
427.315	5.22
427.523	5.34
427.73	5.34
427.937	5.14
428.144	5.04
428.351	4.93
428.558	4.72
428.765	4.59
428.972	4.61
429.179	4.54
429.386	4.67
429.593	4.66
429.8	4.8
430.007	4.99
430.214	5.09
430.421	5.04
430.628	5.16
430.835	5.07
431.042	4.96
431.249	4.99
431.456	4.87
431.662	4.92
431.869	5.01
432.076	5.06
432.283	4.98
432.49	5.16
432.697	5.01
432.903	4.89
433.11	4.99
433.317	4.96
433.524	4.99
433.73	4.96
433.937	5.11
434.144	4.98
434.35	5.06
434.557	4.95
434.764	5.09
434.97	4.86
435.177	4.95
435.384	4.89
435.59	5
435.797	5.07
436.003	5.24
436.21	5.19
436.416	5.29
436.623	5.19
436.829	5.2
437.036	5.19
437.242	5.19
437.449	5.1
437.655	5.2
437.862	5.18
438.068	5.15
438.275	5.16
438.481	5.28
438.687	5.16
438.894	5.24
439.1	5.37
439.307	5.41
439.513	5.42
439.719	5.51
439.926	5.43
440.132	5.52
440.338	5.54
440.544	5.49
440.751	5.68
440.957	5.66
441.163	5.61
441.369	5.72
441.575	5.71
441.782	5.61
441.988	5.69
442.194	5.67
442.4	5.57
442.606	5.59
442.812	5.59
443.018	5.56
443.224	5.64
443.431	5.75
443.637	5.77
443.843	5.78
444.049	5.89
444.255	5.86
444.461	5.88
444.667	5.98
444.873	6.03
445.079	6.06
445.284	6.13
445.49	6.08
445.696	6.03
445.902	5.98
446.108	5.91
446.314	5.84
446.52	5.97
446.726	6.09
446.931	6.21
447.137	6.23
447.343	6.21
447.549	6.2
447.755	6.11
447.96	6.08
448.166	6.15
448.372	6.21
448.578	6.15
448.783	6.22
448.989	6.15
449.195	6.14
449.4	6.09
449.606	6.07
449.812	6.01
450.017	6.1
450.223	6.1
450.428	6.2
450.634	6.27
450.84	6.35
451.045	6.43
451.251	6.43
451.456	6.49
451.662	6.43
451.867	6.49
452.073	6.45
452.278	6.35
452.483	6.21
452.689	6.22
452.894	6.18
453.1	6.19
453.305	6.33
453.51	6.41
453.716	6.41
453.921	6.29
454.127	6.19
454.332	6.06
454.537	6.04
454.742	6.04
454.948	6.11
455.153	6.26
455.358	6.32
455.563	6.39
455.769	6.3
455.974	6.3
456.179	6.29
456.384	6.29
456.589	6.19
456.795	6.36
457	6.33
457.205	6.21
457.41	6.29
457.615	6.45
457.82	6.38
458.025	6.48
458.23	6.45
458.435	6.45
458.64	6.36
458.845	6.36
459.05	6.23
459.255	6.44
459.46	6.45
459.665	6.49
459.87	6.5
460.075	6.56
460.28	6.49
460.485	6.6
460.69	6.62
460.895	6.64
461.099	6.69
461.304	6.73
461.509	6.71
461.714	6.72
461.919	6.83
462.123	6.78
462.328	6.73
462.533	6.74
462.738	6.79
462.942	6.71
463.147	6.67
463.352	6.76
463.556	6.74
463.761	6.73
463.966	6.75
464.17	6.91
464.375	6.96
464.58	6.98
464.784	6.97
464.989	6.95
465.193	6.96
465.398	6.89
465.602	6.84
465.807	6.78
466.011	6.8
466.216	6.78
466.42	6.86
466.625	6.92
466.829	7.05
467.034	7.03
467.238	7.14
467.443	7.07
467.647	7.1
467.851	6.97
468.056	7.04
468.26	6.97
468.464	7
468.669	6.96
468.873	7.12
469.077	7.1
469.282	7.02
469.486	7.02
469.69	7.09
469.894	7
470.099	7.03
470.303	7.18
470.507	7.23
470.711	7.16
470.915	7.23
471.119	7.16
471.324	7.12
471.528	7.07
471.732	7.08
471.936	7.05
472.14	7.17
472.344	7.09
472.548	7.1
472.752	7.17
472.956	7.22
473.16	7.22
473.364	7.35
473.568	7.31
473.772	7.28
473.976	7.24
474.18	7.28
474.384	7.35
474.588	7.44
474.792	7.48
474.995	7.5
475.199	7.61
475.403	7.5
475.607	7.5
475.811	7.47
476.015	7.56
476.218	7.46
476.422	7.52
476.626	7.56
476.83	7.6
477.033	7.58
477.237	7.62
477.441	7.63
477.644	7.66
477.848	7.65
478.052	7.69
478.255	7.69
478.459	7.72
478.663	7.78
478.866	7.86
479.07	7.82
479.273	7.86
479.477	7.87
479.681	7.89
479.884	7.9
480.088	7.97
480.291	7.95
480.495	7.92
480.698	7.82
480.901	7.83
481.105	7.81
481.308	7.85
481.512	7.84
481.715	7.9
481.919	7.87
482.122	7.92
482.325	7.96
482.529	8.02
482.732	8.08
482.935	8.04
483.138	7.98
483.342	7.96
483.545	8.03
483.748	7.99
483.952	8.02
484.155	8.1
484.358	8.1
484.561	8.05
484.764	8.02
484.967	8.1
485.171	8.1
485.374	8.11
485.577	8.12
485.78	8.13
485.983	8.1
486.186	8.07
486.389	7.99
486.592	8.01
486.795	8.04
486.998	8.03
487.201	8.03
487.404	8.03
487.607	8.08
487.81	8.08
488.013	8.1
488.216	8.13
488.419	8.15
488.622	8.08
488.825	8.09
489.028	8.1
489.231	8.08
489.433	8.11
489.636	8.12
489.839	8.11
490.042	8.09
490.245	8.13
490.447	8.14
490.65	8.16
490.853	8.01
491.056	8.04
491.258	7.98
491.461	7.98
491.664	7.95
491.866	8.07
492.069	8.12
492.272	8.14
492.474	8.11
492.677	8.14
492.879	8.09
493.082	8.06
493.285	8.09
493.487	8.08
493.69	8.03
493.892	8.09
494.095	8.06
494.297	8
494.5	8.1
494.702	8.16
494.905	8.2
495.107	8.22
495.309	8.33
495.512	8.26
495.714	8.29
495.917	8.29
496.119	8.34
496.321	8.32
496.524	8.35
496.726	8.34
496.928	8.34
497.13	8.3
497.333	8.21
497.535	8.24
497.737	8.29
497.939	8.31
498.142	8.3
498.344	8.33
498.546	8.37
498.748	8.32
498.95	8.33
499.152	8.36
499.355	8.41
499.557	8.39
499.759	8.49
499.961	8.53
500.163	8.57
500.365	8.62
500.567	8.69
500.769	8.65
500.971	8.67
501.173	8.66
501.375	8.62
501.577	8.56
501.779	8.55
501.981	8.61
502.183	8.66
502.385	8.69
502.587	8.67
502.788	8.73
502.99	8.72
503.192	8.71
503.394	8.75
503.596	8.84
503.798	8.95
503.999	8.96
504.201	9.01
504.403	9.03
504.605	9.03
504.806	8.93
505.008	8.99
505.21	9.05
505.411	9.05
505.613	9.08
505.815	9.15
506.016	9.19
506.218	9.19
506.42	9.29
506.621	9.39
506.823	9.38
507.024	9.33
507.226	9.36
507.427	9.35
507.629	9.33
507.83	9.31
508.032	9.38
508.233	9.43
508.435	9.47
508.636	9.48
508.838	9.64
509.039	9.69
509.24	9.64
509.442	9.58
509.643	9.61
509.845	9.54
510.046	9.5
510.247	9.53
510.448	9.61
510.65	9.65
510.851	9.65
511.052	9.73
511.254	9.81
511.455	9.84
511.656	9.85
511.857	9.88
512.058	9.85
512.26	9.81
512.461	9.83
512.662	9.85
512.863	9.85
513.064	9.84
513.265	9.91
513.466	9.95
513.667	10
513.868	10.09
514.069	10.22
514.27	10.25
514.471	10.23
514.672	10.17
514.873	10.14
515.074	10.15
515.275	10.02
515.476	9.97
515.677	10
515.878	10.03
516.079	10
516.28	10.12
516.481	10.16
516.682	10.16
516.882	10.17
517.083	10.1
517.284	10.13
517.485	10.14
517.686	10.19
517.886	10.24
518.087	10.26
518.288	10.26
518.488	10.29
518.689	10.26
518.89	10.23
519.091	10.29
519.291	10.3
519.492	10.29
519.692	10.36
519.893	10.38
520.094	10.36
520.294	10.42
520.495	10.53
520.695	10.48
520.896	10.54
521.096	10.6
521.297	10.61
521.497	10.63
521.698	10.65
521.898	10.56
522.099	10.57
522.299	10.53
522.499	10.48
522.7	10.52
522.9	10.63
523.101	10.57
523.301	10.55
523.501	10.57
523.702	10.57
523.902	10.5
524.102	10.65
524.302	10.64
524.503	10.64
524.703	10.66
524.903	10.71
525.103	10.62
525.304	10.67
525.504	10.7
525.704	10.64
525.904	10.65
526.104	10.64
526.304	10.65
526.504	10.61
526.705	10.67
526.905	10.69
527.105	10.7
527.305	10.72
527.505	10.76
527.705	10.78
527.905	10.75
528.105	10.81
528.305	10.83
528.505	10.84
528.705	10.87
528.905	10.96
529.105	10.93
529.304	10.94
529.504	11.03
529.704	11
529.904	10.99
530.104	10.98
530.304	10.95
530.503	10.87
530.703	10.89
530.903	10.86
531.103	10.92
531.303	10.95
531.502	11.01
531.702	11.04
531.902	11.03
532.101	11.02
532.301	11.04
532.501	11
532.7	11.01
532.9	11.08
533.1	11.12
533.299	11.11
533.499	11.1
533.698	11.06
533.898	11.1
534.097	11.09
534.297	11.14
534.496	11.21
534.696	11.28
534.895	11.3
535.095	11.34
535.294	11.41
535.494	11.42
535.693	11.4
535.892	11.4
536.092	11.42
536.291	11.38
536.491	11.37
536.69	11.41
536.889	11.44
537.088	11.43
537.288	11.43
537.487	11.46
537.686	11.51
537.886	11.49
538.085	11.53
538.284	11.64
538.483	11.66
538.682	11.72
538.882	11.8
539.081	11.81
539.28	11.77
539.479	11.82
539.678	11.76
539.877	11.73
540.076	11.81
540.275	11.83
540.474	11.8
540.673	11.9
540.872	11.94
541.071	11.98
541.27	12.02
541.469	12.03
541.668	12.06
541.867	12.18
542.066	12.21
542.265	12.24
542.464	12.27
542.663	12.34
542.862	12.32
543.06	12.29
543.259	12.36
543.458	12.47
543.657	12.41
543.856	12.4
544.054	12.5
544.253	12.43
544.452	12.47
544.651	12.55
544.849	12.56
545.048	12.55
545.247	12.7
545.445	12.66
545.644	12.71
545.843	12.8
546.041	12.9
546.24	12.88
546.438	12.93
546.637	13
546.836	13.07
547.034	13.06
547.233	13.15
547.431	13.22
547.63	13.28
547.828	13.37
548.027	13.39
548.225	13.38
548.423	13.43
548.622	13.44
548.82	13.46
549.019	13.54
549.217	13.63
549.415	13.74
549.614	13.81
549.812	13.82
550.01	13.89
550.209	13.91
550.407	13.93
550.605	13.95
550.803	13.99
551.002	14.04
551.2	14.1
551.398	14.14
551.596	14.19
551.794	14.27
551.993	14.37
552.191	14.51
552.389	14.57
552.587	14.71
552.785	14.79
552.983	14.9
553.181	14.9
553.379	15.03
553.577	15.06
553.775	15.16
553.973	15.17
554.171	15.27
554.369	15.3
554.567	15.35
554.765	15.36
554.963	15.44
555.161	15.45
555.359	15.54
555.557	15.62
555.755	15.75
555.952	15.86
556.15	16.01
556.348	16.02
556.546	16.15
556.744	16.2
556.941	16.21
557.139	16.24
557.337	16.36
557.535	16.39
557.732	16.46
557.93	16.57
558.128	16.67
558.325	16.79
558.523	16.87
558.721	16.95
558.918	17.06
559.116	17.15
559.313	17.24
559.511	17.28
559.708	17.33
559.906	17.37
560.104	17.5
560.301	17.56
560.498	17.68
560.696	17.78
560.893	17.87
561.091	17.91
561.288	18
561.486	18
561.683	18.1
561.88	18.28
562.078	18.33
562.275	18.37
562.473	18.54
562.67	18.66
562.867	18.68
563.064	18.82
563.262	18.93
563.459	19.03
563.656	19.05
563.853	19.13
564.051	19.23
564.248	19.28
564.445	19.3
564.642	19.4
564.839	19.47
565.036	19.46
565.234	19.53
565.431	19.66
565.628	19.72
565.825	19.75
566.022	19.92
566.219	19.97
566.416	20.08
566.613	20.18
566.81	20.35
567.007	20.34
567.204	20.38
567.401	20.34
567.598	20.44
567.795	20.41
567.991	20.52
568.188	20.7
568.385	20.74
568.582	20.8
568.779	20.87
568.976	20.9
569.172	20.89
569.369	21
569.566	20.99
569.763	21.06
569.96	21.12
570.156	21.23
570.353	21.2
570.55	21.27
570.746	21.32
570.943	21.39
571.14	21.4
571.336	21.48
571.533	21.46
571.729	21.46
571.926	21.46
572.123	21.44
572.319	21.54
572.516	21.57
572.712	21.65
572.909	21.61
573.105	21.66
573.302	21.68
573.498	21.8
573.695	21.75
573.891	21.85
574.087	21.86
574.284	21.88
574.48	21.95
574.677	21.96
574.873	21.99
575.069	21.95
575.266	21.92
575.462	21.8
575.658	21.8
575.854	21.84
576.051	21.92
576.247	21.93
576.443	21.99
576.639	22.18
576.835	22.14
577.032	22.08
577.228	22.15
577.424	22.06
577.62	21.94
577.816	21.95
578.012	21.93
578.208	21.88
578.404	22.02
578.6	22.04
578.796	22.01
578.993	22.09
579.189	22
579.384	21.94
579.58	21.96
579.776	21.94
579.972	22.02
580.168	22.13
580.364	22.11
580.56	22.05
580.756	22.06
580.952	21.95
581.148	21.85
581.343	21.83
581.539	21.9
581.735	21.96
581.931	22.04
582.127	22.12
582.322	22.18
582.518	22.05
582.714	22
582.909	21.98
583.105	21.92
583.301	21.9
583.496	21.88
583.692	21.9
583.888	21.84
584.083	21.92
584.279	21.85
584.474	21.81
584.67	21.82
584.866	21.85
585.061	21.81
585.257	21.76
585.452	21.97
585.648	21.9
585.843	21.79
586.039	21.8
586.234	21.89
586.429	21.72
586.625	21.69
586.82	21.78
587.015	21.72
587.211	21.69
587.406	21.7
587.601	21.83
587.797	21.79
587.992	21.77
588.187	21.78
588.383	21.82
588.578	21.72
588.773	21.77
588.968	21.88
589.163	21.92
589.359	21.98
589.554	21.89
589.749	21.83
589.944	21.77
590.139	21.77
590.334	21.8
590.529	21.9
590.724	22.05
590.919	22.13
591.114	22.15
591.309	22.12
591.504	22.13
591.699	22.14
591.894	22.14
592.089	22.22
592.284	22.22
592.479	22.33
592.674	22.3
592.869	22.38
593.064	22.36
593.259	22.51
593.454	22.56
593.648	22.6
593.843	22.62
594.038	22.71
594.233	22.69
594.428	22.75
594.622	22.89
594.817	22.94
595.012	22.89
595.206	22.93
595.401	22.99
595.596	22.95
595.79	22.93
595.985	23.08
596.18	23.06
596.374	23.06
596.569	23.2
596.763	23.33
596.958	23.34
597.153	23.51
597.347	23.61
597.542	23.66
597.736	23.71
597.931	23.79
598.125	23.81
598.319	23.79
598.514	23.81
598.708	23.89
598.903	23.94
599.097	23.99
599.291	24.06
599.486	24.04
599.68	24.1
599.874	24.2
600.069	24.25
600.263	24.28
600.457	24.4
600.651	24.39
600.846	24.39
601.04	24.4
601.234	24.53
601.428	24.59
601.622	24.57
601.817	24.55
602.011	24.59
602.205	24.57
602.399	24.51
602.593	24.58
602.787	24.55
602.981	24.54
603.175	24.59
603.369	24.64
603.563	24.69
603.757	24.66
603.951	24.7
604.145	24.46
604.339	24.42
604.533	24.31
604.727	24.33
604.921	24.3
605.115	24.38
605.309	24.33
605.502	24.33
605.696	24.45
605.89	24.42
606.084	24.46
606.278	24.48
606.471	24.51
606.665	24.43
606.859	24.45
607.053	24.38
607.246	24.3
607.44	24.21
607.634	24.12
607.827	24
608.021	24.02
608.214	24
608.408	23.94
608.602	23.89
608.795	23.92
608.989	23.81
609.182	23.76
609.376	23.74
609.569	23.77
609.763	23.65
609.956	23.65
610.15	23.46
610.343	23.38
610.537	23.21
610.73	23.11
610.923	23.02
611.117	23.12
611.31	23.1
611.504	23.17
611.697	23.1
611.89	23.02
612.083	22.87
612.277	22.71
612.47	22.53
612.663	22.5
612.856	22.44
613.05	22.4
613.243	22.42
613.436	22.36
613.629	22.26
613.822	22.18
614.015	22.13
614.209	22.04
614.402	21.94
614.595	21.95
614.788	21.98
614.981	21.96
615.174	21.82
615.367	21.78
615.56	21.64
615.753	21.54
615.946	21.46
616.139	21.49
616.332	21.53
616.525	21.53
616.718	21.42
616.911	21.38
617.103	21.29
617.296	21.19
617.489	21.15
617.682	21.15
617.875	21.1
618.067	21.19
618.26	21.13
618.453	21.06
618.646	20.99
618.838	20.91
619.031	20.79
619.224	20.74
619.417	20.75
619.609	20.76
619.802	20.7
619.994	20.69
620.187	20.71
620.38	20.63
620.572	20.59
620.765	20.64
620.957	20.56
621.15	20.52
621.342	20.55
621.535	20.5
621.727	20.48
621.92	20.5
622.112	20.42
622.305	20.34
622.497	20.38
622.69	20.3
622.882	20.23
623.074	20.29
623.267	20.38
623.459	20.38
623.651	20.39
623.844	20.47
624.036	20.41
624.228	20.35
624.42	20.28
624.613	20.26
624.805	20.23
624.997	20.29
625.189	20.24
625.381	20.26
625.574	20.13
625.766	20.12
625.958	20.03
626.15	20.02
626.342	19.98
626.534	20.06
626.726	19.97
626.918	19.92
627.11	19.87
627.302	19.87
627.494	19.8
627.686	19.76
627.878	19.76
628.07	19.69
628.262	19.61
628.454	19.59
628.646	19.61
628.838	19.57
629.029	19.49
629.221	19.47
629.413	19.45
629.605	19.38
629.797	19.34
629.989	19.38
630.18	19.32
630.372	19.28
630.564	19.26
630.755	19.27
630.947	19.21
631.139	19.19
631.33	19.14
631.522	19.09
631.714	19.03
631.905	18.99
632.097	18.97
632.289	18.95
632.48	18.95
632.672	18.92
632.863	18.87
633.055	18.86
633.246	18.83
633.438	18.77
633.629	18.73
633.821	18.74
634.012	18.7
634.203	18.7
634.395	18.75
634.586	18.84
634.777	18.88
634.969	18.82
635.16	18.76
635.351	18.74
635.543	18.67
635.734	18.61
635.925	18.63
636.117	18.71
636.308	18.66
636.499	18.56
636.69	18.54
636.881	18.58
637.073	18.59
637.264	18.69
637.455	18.67
637.646	18.65
637.837	18.56
638.028	18.44
638.219	18.26
638.41	18.29
638.601	18.21
638.792	18.18
638.983	18.16
639.174	18.14
639.365	18.17
639.556	18.19
639.747	18.23
639.938	18.2
640.129	18.19
640.32	18.11
640.511	18.06
640.701	18.02
640.892	18.03
641.083	18.03
641.274	18.03
641.465	18.03
641.655	17.97
641.846	18.01
642.037	17.93
642.228	17.89
642.418	17.94
642.609	17.98
642.8	17.9
642.99	17.94
643.181	17.93
643.372	17.89
643.562	17.78
643.753	17.76
643.943	17.69
644.134	17.69
644.324	17.7
644.515	17.69
644.705	17.6
644.896	17.6
645.086	17.55
645.277	17.46
645.467	17.45
645.658	17.41
645.848	17.38
646.038	17.34
646.229	17.33
646.419	17.26
646.61	17.31
646.8	17.28
646.99	17.36
647.18	17.35
647.371	17.35
647.561	17.35
647.751	17.36
647.941	17.38
648.132	17.26
648.322	17.25
648.512	17.2
648.702	17.21
648.892	17.2
649.082	17.29
649.272	17.29
649.462	17.28
649.653	17.24
649.843	17.17
650.033	17.13
650.223	17.12
650.413	17.06
650.603	16.97
650.793	16.89
650.983	16.87
651.172	16.86
651.362	16.84
651.552	16.92
651.742	16.89
651.932	16.8
652.122	16.82
652.312	16.75
652.502	16.59
652.691	16.57
652.881	16.59
653.071	16.4
653.261	16.39
653.45	16.35
653.64	16.2
653.83	16.16
654.019	16.12
654.209	16.01
654.399	15.86
654.588	15.85
654.778	15.69
654.968	15.56
655.157	15.48
655.347	15.46
655.536	15.31
655.726	15.26
655.915	15.19
656.105	15.14
656.294	14.95
656.484	14.81
656.673	14.63
656.863	14.48
657.052	14.42
657.241	14.4
657.431	14.31
657.62	14.24
657.809	14.12
657.999	14.03
658.188	13.86
658.377	13.82
658.567	13.75
658.756	13.69
658.945	13.57
659.134	13.51
659.324	13.34
659.513	13.11
659.702	12.94
659.891	12.75
660.08	12.65
660.269	12.45
660.458	12.49
660.648	12.39
660.837	12.29
661.026	12.13
661.215	12.1
661.404	11.91
661.593	11.85
661.782	11.69
661.971	11.6
662.16	11.47
662.349	11.41
662.538	11.16
662.726	11.06
662.915	10.95
663.104	10.86
663.293	10.81
663.482	10.83
663.671	10.81
663.86	10.69
664.048	10.65
664.237	10.47
664.426	10.46
664.615	10.34
664.803	10.32
664.992	10.19
665.181	10.17
665.369	10.05
665.558	9.97
665.747	9.91
665.935	9.85
666.124	9.74
666.312	9.74
666.501	9.74
666.69	9.71
666.878	9.78
667.067	9.73
667.255	9.68
667.444	9.65
667.632	9.58
667.82	9.54
668.009	9.58
668.197	9.59
668.386	9.55
668.574	9.58
668.762	9.48
668.951	9.48
669.139	9.43
669.327	9.48
669.516	9.51
669.704	9.53
669.892	9.58
670.08	9.52
670.269	9.46
670.457	9.45
670.645	9.54
670.833	9.48
671.021	9.65
671.21	9.75
671.398	9.84
671.586	9.8
671.774	9.87
671.962	9.84
672.15	9.83
672.338	9.77
672.526	9.7
672.714	9.74
672.902	9.87
673.09	9.94
673.278	10.04
673.466	10.2
673.654	10.45
673.842	10.44
674.03	10.41
674.218	10.51
674.405	10.55
674.593	10.5
674.781	10.45
674.969	10.63
675.157	10.57
675.344	10.64
675.532	10.69
675.72	10.76
675.908	10.79
676.095	10.87
676.283	10.87
676.471	10.91
676.658	10.93
676.846	11.05
677.033	11.24
677.221	11.39
677.409	11.41
677.596	11.57
677.784	11.42
677.971	11.42
678.159	11.62
678.346	11.66
678.534	11.69
678.721	12.02
678.909	12.24
679.096	12.12
679.283	12.22
679.471	12.32
679.658	12.4
679.846	12.4
680.033	12.58
680.22	12.71
680.408	12.79
680.595	12.78
680.782	12.91
680.969	13.09
681.157	13.16
681.344	13.32
681.531	13.52
681.718	13.57
681.905	13.7
682.093	13.93
682.28	13.94
682.467	14.03
682.654	14.36
682.841	14.48
683.028	14.51
683.215	14.78
683.402	14.96
683.589	14.91
683.776	15.06
683.963	15.25
684.15	15.57
684.337	15.72
684.524	16.18
684.711	16.36
684.898	16.66
685.085	16.85
685.271	17.01
685.458	16.96
685.645	17.14
685.832	17.23
686.019	17.24
686.205	17.51
686.392	17.78
686.579	18.16
686.766	18.52
686.952	18.87
687.139	19.09
687.326	19.38
687.512	19.61
687.699	19.92
687.886	20.3
688.072	20.69
688.259	21.18
688.445	21.64
688.632	22.04
688.818	22.47
689.005	22.88
689.191	23.26
689.378	23.46
689.564	23.74
689.751	24.04
689.937	24.51
690.124	24.69
690.31	25.24
690.496	25.83
690.683	26.48
690.869	27.07
691.055	27.65
691.242	28.1
691.428	28.53
691.614	28.78
691.8	29.09
691.987	29.62
692.173	30.14
692.359	30.77
692.545	31.32
692.731	31.7
692.918	32.2
693.104	32.72
693.29	33.13
693.476	33.75
693.662	34.37
693.848	35
694.034	35.41
694.22	35.81
694.406	36.38
694.592	37.19
694.778	37.66
694.964	38.31
695.15	38.96
695.336	39.38
695.522	39.9
695.708	40.51
695.894	41.08
696.08	41.62
696.265	42.16
696.451	42.61
696.637	43.36
696.823	43.89
697.009	44.56
697.194	44.89
697.38	45.25
697.566	45.46
697.751	45.74
697.937	45.89
698.123	46.77
698.308	47.23
698.494	47.52
698.68	48.14
698.865	48.59
699.051	48.7
699.236	49.29
699.422	49.59
699.607	50.03
699.793	50.55
699.978	50.88
700.164	51.13
700.349	51.72
700.535	52.28
700.72	52.86
700.906	53.6
701.091	53.99
701.276	54.5
701.462	54.68
701.647	54.81
701.832	55.08
702.018	55.51
702.203	55.88
702.388	56.15
702.573	56.62
702.759	56.78
702.944	57.1
703.129	57.51
703.314	57.83
703.499	58.2
703.684	58.55
703.87	58.73
704.055	58.85
704.24	59.36
704.425	59.53
704.61	59.62
704.795	59.8
704.98	60.24
705.165	60.37
705.35	60.47
705.535	61.38
705.72	61.66
705.905	61.59
706.09	61.68
706.275	62.11
706.459	61.93
706.644	62.17
706.829	62.48
707.014	62.88
707.199	63.31
707.384	63.5
707.568	63.89
707.753	64.5
707.938	64.55
708.123	64.41
708.307	64.73
708.492	65.2
708.677	65.12
708.861	65.23
709.046	65.8
709.231	66.2
709.415	66.04
709.6	66.03
709.784	66.44
709.969	66.52
710.153	66.78
710.338	67.01
710.522	67.28
710.707	67.44
710.891	67.35
711.076	67.05
711.26	67.01
711.445	67.02
711.629	67.41
711.813	67.62
711.998	67.98
712.182	68.09
712.366	68.46
712.551	68.45
712.735	68.3
712.919	68.42
713.103	68.88
713.288	68.87
713.472	68.93
713.656	69.65
713.84	69.51
714.024	69.38
714.208	69.78
714.393	69.55
714.577	69.47
714.761	69.74
714.945	69.97
715.129	69.96
715.313	70.45
715.497	70.82
715.681	70.91
715.865	71.69
716.049	71.47
716.233	71.21
716.417	70.94
716.601	70.76
716.785	70.48
716.968	71
717.152	71.4
717.336	71.49
717.52	72.2
717.704	72.15
717.888	71.77
718.071	71.72
718.255	71.79
718.439	71.49
718.622	71.25
718.806	71.79
718.99	72.18
719.174	72.19
719.357	72.2
719.541	72.76
719.724	72.85
719.908	72.74
720.092	73.06
720.275	73.5
720.459	73.42
720.642	73.38
720.826	73.54
721.009	73.33
721.193	73
721.376	72.54
721.559	72.33
721.743	71.99
721.926	72.22
722.11	72.24
722.293	72.62
722.476	72.82
722.66	72.98
722.843	72.98
723.026	72.68
723.21	72.82
723.393	73.26
723.576	73.43
723.759	73.77
723.942	74.8
724.126	74.86
724.309	75.08
724.492	75.41
724.675	75.06
724.858	74.34
725.041	74.31
725.224	74.51
725.407	74.31
725.59	74.74
725.774	75.4
725.957	75.99
726.14	75.29
726.322	75.37
726.505	75.28
726.688	75.31
726.871	75.06
727.054	75.06
727.237	75.55
727.42	75.91
727.603	75.68
727.786	75.45
727.968	76.24
728.151	76.1
728.334	76.29
728.517	76.87
728.699	77.27
728.882	76.96
729.065	76.8
729.248	76.95
729.43	76.47
729.613	76.61
729.796	76.51
729.978	76.6
730.161	76.21
730.343	76.36
730.526	76.47
730.708	76.54
730.891	76.79
731.073	76.71
731.256	77.3
731.438	76.69
731.621	76.79
731.803	77.03
731.986	77.26
732.168	76.52
732.35	76.94
732.533	77.12
732.715	76.42
732.898	76.64
733.08	77.38
733.262	77.32
733.444	77.36
733.627	78.16
733.809	78.13
733.991	78
734.173	78.35
734.355	78.53
734.538	78.05
734.72	78.19
734.902	77.82
735.084	77.95
735.266	77.51
735.448	77.96
735.63	78.05
735.812	78.59
735.994	78.74
736.176	79.73
736.358	79.99
736.54	79.66
736.722	79.45
736.904	79.38
737.086	79.12
737.268	79.08
737.45	79.45
737.632	80.45
737.814	80.88
737.995	81.09
738.177	81.92
738.359	81.99
738.541	81.42
738.723	81.16
738.904	81.41
739.086	81.46
739.268	81.39
739.449	81.62
739.631	82
739.813	81.37
739.994	80.98
740.176	81.17
740.358	81.33
740.539	80.68
740.721	80.9
740.902	80.43
741.084	79.97
741.265	79.58
741.447	79.3
741.628	79.41
741.81	79.24
741.991	79.61
742.172	80.29
742.354	81.09
742.535	81.1
742.717	81.24
742.898	80.98
743.079	80.9
743.261	81.56
743.442	80.55
743.623	80.37
743.804	80.11
743.986	80.42
744.167	79.63
744.348	79.97
744.529	79.43
744.71	79.81
744.891	79.06
745.073	79.61
745.254	80.01
745.435	80.91
745.616	81.16
745.797	80.48
745.978	78.93
746.159	79.34
746.34	78.39
746.521	79.5
746.702	80.45
746.883	81.57
747.064	81.42
747.245	81.52
747.426	80.29
747.606	79.24
747.787	77.96
747.968	78.54
748.149	79.3
748.33	79.44
748.51	80.21
748.691	81.36
748.872	80.8
749.053	81.15
749.233	81.18
749.414	81.65
749.595	82.19
749.775	81.95
749.956	82.29
750.137	82.82
750.317	82.26
750.498	81.83
750.678	82.06
750.859	81.37
751.04	80.16
751.22	81.3
751.4	81.79
751.581	81.41
751.761	81.36
751.942	81.42
752.122	80.75
752.303	78.95
752.483	79.85
752.663	79.4
752.844	79.8
753.024	79.67
753.204	80.84
753.385	80.2
753.565	80.24
753.745	79.21
753.925	79.05
754.106	80.26
754.286	80.82
754.466	80.16
754.646	80.83
754.826	80.95
755.006	78.96
755.187	78.52
755.367	79.95
755.547	80.58
755.727	80.11
755.907	79.47
756.087	78.52
756.267	79.26
756.447	79.28
756.627	80.03
756.807	80.7
756.987	80.96
757.167	80.56
757.346	79.72
757.526	78.7
757.706	80.2
757.886	81.34
758.066	80.64
758.246	81.07
758.425	81.3
758.605	80.98
758.785	80.53
758.965	79.82
759.144	80.15
759.324	80.28
759.504	79.6
759.683	79.22
759.863	80.64
760.043	80.57
760.222	80.43
760.402	80.15
760.581	80.72
760.761	79.85
760.94	78.55
761.12	79.83
761.299	81.06
761.479	80.76
761.658	80.4
761.838	81.21
762.017	79.57
762.197	80.11
762.376	80.48
762.555	80.44
762.735	80.15
762.914	80.16
763.093	78.39
763.273	76.71
763.452	77.2
763.631	77.51
763.81	78.16
763.99	79.56
764.169	81.63
764.348	81.14
764.527	80.9
764.706	79.81
764.885	77.1
765.064	76.34
765.243	77.08
765.423	76.52
765.602	76.21
765.781	75.96
765.96	75.2
766.139	75.15
766.318	76.11
766.497	76.57
766.676	78.07
766.854	77.75
767.033	76.56
767.212	76.52
767.391	75.36
767.57	76.04
767.749	76.63
767.928	78
768.106	78.48
768.285	80.59
768.464	79.21
768.643	79.95
768.821	79.71
769	78.92
769.179	78.91
769.357	79.77
769.536	78.94
769.715	78.61
769.893	78.4
770.072	77.71
770.25	77.43
770.429	77.52
770.607	76.85
770.786	77.4
770.964	77.65
771.143	77.91
771.321	78.39
771.5	78.76
771.678	79.57
771.857	79.24
772.035	78.15
772.213	77.43
772.392	77.84
772.57	76.94
772.748	77.69
772.927	79.31
773.105	79.26
773.283	78.67
773.461	77.26
773.64	75.32
773.818	74.67
773.996	74.91
774.174	76.5
774.352	79.21
774.531	79.54
774.709	80.13
774.887	79.43
775.065	77.53
775.243	76.84
775.421	78.1
775.599	75.73
775.777	74.4
775.955	73.86
776.133	72.3
776.311	71.95
776.489	74.2
776.667	76.83
776.844	78.22
777.022	77.77
777.2	75.74
777.378	75.48
777.556	73.53
777.734	73.66
777.911	74.38
778.089	74.86
778.267	74.7
778.445	73.84
778.622	70.89
778.8	69.64
778.978	70.88
779.155	71.2
779.333	73.11
779.511	74.39
779.688	74.96
779.866	74.8
780.043	72.66
780.221	71.31
780.398	71.6
780.576	73.97
780.753	73.65
780.931	74.1
781.108	72.25
781.286	70.93
781.463	69.04
781.64	68.72
781.818	70.46
781.995	72.43
782.172	73.56
782.35	73.18
782.527	71.36
782.704	67.95
782.882	68.72
783.059	68.78
783.236	70.99
783.413	75.66
783.59	79.97
783.768	80.32
783.945	81.44
784.122	81.27
784.299	79.41
784.476	78.3
784.653	80.55
784.83	79.25
785.007	77.48
785.184	76.75
785.361	76.4
785.538	73.35
785.715	75.6
785.892	74.75
786.069	75.06
786.246	77.57
786.423	76.55
786.6	76.66
786.776	80.22
786.953	78.99
787.13	76.21
787.307	78.71
787.484	77.1
787.66	74.16
787.837	73.91
788.014	72.53
788.191	73.09
788.367	70.79
788.544	72.25
788.721	74.13
788.897	76.96
789.074	72.95
789.25	74.14
789.427	76.64
789.603	75.64
789.78	75.78
789.956	75.88
790.133	76.36
790.309	72.8
790.486	73.3
790.662	69.71
790.839	69.62
791.015	72.99
791.192	70.9
791.368	70.54
791.544	72.81
791.721	79.39
791.897	76.48
792.073	80.4
792.249	80.37
792.426	80.2
792.602	76.8
792.778	77.25
792.954	74.92
793.13	75.59
793.307	74.23
793.483	70.87
793.659	67.88
793.835	71.26
794.011	69.28
794.187	70.16
794.363	72.36
794.539	73.57
794.715	74.89
794.891	75.79
795.067	76.13
795.243	77.81
795.419	76.94
795.595	73.39
795.771	73
795.947	73.14
796.122	75.25
796.298	72.89
796.474	75.06
796.65	74.24
796.826	77
797.001	70.25
797.177	72.56
797.353	72.45
797.529	77.03
797.704	71.4
797.88	72.16
798.056	73.03
798.231	70.94
798.407	65.95
798.582	71.06
798.758	77.05
798.934	80.78
799.109	85.22
799.285	89.02
799.46	85.66
799.636	80.21
799.811	78.12
799.986	75.58
800.162	71.11
800.337	70.76
800.513	71.69
800.688	69.65
800.863	69.82
801.039	76.49
801.214	75.3
801.389	78.1
801.565	78.09
801.74	76.82
801.915	70.9
802.09	71.66
802.265	70.92
802.441	69.2
802.616	71.47
802.791	69.99
802.966	71.02
803.141	68.02
803.316	72.42
803.491	69.53
803.666	73.03
803.841	73.45
804.016	77.93
804.191	80.38
804.366	83.54
804.541	86.75
804.716	86.72
804.891	88.81
805.066	80.87
805.241	85.08
805.416	74.55
805.591	72.8
805.765	73.14
805.94	74.69
806.115	72.28
806.29	77.51
806.464	82.06
806.639	80.26
806.814	79.77
806.989	76.45
807.163	77.66
807.338	79.37
807.512	79.87
807.687	79.07
807.862	75.76
808.036	78.82
808.211	76.83
808.385	75.67
808.56	74.54
808.734	73.77
808.909	71.21
809.083	67.5
809.258	65.12
809.432	69.57
809.606	74.38
809.781	78.79
809.955	79.49
810.13	75.71
810.304	78.86
810.478	77.12
810.652	71.2
810.827	71.01
811.001	71.18
811.175	74.32
811.349	73.11
811.524	75.85
811.698	72.62
811.872	84.24
812.046	80.03
812.22	82.22
812.394	86.08
812.568	85.29
812.742	78.63
812.916	74.33
813.09	80.6
813.264	78.49
813.438	72.69
813.612	81.44
813.786	79.96
813.96	74.21
814.134	72.7
814.308	77.64
814.482	70.56
814.656	72.26
814.83	69.59
815.003	74.81
815.177	82.51
815.351	83.22
815.525	82.56
815.698	89.43
815.872	86.45
816.046	84.25
816.219	89.67
816.393	89.55
816.567	86.21
816.74	84.58
816.914	82.88
817.088	77.79
817.261	71.36
817.435	70.03
817.608	66.45
817.782	70.16
817.955	74.57
818.129	86.72
818.302	93.53
818.475	88.59
818.649	75.37
818.822	73.13
818.996	70.08
819.169	61.16
819.342	64.74
819.516	73.23
819.689	78.09
819.862	75.67
820.035	79.3
820.209	85.37
820.382	87.94
820.555	78.29
820.728	91.17
820.901	90.48
821.075	94.24
821.248	84.18
821.421	86.68
821.594	76.46
821.767	77.17
821.94	78.87
822.113	89.86
822.286	100.28
822.459	93.76
822.632	94.16
822.805	98.18
822.978	87.04
823.151	80.63
823.324	85.37
823.496	93.96
823.669	86.38
823.842	86.64
824.015	85.87
824.188	63.25
824.361	55.85
824.533	56.19
824.706	50.01
824.879	51.46
825.051	86.54
825.224	78.44
825.397	80.56
825.569	81.63
825.742	87.5
825.915	84.38
826.087	99.7
826.26	101.35
826.432	99.69
826.605	94.73
826.777	90.09
826.95	78.81
827.122	58.26
827.295	60.8
827.467	54.06
827.64	50.37
827.812	52.26
827.984	64.67
828.157	68.47
828.329	63.16
828.501	72.31
828.674	84.28
828.846	81.65
829.018	78.11
829.19	86.68
829.363	85.29
829.535	87.96
829.707	95.1
829.879	100.33
830.051	97.7
830.223	89.79
830.395	86.94
830.568	82.72
830.74	80.34
830.912	89.11
831.084	90.57
831.256	86.53
831.428	88.09
831.6	104.65
831.772	97.33
831.943	102.85
832.115	123.48
832.287	98.01
832.459	81.56
832.631	85.73
832.803	64.89
832.975	54.37
833.146	56.35
833.318	71.21
833.49	63.78
833.662	69.64
833.833	64.31
834.005	91.1
834.177	61.97
834.348	59.02
834.52	64.86
834.692	69.63
834.863	56.34
835.035	65.76
835.206	74.33
835.378	84
835.549	90.67
835.721	111.14
835.892	130.4
836.064	122.66
836.235	82.84
836.407	94.39
836.578	83.43
836.749	79.46
836.921	70.93
837.092	79.48
837.264	72.9
837.435	72.97
837.606	74.43
837.777	80.38
837.949	72.82
838.12	72.09
838.291	73.1
838.462	92.1
838.633	83.15
838.805	100.28
838.976	80.44
839.147	77.87
839.318	57.48
839.489	63.05
839.66	67.79
839.831	84.24
840.002	85.87
840.173	89.91
840.344	102.9
840.515	94.28
840.686	84.89
840.857	91.33
841.028	97.13
841.199	98.1
841.369	98.72
841.54	95.1
841.711	95.33
841.882	101.06
842.053	92.46
842.223	65.65
842.394	83.82
842.565	115.87
842.736	131.19
842.906	111.4
843.077	132.36
843.248	190.12
843.418	139.11
843.589	131.65
843.759	105.23
843.93	72.06
844.101	56.18
844.271	63.82
844.442	60.1
844.612	94.52
844.783	180.71
844.953	366.19
845.123	-35375
845.294	149.3
845.464	137.55
845.635	137.13
845.805	89.53
845.975	92.5
846.146	85.77
846.316	57.17
846.486	56.56
846.656	68.74
846.827	60.59
846.997	58.7
847.167	72.39
847.337	82.49
847.507	74.73
847.677	66.41
847.848	91.96
848.018	127.8
848.188	94.79
848.358	129.17
848.528	150.97
848.698	111.43
848.868	92.34
849.038	100.16
849.208	164.66
849.378	133.64
849.548	114.58
849.718	122.41
849.887	152.51
850.057	94.76
850.227	88.74
850.397	82.83
850.567	81.49
850.737	85.5
850.906	89.91
851.076	100.05
851.246	112.94
851.415	89.76
851.585	89.8
851.755	102.77
851.924	90.49
852.094	83.83
852.264	96.8
852.433	79.89
852.603	70.34
852.772	90.95
852.942	69.16
853.111	72.52
853.281	76.06
853.45	61.34
853.62	56.51
853.789	53.42
853.959	78.89
854.128	90.6
854.297	115.66
854.467	106.77
854.636	182.47
854.805	158.14
854.975	149.07
855.144	91.35
855.313	85.96
855.482	82.69
855.652	86.61
855.821	66.1
855.99	57.88
856.159	99.46
856.328	89.87
856.497	58.97
856.667	108.51
856.836	137.16
857.005	68.03
857.174	112.73
857.343	103.76
857.512	64.48
857.681	101.89
857.85	299.8
858.019	94.36
858.188	105.9
858.356	108.14
858.525	78.39
858.694	95.64
858.863	91.94
859.032	145.87
859.201	101.16
859.369	96.16
859.538	37.61
859.707	42.35
859.876	5.76
860.044	6.19
860.213	63.06
860.382	89.6
860.55	70.49
860.719	96.3
860.888	101.21
861.056	77.37
861.225	47.88
861.393	69.88
861.562	71.17
861.73	58.67
861.899	68.18
862.067	74.44
862.236	74.43
862.404	62.5
862.572	118.79
862.741	55.47
862.909	76.32
863.078	48.6
863.246	55.8
863.414	21.72
863.582	27.23
863.751	-3.79
863.919	8.24
864.087	98.55
864.255	-394.18
864.424	245.47
864.592	159.55
864.76	87.09
864.928	60.79
865.096	77.19
865.264	85.38
865.432	83.16
865.6	112
865.768	123
865.936	106.9
866.104	102.79
866.272	74.98
866.44	60.75
866.608	59.51
866.776	37.24
866.944	33.15
867.112	101.01
867.28	103.18
867.448	144.69
867.615	164.08
867.783	112.7
867.951	85
868.119	77.84
868.286	106.1
868.454	149.53
868.622	156.32
868.789	160.89
868.957	140.89
869.125	126.65
869.292	117.46
869.46	179.02
869.627	125.49
869.795	731.99
869.963	-381.53
870.13	-481.56
870.298	132.64
870.465	222.21
870.632	114.77
870.8	114.61
870.967	105.2
871.135	94.28
871.302	76.45
871.469	96.66
871.637	83.72
871.804	67.6
871.971	67.96
872.139	60.14
872.306	60.2
872.473	53.16
872.64	58.93
872.807	26.73
872.975	82.23
873.142	51.08
873.309	87
873.476	106.13
873.643	129.56
873.81	105.34
873.977	78.31
874.144	58.63
874.311	54.7
874.478	9.98
874.645	35.2
874.812	54.71
874.979	31.32
875.146	19.08
875.313	70.92
875.48	40.26
875.647	45.77
875.813	76.57
875.98	101.85
876.147	105.63
876.314	87.69
876.481	88.29
876.647	76.59
876.814	75.09
876.981	96.41
877.147	22187.5
877.314	-213.25
877.481	-2453.41
877.647	-2698.86
877.814	143.83
877.98	117.26
878.147	98.57
878.314	196
878.48	166.85
878.647	161.51
878.813	143.81
878.979	125.28
879.146	86.55
879.312	73.3
879.479	73.66
879.645	61.26
879.811	22.46
879.978	72.51
880.144	98.03
880.31	92.02
880.477	80.7
880.643	69.98
880.809	60.5
880.975	84.98
881.142	192.84
881.308	1334.09
881.474	-123.48
881.64	11
881.806	79.65
881.972	60.4
882.138	-476.37
882.304	461.52
882.47	163.27
882.636	439.19
882.802	216.65
882.968	760.21
883.134	156.87
883.3	126.16
883.466	152.63
883.632	133.19
883.798	129.26
883.964	170.78
884.129	501.64
884.295	151.4
884.461	212.02
884.627	111.28
884.793	125.64
884.958	101.66
885.124	143.68
885.29	213.24
885.455	285.54
885.621	187.14
885.787	-523.73
885.952	581.63
886.118	92.5
886.283	103.6
886.449	57.46
886.614	32.21
886.78	24.8
886.945	19.74
887.111	0.88
887.276	49.42
887.442	73.58
887.607	95.66
887.773	107.68
887.938	145.04
888.103	260.32
888.269	228.64
888.434	174.32
888.599	223.38
888.764	132.2
888.93	44.06
889.095	45.44
889.26	119.96
889.425	138.59
889.59	133.8
889.756	129.34
889.921	105.02
890.086	108.2
890.251	93.9
890.416	60.4
890.581	62.16
890.746	39.72
890.911	18.31
891.076	11.73
891.241	105.99
891.406	153.78
891.571	173.16
891.736	169.84
891.901	149.3
892.065	175.57
892.23	108.54
892.395	151.16
892.56	105.55
892.725	119.06
892.889	94.42
893.054	114.29
893.219	150.37
893.384	236.72
893.548	-261.71
893.713	-466.13
893.878	-89.41
