Data from Ofra_PS_Phys_2GT41_Reflection_3.txt Node
Date: Tue Jul 20 20:42:23 EDT 2021
User: USUARIO
Spectrometer: FLMT01687
Trigger mode: 0
Integration Time (sec): 1.042999E0
Scans to average: 2
Electric dark correction enabled: true
Nonlinearity correction enabled: false
Boxcar width: 2
XAxis mode: Wavelengths
Number of Pixels in Spectrum: 3648
>>>>>Begin Spectral Data<<<<<
179.494	-102.82
179.716	-78.67
179.937	-5.26
180.158	-5.09
180.38	33.75
180.601	119.11
180.823	117.72
181.044	143.6
181.265	-767.42
181.486	-207.92
181.708	16.16
181.929	13.96
182.15	313.86
182.372	107.12
182.593	194.12
182.814	85.12
183.035	67.22
183.257	-9.23
183.478	-149.76
183.699	-161.58
183.92	-74.18
184.141	-200.31
184.363	4.9
184.584	6.3
184.805	18.39
185.026	65.78
185.247	52.71
185.468	31.77
185.689	30.84
185.91	29
186.132	-46.56
186.353	-14.36
186.574	-0.59
186.795	11.78
187.016	31.07
187.237	53.17
187.458	75.16
187.679	65.6
187.9	67.78
188.121	54.55
188.342	64.15
188.563	36.15
188.784	23.14
189.005	19.73
189.226	35.99
189.447	34.28
189.667	28.41
189.888	21.35
190.109	47.43
190.33	45.52
190.551	52.32
190.772	23.81
190.993	21.6
191.214	-16.54
191.434	9.5
191.655	28.1
191.876	37.14
192.097	55.81
192.318	69
192.538	58.3
192.759	44.31
192.98	39.03
193.201	26.27
193.421	41.13
193.642	41.87
193.863	54.72
194.083	51.09
194.304	52.85
194.525	33.03
194.745	29.57
194.966	0.9
195.187	-5.28
195.407	-37.22
195.628	-73.73
195.848	-57.11
196.069	-1.45
196.29	10.43
196.51	6.36
196.731	19.26
196.951	17.96
197.172	6.64
197.392	3.99
197.613	10.15
197.833	9.82
198.054	5.65
198.274	10.13
198.495	9.65
198.715	12.53
198.936	19.04
199.156	30.18
199.377	34.73
199.597	31.8
199.817	39.78
200.038	42.38
200.258	42.94
200.479	41.5
200.699	47.32
200.919	58.67
201.14	62.56
201.36	104.19
201.58	259.81
201.801	157.75
202.021	78.8
202.241	65.63
202.461	38.52
202.682	15.68
202.902	6.99
203.122	15.95
203.342	0.75
203.563	-1.3
203.783	44.15
204.003	52.71
204.223	62.06
204.443	69.74
204.663	68.03
204.884	44.71
205.104	36.29
205.324	39.19
205.544	44.29
205.764	69.97
205.984	74.06
206.204	73.6
206.424	72.34
206.644	71.79
206.864	45.61
207.084	29.94
207.304	53.39
207.525	37.68
207.745	55.94
207.964	26.95
208.184	44.18
208.404	35.62
208.624	39.36
208.844	22.14
209.064	41.98
209.284	14.35
209.504	15.79
209.724	21.38
209.944	20.73
210.164	35.7
210.384	61.25
210.604	47.04
210.823	33.37
211.043	26.6
211.263	18.55
211.483	17.06
211.703	19.05
211.922	24.83
212.142	40.43
212.362	69.73
212.582	28.05
212.801	32.49
213.021	33.05
213.241	32.15
213.461	1.1
213.68	-23.59
213.9	-22.78
214.12	-6.5
214.339	-43.73
214.559	-12.22
214.779	4.24
214.998	13.64
215.218	14.08
215.438	22.12
215.657	24.91
215.877	32.3
216.096	35.47
216.316	23.36
216.535	40.76
216.755	46.7
216.974	67.96
217.194	55.92
217.413	70.05
217.633	58.89
217.852	44.02
218.072	36.69
218.291	34
218.511	32.9
218.73	29.92
218.95	43.23
219.169	32.65
219.389	41.08
219.608	32.05
219.827	54.35
220.047	35.23
220.266	24.59
220.485	33.24
220.705	25.35
220.924	-2.44
221.143	7.77
221.363	14.23
221.582	-0.24
221.801	10.3
222.021	-1.71
222.24	4.2
222.459	17.47
222.678	25.96
222.897	21.48
223.117	40.89
223.336	47.42
223.555	62.05
223.774	48.58
223.993	67.39
224.213	60.33
224.432	53.38
224.651	51.81
224.87	53.05
225.089	26.94
225.308	31.12
225.527	28.04
225.746	7.28
225.965	11.76
226.184	27.9
226.404	19.14
226.623	18.68
226.842	34.84
227.061	44.95
227.28	26.57
227.499	20.89
227.718	34.76
227.936	23.42
228.155	38.23
228.374	37.03
228.593	41.16
228.812	36.96
229.031	40.89
229.25	14.35
229.469	-1.89
229.688	-13.02
229.907	-4.92
230.125	-5.05
230.344	17.86
230.563	51.15
230.782	56.95
231.001	61.77
231.22	51.81
231.438	21.15
231.657	-41.57
231.876	-22.82
232.095	-66.44
232.313	-42.47
232.532	-30.17
232.751	29.65
232.969	12.73
233.188	54.34
233.407	64.27
233.625	61.2
233.844	49.94
234.063	44.51
234.281	43.25
234.5	28.02
234.719	19.27
234.937	10.2
235.156	5.64
235.374	-2.34
235.593	17.98
235.811	21.72
236.03	28.12
236.249	39.1
236.467	49.13
236.686	53.54
236.904	41.43
237.123	27
237.341	39.44
237.559	30.84
237.778	1.99
237.996	-18.75
238.215	-7.15
238.433	5.5
238.652	-0.56
238.87	18.56
239.088	34.11
239.307	28.3
239.525	-6.8
239.743	13.82
239.962	38.13
240.18	40.39
240.398	46.06
240.617	55.1
240.835	29.88
241.053	29.61
241.271	35.06
241.49	31.88
241.708	41.19
241.926	43.83
242.144	24.57
242.363	21.79
242.581	32.36
242.799	29.32
243.017	42.95
243.235	61.11
243.453	49.94
243.672	34.41
243.89	18.24
244.108	9.56
244.326	-11.52
244.544	-2.42
244.762	9.35
244.98	30.93
245.198	32.29
245.416	33.03
245.634	33.22
245.852	40.24
246.07	28.8
246.288	26.23
246.506	36.36
246.724	38.6
246.942	40.92
247.16	70.64
247.378	59.84
247.596	46.34
247.814	35.29
248.032	20.3
248.25	15.98
248.468	10.65
248.685	3.18
248.903	6.01
249.121	3.49
249.339	-4.56
249.557	3.03
249.775	17.35
249.992	15.65
250.21	19.62
250.428	12.58
250.646	3.38
250.863	-33.91
251.081	-38.09
251.299	-22.17
251.517	-9.19
251.734	-5.36
251.952	-24.48
252.17	-13.31
252.387	11.95
252.605	37.54
252.823	33.04
253.04	56.46
253.258	51.91
253.475	37.71
253.693	32.76
253.911	44.83
254.128	18.09
254.346	45.57
254.563	63.69
254.781	43.6
254.998	43.99
255.216	33.47
255.433	25.45
255.651	25.41
255.868	58.48
256.086	58.84
256.303	37.71
256.521	34.76
256.738	12.95
256.956	16.27
257.173	-9.82
257.39	15.6
257.608	6.34
257.825	5.83
258.043	2.24
258.26	17.52
258.477	28.78
258.695	37.22
258.912	36.27
259.129	37.96
259.346	32.69
259.564	22.83
259.781	28.71
259.998	49.5
260.216	42.38
260.433	50.63
260.65	54.27
260.867	56.36
261.084	30.08
261.302	27.09
261.519	20.62
261.736	5.59
261.953	-1.18
262.17	20.14
262.387	23.8
262.604	27.27
262.822	30.03
263.039	29.98
263.256	16.88
263.473	19.44
263.69	6.9
263.907	17.69
264.124	16.02
264.341	46.69
264.558	24.53
264.775	35.25
264.992	40.28
265.209	31.48
265.426	16.81
265.643	22.3
265.86	20.61
266.077	15.3
266.294	28.39
266.51	29.01
266.727	29.23
266.944	24.32
267.161	12.82
267.378	4.46
267.595	19.12
267.812	3.42
268.028	8.05
268.245	18.78
268.462	18.57
268.679	6.15
268.896	24.59
269.112	29.51
269.329	20.44
269.546	25.11
269.763	25.31
269.979	20.41
270.196	15.89
270.413	27.27
270.629	18.5
270.846	16.04
271.063	27.73
271.279	28.92
271.496	28.81
271.712	24.89
271.929	26.58
272.146	-2.03
272.362	1.75
272.579	-1.3
272.795	4.72
273.012	-3.81
273.228	9.87
273.445	-8.3
273.661	5.43
273.878	26.69
274.094	35.59
274.311	20.13
274.527	46.95
274.744	44.64
274.96	47.77
275.177	51.66
275.393	45.63
275.609	17.62
275.826	8.37
276.042	-4.6
276.259	-11.37
276.475	14.34
276.691	29.44
276.908	16.4
277.124	9.34
277.34	13.42
277.557	10.2
277.773	15.54
277.989	15.05
278.205	24.37
278.422	21.22
278.638	23.31
278.854	10.09
279.07	13.39
279.286	8.84
279.503	12.3
279.719	9.31
279.935	29.79
280.151	26.84
280.367	22.22
280.583	16.32
280.799	23.31
281.016	-4.12
281.232	-4.16
281.448	3.79
281.664	13.11
281.88	-2.3
282.096	1.22
282.312	-11.95
282.528	1.18
282.744	3.67
282.96	25.48
283.176	22.57
283.392	23.21
283.608	3.94
283.824	-5.94
284.04	-15.13
284.256	-7.61
284.471	-8.07
284.687	-4.52
284.903	6.15
285.119	14.14
285.335	21.91
285.551	28.36
285.767	39.74
285.982	31.23
286.198	28.88
286.414	22.18
286.63	19.44
286.846	-0.83
287.061	-3.65
287.277	-30.71
287.493	-25.21
287.709	-20.45
287.924	-2.6
288.14	14.51
288.356	24.84
288.571	31.76
288.787	26.69
289.003	27.71
289.218	10.94
289.434	6.65
289.65	21.02
289.865	16.41
290.081	18.91
290.296	31.69
290.512	42.14
290.727	35.31
290.943	42.86
291.159	30.45
291.374	27.55
291.59	20.79
291.805	1.14
292.021	7.43
292.236	15.86
292.451	24.62
292.667	34.1
292.882	40.53
293.098	43.65
293.313	36.51
293.529	29.44
293.744	21.83
293.959	24.53
294.175	20.51
294.39	9
294.605	4.5
294.821	7.01
295.036	3.68
295.251	2.44
295.467	8.04
295.682	-5.44
295.897	-0.42
296.112	7.77
296.328	15.39
296.543	26.29
296.758	33.4
296.973	34.39
297.188	37.96
297.404	26.63
297.619	30.58
297.834	33.82
298.049	18.04
298.264	9.15
298.479	3.46
298.694	4.2
298.909	8.84
299.125	13.59
299.34	6.49
299.555	17.26
299.77	14.31
299.985	22.29
300.2	29.65
300.415	29.19
300.63	18.91
300.845	2.92
301.06	3.53
301.275	-2.19
301.49	5.77
301.704	20.05
301.919	28.23
302.134	12.94
302.349	9.68
302.564	6.75
302.779	4.11
302.994	0.71
303.209	-3.45
303.423	13.76
303.638	29.86
303.853	43.94
304.068	44.24
304.283	52.74
304.497	35.92
304.712	29.95
304.927	24.33
305.142	24.87
305.356	19.35
305.571	28.15
305.786	18.52
306	22.42
306.215	18.9
306.43	21.81
306.644	31.38
306.859	36.98
307.074	29.44
307.288	33.5
307.503	31
307.717	17.19
307.932	24.06
308.147	24.79
308.361	30.42
308.576	30.4
308.79	34.39
309.005	12
309.219	18.53
309.434	-4.1
309.648	11.95
309.863	7.65
310.077	12.6
310.292	14.27
310.506	35.42
310.72	16.7
310.935	26.3
311.149	24.94
311.364	24.82
311.578	24.5
311.792	30.11
312.007	23.81
312.221	31.68
312.435	15.06
312.649	9.89
312.864	6.68
313.078	4.13
313.292	6.75
313.507	14.1
313.721	16.22
313.935	23.43
314.149	30.28
314.363	27.07
314.578	28.19
314.792	23.51
315.006	14.32
315.22	-16.18
315.434	-21.36
315.648	-21.21
315.862	-34.08
316.077	-24.19
316.291	8.57
316.505	22.53
316.719	41.6
316.933	34.7
317.147	18.17
317.361	5.07
317.575	5.59
317.789	-25.22
318.003	-29.18
318.217	-7.94
318.431	12.77
318.645	17.89
318.859	14.65
319.073	13
319.287	-1.16
319.5	-10.2
319.714	-8.47
319.928	22.68
320.142	28.7
320.356	37.64
320.57	37.49
320.784	37.42
320.997	25.88
321.211	21.14
321.425	28.17
321.639	29.83
321.853	28.47
322.066	25.62
322.28	39.14
322.494	40.85
322.707	32.2
322.921	18.93
323.135	21.88
323.349	3.04
323.562	-12.03
323.776	4.5
323.989	25.54
324.203	22.23
324.417	42.67
324.63	53.05
324.844	63.65
325.057	73.17
325.271	72.67
325.485	37.48
325.698	45.3
325.912	46.5
326.125	36.83
326.339	36.88
326.552	52.6
326.766	37.12
326.979	22.54
327.193	27.13
327.406	17.17
327.619	22.09
327.833	13.27
328.046	7.2
328.26	-5.83
328.473	-4.29
328.686	-4.68
328.9	8.28
329.113	4.04
329.326	9.48
329.54	25.08
329.753	25.07
329.966	23.98
330.179	25.81
330.393	29.36
330.606	32.21
330.819	23.14
331.032	25.48
331.246	32.92
331.459	35.25
331.672	15.26
331.885	28.74
332.098	23
332.311	18.73
332.525	22.81
332.738	45.25
332.951	32.16
333.164	38.41
333.377	47.38
333.59	34.73
333.803	24.77
334.016	26.76
334.229	14.86
334.442	-1.79
334.655	-17.67
334.868	-29.54
335.081	-17.75
335.294	-1.79
335.507	4.17
335.72	13.06
335.933	9.57
336.146	12.1
336.359	1.39
336.572	-6.78
336.785	3.3
336.997	16.7
337.21	9.57
337.423	33.84
337.636	37.92
337.849	18.3
338.062	35.26
338.274	52.19
338.487	46.2
338.7	49.21
338.913	48.62
339.125	34.07
339.338	16.5
339.551	20.55
339.763	27.46
339.976	30.18
340.189	27.57
340.402	41.78
340.614	34.37
340.827	23.56
341.039	22.68
341.252	22.56
341.465	-6.33
341.677	-17.37
341.89	-36.56
342.102	-14.61
342.315	-4.14
342.527	7.31
342.74	11.08
342.952	30.43
343.165	31.94
343.377	38.94
343.59	37.41
343.802	38.45
344.015	23.41
344.227	21.95
344.44	15.62
344.652	16.03
344.864	18
345.077	20.33
345.289	19.75
345.502	13.58
345.714	-19.55
345.926	-35.32
346.139	-9.81
346.351	-6.4
346.563	6.31
346.775	20.98
346.988	27.06
347.2	23.47
347.412	33.04
347.624	33.31
347.837	38.83
348.049	16.37
348.261	35.14
348.473	-2.01
348.685	5.76
348.897	16.94
349.11	40.98
349.322	30.7
349.534	41.73
349.746	33.89
349.958	26.31
350.17	17.51
350.382	33.21
350.594	36.98
350.806	29.96
351.018	41.12
351.23	41.13
351.442	24.99
351.654	23.52
351.866	32.15
352.078	21.1
352.29	26.71
352.502	25.16
352.714	21.22
352.926	21.59
353.138	18.72
353.35	-2.26
353.561	-4.1
353.773	2.23
353.985	15.53
354.197	20.76
354.409	39.64
354.621	47.55
354.832	47.31
355.044	30.85
355.256	27.59
355.468	23.76
355.679	17.49
355.891	4.22
356.103	-1.32
356.314	14.6
356.526	23.98
356.738	22.33
356.949	36.51
357.161	55.43
357.373	48.76
357.584	38.97
357.796	38.58
358.008	23.32
358.219	5.94
358.431	5.69
358.642	4.42
358.854	6.96
359.065	8.16
359.277	15.68
359.488	15.25
359.7	14.91
359.911	15.54
360.123	19.29
360.334	18.68
360.546	35
360.757	36.16
360.969	30.7
361.18	31.18
361.391	32.34
361.603	17.37
361.814	21.66
362.025	19.66
362.237	20.67
362.448	17.21
362.659	7.25
362.871	4.89
363.082	12.66
363.293	4.66
363.504	-5.24
363.716	2.8
363.927	-10.04
364.138	-21.1
364.349	-9.98
364.56	-5.94
364.772	4.47
364.983	9.21
365.194	6.27
365.405	-1.95
365.616	-9.31
365.827	-15.39
366.038	-10.49
366.25	-6.39
366.461	0.39
366.672	10.13
366.883	5.57
367.094	15.61
367.305	12.62
367.516	19.49
367.727	14.65
367.938	22.04
368.149	16.14
368.36	20.67
368.571	7.74
368.781	6.43
368.992	-3.3
369.203	0.04
369.414	-4.41
369.625	-11.23
369.836	-5.31
370.047	12.04
370.258	3.4
370.468	16.23
370.679	27.85
370.89	23.77
371.101	32.43
371.312	35.88
371.522	31.34
371.733	24.66
371.944	35.79
372.155	26.52
372.365	31.7
372.576	34.91
372.787	31.86
372.997	30.12
373.208	19.5
373.419	6.43
373.629	-9.87
373.84	-10.16
374.05	-27.18
374.261	-6.01
374.472	7.15
374.682	13.46
374.893	18.31
375.103	20.34
375.314	15.51
375.524	9.79
375.735	0.03
375.945	-2.28
376.156	2.72
376.366	13.74
376.577	17.69
376.787	18.89
376.997	22.53
377.208	19.36
377.418	9.33
377.629	9.23
377.839	13.4
378.049	20.83
378.26	22.72
378.47	16.74
378.68	5.9
378.89	7.99
379.101	-4.33
379.311	-5.81
379.521	-1.37
379.732	14.26
379.942	15.93
380.152	7.06
380.362	15.17
380.572	19.75
380.783	23.54
380.993	32.86
381.203	37.37
381.413	24.48
381.623	25.8
381.833	24.14
382.043	7.43
382.253	7.25
382.463	18.66
382.674	19.98
382.884	15.01
383.094	18.34
383.304	15.92
383.514	19.9
383.724	11.9
383.934	14.92
384.144	14.01
384.353	14.66
384.563	-1.06
384.773	5.95
384.983	0.6
385.193	9.36
385.403	8.61
385.613	17.73
385.823	13.28
386.033	18.35
386.242	14.56
386.452	13.38
386.662	17.13
386.872	19.18
387.082	9.54
387.291	12.66
387.501	10.71
387.711	5.64
387.921	8.61
388.13	15.26
388.34	9.06
388.55	10.08
388.759	9.43
388.969	3.46
389.179	2.91
389.388	3.96
389.598	7.31
389.807	12.94
390.017	12.42
390.227	9.19
390.436	10.26
390.646	6.46
390.855	6.08
391.065	7.64
391.274	9.84
391.484	9.18
391.693	9.9
391.903	7.06
392.112	5.66
392.322	4.55
392.531	5.31
392.74	6.66
392.95	6.17
393.159	4.82
393.369	4.89
393.578	4.44
393.787	4.97
393.997	4.94
394.206	6.14
394.415	6.02
394.625	5.75
394.834	3.29
395.043	4.62
395.252	5.27
395.462	5.23
395.671	5.3
395.88	6.82
396.089	4.28
396.298	3.95
396.508	4.04
396.717	4.05
396.926	4.42
397.135	4.88
397.344	4.44
397.553	5.06
397.762	5.34
397.971	4.74
398.181	4.64
398.39	4.77
398.599	3.92
398.808	3.4
399.017	4.02
399.226	4.94
399.435	4.79
399.644	5.77
399.853	5.7
400.062	5.32
400.27	5.3
400.479	5.93
400.688	5.48
400.897	5.8
401.106	5.79
401.315	5.79
401.524	5.47
401.733	4.81
401.941	4.34
402.15	3.99
402.359	3.55
402.568	3.49
402.777	3.88
402.985	3.92
403.194	3.86
403.403	4.03
403.612	3.98
403.82	3.67
404.029	3.87
404.238	3.94
404.446	4
404.655	3.81
404.864	4.12
405.072	3.83
405.281	4
405.489	3.88
405.698	3.9
405.906	3.79
406.115	4.24
406.324	4.32
406.532	4.12
406.741	4.26
406.949	4.37
407.158	4.18
407.366	4.02
407.574	4.16
407.783	4.1
407.991	4.06
408.2	4.11
408.408	4.2
408.617	4.12
408.825	4.15
409.033	4.21
409.242	4.19
409.45	4.02
409.658	4.02
409.867	3.91
410.075	3.73
410.283	3.51
410.491	3.54
410.7	3.65
410.908	3.63
411.116	3.86
411.324	4.04
411.533	4.08
411.741	4.02
411.949	4.25
412.157	4.1
412.365	4.14
412.573	4.05
412.781	4.01
412.99	3.92
413.198	3.93
413.406	3.9
413.614	3.89
413.822	3.89
414.03	3.86
414.238	3.87
414.446	3.82
414.654	3.93
414.862	3.97
415.07	3.92
415.278	3.92
415.486	3.98
415.694	3.81
415.902	3.78
416.109	3.7
416.317	3.72
416.525	3.58
416.733	3.65
416.941	3.67
417.149	3.58
417.357	3.44
417.564	3.45
417.772	3.45
417.98	3.57
418.188	3.5
418.395	3.5
418.603	3.52
418.811	3.68
419.019	3.45
419.226	3.79
419.434	3.75
419.642	3.51
419.849	3.35
420.057	3.25
420.265	3.26
420.472	3.33
420.68	3.52
420.887	3.61
421.095	3.77
421.302	3.59
421.51	3.65
421.717	3.55
421.925	3.61
422.132	3.57
422.34	3.55
422.547	3.57
422.755	3.76
422.962	3.68
423.17	3.72
423.377	3.78
423.585	3.7
423.792	3.47
423.999	3.37
424.207	3.28
424.414	3.29
424.621	3.26
424.829	3.18
425.036	3.23
425.243	3.35
425.451	3.37
425.658	3.19
425.865	3.43
426.072	3.44
426.28	3.3
426.487	3.39
426.694	3.55
426.901	3.55
427.108	3.5
427.315	3.5
427.523	3.43
427.73	3.34
427.937	3.17
428.144	3.12
428.351	3.14
428.558	3.06
428.765	3.08
428.972	3.26
429.179	3.2
429.386	3.23
429.593	3.18
429.8	3.29
430.007	3.25
430.214	3.43
430.421	3.41
430.628	3.4
430.835	3.19
431.042	3.14
431.249	3.14
431.456	3.22
431.662	3.35
431.869	3.5
432.076	3.53
432.283	3.41
432.49	3.25
432.697	3.17
432.903	3.16
433.11	3.05
433.317	3.23
433.524	3.31
433.73	3.23
433.937	3.34
434.144	3.34
434.35	3.28
434.557	3.23
434.764	3.18
434.97	3.01
435.177	3.03
435.384	2.91
435.59	2.99
435.797	3.14
436.003	3.3
436.21	3.41
436.416	3.34
436.623	3.25
436.829	3.21
437.036	3.19
437.242	3.11
437.449	3.32
437.655	3.38
437.862	3.39
438.068	3.36
438.275	3.27
438.481	3.26
438.687	3.13
438.894	3.17
439.1	2.99
439.307	3.2
439.513	3.13
439.719	3.27
439.926	3.28
440.132	3.43
440.338	3.35
440.544	3.31
440.751	3.24
440.957	3.14
441.163	3.08
441.369	3.18
441.575	3.23
441.782	3.29
441.988	3.35
442.194	3.4
442.4	3.27
442.606	3.38
442.812	3.39
443.018	3.36
443.224	3.31
443.431	3.37
443.637	3.24
443.843	3.15
444.049	3.23
444.255	3.27
444.461	3.23
444.667	3.26
444.873	3.14
445.079	3.12
445.284	3.04
445.49	3.04
445.696	3.03
445.902	3.2
446.108	3.19
446.314	3.19
446.52	3.22
446.726	3.17
446.931	3.22
447.137	3.18
447.343	3.32
447.549	3.3
447.755	3.27
447.96	3.2
448.166	3.17
448.372	3.14
448.578	3.17
448.783	3.2
448.989	3.24
449.195	3.25
449.4	3.25
449.606	3.23
449.812	3.25
450.017	3.21
450.223	3.26
450.428	3.26
450.634	3.26
450.84	3.28
451.045	3.38
451.251	3.42
451.456	3.3
451.662	3.33
451.867	3.44
452.073	3.33
452.278	3.21
452.483	3.26
452.689	3.22
452.894	3.24
453.1	3.28
453.305	3.36
453.51	3.45
453.716	3.46
453.921	3.39
454.127	3.43
454.332	3.42
454.537	3.37
454.742	3.39
454.948	3.37
455.153	3.42
455.358	3.44
455.563	3.43
455.769	3.35
455.974	3.35
456.179	3.27
456.384	3.27
456.589	3.22
456.795	3.3
457	3.25
457.205	3.32
457.41	3.24
457.615	3.21
457.82	3.26
458.025	3.28
458.23	3.19
458.435	3.13
458.64	3.24
458.845	3.19
459.05	3.07
459.255	3.09
459.46	3.34
459.665	3.38
459.87	3.4
460.075	3.44
460.28	3.49
460.485	3.36
460.69	3.34
460.895	3.34
461.099	3.32
461.304	3.23
461.509	3.27
461.714	3.23
461.919	3.32
462.123	3.37
462.328	3.38
462.533	3.39
462.738	3.42
462.942	3.36
463.147	3.4
463.352	3.53
463.556	3.45
463.761	3.43
463.966	3.31
464.17	3.32
464.375	3.27
464.58	3.31
464.784	3.33
464.989	3.43
465.193	3.45
465.398	3.47
465.602	3.48
465.807	3.45
466.011	3.43
466.216	3.39
466.42	3.33
466.625	3.44
466.829	3.44
467.034	3.48
467.238	3.62
467.443	3.69
467.647	3.56
467.851	3.56
468.056	3.57
468.26	3.48
468.464	3.42
468.669	3.45
468.873	3.48
469.077	3.41
469.282	3.43
469.486	3.4
469.69	3.43
469.894	3.44
470.099	3.53
470.303	3.59
470.507	3.69
470.711	3.73
470.915	3.75
471.119	3.76
471.324	3.67
471.528	3.66
471.732	3.53
471.936	3.47
472.14	3.55
472.344	3.63
472.548	3.73
472.752	3.85
472.956	3.91
473.16	3.91
473.364	3.81
473.568	3.69
473.772	3.69
473.976	3.74
474.18	3.7
474.384	3.75
474.588	3.79
474.792	3.79
474.995	3.77
475.199	3.76
475.403	3.8
475.607	3.75
475.811	3.78
476.015	3.76
476.218	3.76
476.422	3.77
476.626	3.82
476.83	3.78
477.033	3.83
477.237	3.81
477.441	3.75
477.644	3.77
477.848	3.8
478.052	3.84
478.255	3.84
478.459	3.87
478.663	3.89
478.866	3.9
479.07	3.88
479.273	3.98
479.477	3.99
479.681	3.96
479.884	3.91
480.088	3.85
480.291	3.79
480.495	3.79
480.698	3.79
480.901	3.83
481.105	3.87
481.308	3.87
481.512	3.89
481.715	4
481.919	4.02
482.122	4.01
482.325	4.07
482.529	4.06
482.732	3.95
482.935	3.97
483.138	3.95
483.342	3.87
483.545	3.95
483.748	3.89
483.952	3.91
484.155	3.93
484.358	3.94
484.561	3.93
484.764	3.99
484.967	4
485.171	3.98
485.374	4.07
485.577	3.97
485.78	3.97
485.983	3.97
486.186	3.93
486.389	3.89
486.592	3.94
486.795	3.97
486.998	3.92
487.201	3.96
487.404	3.91
487.607	3.9
487.81	3.93
488.013	4
488.216	3.99
488.419	3.97
488.622	3.99
488.825	3.95
489.028	3.93
489.231	3.96
489.433	3.98
489.636	3.99
489.839	3.99
490.042	3.98
490.245	3.99
490.447	3.99
490.65	3.95
490.853	3.95
491.056	3.9
491.258	3.88
491.461	3.87
491.664	3.9
491.866	3.88
492.069	3.89
492.272	3.93
492.474	3.92
492.677	3.96
492.879	3.99
493.082	4.05
493.285	4.02
493.487	4.1
493.69	4.07
493.892	4.05
494.095	4.02
494.297	4.04
494.5	4.02
494.702	4.06
494.905	4.07
495.107	4.05
495.309	4.05
495.512	4.08
495.714	4.06
495.917	4.06
496.119	4.07
496.321	4.03
496.524	4.02
496.726	4.03
496.928	4.03
497.13	4.09
497.333	4.13
497.535	4.18
497.737	4.18
497.939	4.23
498.142	4.23
498.344	4.23
498.546	4.21
498.748	4.2
498.95	4.24
499.152	4.18
499.355	4.17
499.557	4.13
499.759	4.18
499.961	4.14
500.163	4.22
500.365	4.22
500.567	4.21
500.769	4.18
500.971	4.23
501.173	4.2
501.375	4.27
501.577	4.29
501.779	4.33
501.981	4.32
502.183	4.32
502.385	4.29
502.587	4.35
502.788	4.42
502.99	4.41
503.192	4.49
503.394	4.54
503.596	4.54
503.798	4.44
503.999	4.47
504.201	4.46
504.403	4.44
504.605	4.41
504.806	4.48
505.008	4.47
505.21	4.42
505.411	4.45
505.613	4.53
505.815	4.49
506.016	4.6
506.218	4.63
506.42	4.64
506.621	4.65
506.823	4.71
507.024	4.64
507.226	4.72
507.427	4.73
507.629	4.74
507.83	4.74
508.032	4.75
508.233	4.66
508.435	4.71
508.636	4.71
508.838	4.73
509.039	4.79
509.24	4.87
509.442	4.82
509.643	4.81
509.845	4.78
510.046	4.81
510.247	4.78
510.448	4.85
510.65	4.82
510.851	4.88
511.052	4.87
511.254	4.94
511.455	4.97
511.656	5.05
511.857	4.99
512.058	5
512.26	4.99
512.461	4.96
512.662	4.96
512.863	5.02
513.064	5.03
513.265	5
513.466	4.98
513.667	5.03
513.868	5.02
514.069	5.07
514.27	5.01
514.471	5.05
514.672	5.02
514.873	4.98
515.074	4.95
515.275	5.05
515.476	5.08
515.677	5.08
515.878	5.14
516.079	5.2
516.28	5.21
516.481	5.2
516.682	5.16
516.882	5.2
517.083	5.14
517.284	5.16
517.485	5.21
517.686	5.27
517.886	5.33
518.087	5.34
518.288	5.36
518.488	5.34
518.689	5.34
518.89	5.31
519.091	5.37
519.291	5.41
519.492	5.44
519.692	5.47
519.893	5.51
520.094	5.46
520.294	5.41
520.495	5.44
520.695	5.47
520.896	5.45
521.096	5.52
521.297	5.53
521.497	5.56
521.698	5.52
521.898	5.55
522.099	5.53
522.299	5.6
522.499	5.55
522.7	5.59
522.9	5.62
523.101	5.66
523.301	5.6
523.501	5.67
523.702	5.65
523.902	5.65
524.102	5.66
524.302	5.68
524.503	5.65
524.703	5.7
524.903	5.73
525.103	5.73
525.304	5.72
525.504	5.75
525.704	5.75
525.904	5.74
526.104	5.76
526.304	5.78
526.504	5.74
526.705	5.75
526.905	5.75
527.105	5.7
527.305	5.75
527.505	5.77
527.705	5.76
527.905	5.81
528.105	5.85
528.305	5.82
528.505	5.87
528.705	5.9
528.905	5.9
529.105	5.98
529.304	6.02
529.504	6.04
529.704	6.06
529.904	6.07
530.104	6.06
530.304	6.09
530.503	6.08
530.703	6.08
530.903	6.08
531.103	6.12
531.303	6.07
531.502	6.2
531.702	6.23
531.902	6.27
532.101	6.24
532.301	6.33
532.501	6.31
532.7	6.34
532.9	6.38
533.1	6.44
533.299	6.44
533.499	6.39
533.698	6.37
533.898	6.35
534.097	6.33
534.297	6.37
534.496	6.39
534.696	6.46
534.895	6.46
535.095	6.49
535.294	6.48
535.494	6.52
535.693	6.52
535.892	6.52
536.092	6.51
536.291	6.53
536.491	6.54
536.69	6.57
536.889	6.63
537.088	6.67
537.288	6.71
537.487	6.74
537.686	6.78
537.886	6.85
538.085	6.88
538.284	6.9
538.483	6.91
538.682	7
538.882	6.95
539.081	6.99
539.28	6.96
539.479	6.99
539.678	6.98
539.877	7.02
540.076	7.08
540.275	7.16
540.474	7.19
540.673	7.18
540.872	7.2
541.071	7.25
541.27	7.31
541.469	7.37
541.668	7.42
541.867	7.53
542.066	7.51
542.265	7.55
542.464	7.56
542.663	7.55
542.862	7.57
543.06	7.66
543.259	7.67
543.458	7.72
543.657	7.81
543.856	7.84
544.054	7.82
544.253	7.89
544.452	7.89
544.651	7.9
544.849	7.96
545.048	8
545.247	8
545.445	8.04
545.644	8.1
545.843	8.09
546.041	8.14
546.24	8.13
546.438	8.24
546.637	8.28
546.836	8.36
547.034	8.4
547.233	8.48
547.431	8.5
547.63	8.56
547.828	8.62
548.027	8.67
548.225	8.76
548.423	8.83
548.622	8.87
548.82	8.91
549.019	8.96
549.217	9.03
549.415	9.01
549.614	9.11
549.812	9.14
550.01	9.2
550.209	9.27
550.407	9.39
550.605	9.33
550.803	9.39
551.002	9.52
551.2	9.56
551.398	9.63
551.596	9.8
551.794	9.91
551.993	9.95
552.191	9.99
552.389	10.04
552.587	10.11
552.785	10.13
552.983	10.19
553.181	10.26
553.379	10.36
553.577	10.43
553.775	10.49
553.973	10.54
554.171	10.62
554.369	10.66
554.567	10.75
554.765	10.8
554.963	10.95
555.161	11.06
555.359	11.18
555.557	11.21
555.755	11.39
555.952	11.43
556.15	11.51
556.348	11.58
556.546	11.7
556.744	11.79
556.941	11.84
557.139	11.96
557.337	12.02
557.535	12.06
557.732	12.12
557.93	12.23
558.128	12.26
558.325	12.35
558.523	12.47
558.721	12.53
558.918	12.56
559.116	12.68
559.313	12.79
559.511	12.87
559.708	13.03
559.906	13.18
560.104	13.23
560.301	13.29
560.498	13.41
560.696	13.42
560.893	13.51
561.091	13.61
561.288	13.78
561.486	13.86
561.683	13.91
561.88	13.9
562.078	14.02
562.275	14.07
562.473	14.13
562.67	14.28
562.867	14.45
563.064	14.53
563.262	14.53
563.459	14.68
563.656	14.73
563.853	14.78
564.051	14.9
564.248	15.04
564.445	15.03
564.642	15.06
564.839	15.18
565.036	15.23
565.234	15.27
565.431	15.39
565.628	15.53
565.825	15.54
566.022	15.62
566.219	15.7
566.416	15.7
566.613	15.71
566.81	15.84
567.007	15.87
567.204	15.9
567.401	15.98
567.598	16.16
567.795	16.22
567.991	16.27
568.188	16.4
568.385	16.47
568.582	16.47
568.779	16.49
568.976	16.53
569.172	16.53
569.369	16.5
569.566	16.52
569.763	16.62
569.96	16.64
570.156	16.65
570.353	16.75
570.55	16.79
570.746	16.7
570.943	16.74
571.14	16.8
571.336	16.81
571.533	16.72
571.729	16.84
571.926	16.87
572.123	16.9
572.319	16.93
572.516	17.07
572.712	17.11
572.909	17.07
573.105	17.13
573.302	17.09
573.498	17
573.695	16.96
573.891	16.97
574.087	16.84
574.284	16.84
574.48	16.91
574.677	16.91
574.873	16.94
575.069	17.08
575.266	17.1
575.462	17.13
575.658	17.16
575.854	17.19
576.051	17.1
576.247	17.16
576.443	17.11
576.639	17.13
576.835	17.09
577.032	17.06
577.228	17.01
577.424	17
577.62	16.89
577.816	16.93
578.012	16.93
578.208	16.93
578.404	16.95
578.6	16.93
578.796	16.87
578.993	16.91
579.189	16.93
579.384	16.93
579.58	16.98
579.776	17.01
579.972	16.93
580.168	16.86
580.364	16.8
580.56	16.81
580.756	16.72
580.952	16.68
581.148	16.59
581.343	16.51
581.539	16.42
581.735	16.37
581.931	16.38
582.127	16.42
582.322	16.45
582.518	16.48
582.714	16.49
582.909	16.45
583.105	16.44
583.301	16.38
583.496	16.26
583.692	16.25
583.888	16.24
584.083	16.16
584.279	16.24
584.474	16.27
584.67	16.28
584.866	16.19
585.061	16.11
585.257	16.07
585.452	16.08
585.648	16.01
585.843	16.04
586.039	16.05
586.234	16.01
586.429	15.86
586.625	15.86
586.82	15.82
587.015	15.85
587.211	15.79
587.406	15.84
587.601	15.84
587.797	15.84
587.992	15.82
588.187	15.77
588.383	15.79
588.578	15.81
588.773	15.81
588.968	15.82
589.163	15.94
589.359	15.92
589.554	15.84
589.749	15.86
589.944	15.85
590.139	15.76
590.334	15.79
590.529	15.83
590.724	15.86
590.919	15.9
591.114	15.95
591.309	15.94
591.504	15.93
591.699	15.84
591.894	15.86
592.089	15.95
592.284	15.97
592.479	16.12
592.674	16.18
592.869	16.19
593.064	16.15
593.259	16.13
593.454	16.02
593.648	15.99
593.843	16.03
594.038	16.02
594.233	16.1
594.428	16.17
594.622	16.33
594.817	16.45
595.012	16.48
595.206	16.49
595.401	16.54
595.596	16.51
595.79	16.5
595.985	16.55
596.18	16.65
596.374	16.73
596.569	16.79
596.763	16.75
596.958	16.93
597.153	16.92
597.347	16.98
597.542	17.07
597.736	17.21
597.931	17.14
598.125	17.16
598.319	17.13
598.514	17.16
598.708	17.16
598.903	17.17
599.097	17.22
599.291	17.22
599.486	17.17
599.68	17.17
599.874	17.21
600.069	17.24
600.263	17.33
600.457	17.38
600.651	17.4
600.846	17.41
601.04	17.41
601.234	17.38
601.428	17.42
601.622	17.48
601.817	17.57
602.011	17.57
602.205	17.65
602.399	17.6
602.593	17.62
602.787	17.53
602.981	17.55
603.175	17.46
603.369	17.46
603.563	17.41
603.757	17.39
603.951	17.39
604.145	17.42
604.339	17.43
604.533	17.38
604.727	17.31
604.921	17.27
605.115	17.25
605.309	17.22
605.502	17.26
605.696	17.36
605.89	17.27
606.084	17.25
606.278	17.15
606.471	17.02
606.665	16.91
606.859	16.91
607.053	16.81
607.246	16.8
607.44	16.8
607.634	16.76
607.827	16.84
608.021	16.74
608.214	16.75
608.408	16.71
608.602	16.68
608.795	16.52
608.989	16.55
609.182	16.42
609.376	16.45
609.569	16.34
609.763	16.21
609.956	16.07
610.15	16.05
610.343	15.91
610.537	15.92
610.73	16.01
610.923	16.07
611.117	16.07
611.31	15.97
611.504	15.87
611.697	15.74
611.89	15.64
612.083	15.56
612.277	15.51
612.47	15.46
612.663	15.36
612.856	15.22
613.05	15.14
613.243	15.13
613.436	15.06
613.629	15.02
613.822	15.07
614.015	15.05
614.209	14.95
614.402	14.88
614.595	14.76
614.788	14.63
614.981	14.5
615.174	14.42
615.367	14.39
615.56	14.4
615.753	14.37
615.946	14.29
616.139	14.23
616.332	14.17
616.525	14.16
616.718	14.08
616.911	14
617.103	13.96
617.296	13.92
617.489	13.84
617.682	13.81
617.875	13.85
618.067	13.82
618.26	13.85
618.453	13.79
618.646	13.82
618.838	13.66
619.031	13.64
619.224	13.5
619.417	13.53
619.609	13.49
619.802	13.51
619.994	13.5
620.187	13.49
620.38	13.41
620.572	13.33
620.765	13.34
620.957	13.24
621.15	13.24
621.342	13.22
621.535	13.15
621.727	13.11
621.92	13.11
622.112	13.04
622.305	12.95
622.497	12.97
622.69	12.9
622.882	12.84
623.074	12.84
623.267	12.89
623.459	12.87
623.651	12.91
623.844	12.99
624.036	12.95
624.228	12.89
624.42	12.9
624.613	12.9
624.805	12.76
624.997	12.73
625.189	12.78
625.381	12.69
625.574	12.63
625.766	12.59
625.958	12.55
626.15	12.46
626.342	12.5
626.534	12.5
626.726	12.48
626.918	12.48
627.11	12.44
627.302	12.35
627.494	12.23
627.686	12.28
627.878	12.29
628.07	12.31
628.262	12.25
628.454	12.31
628.646	12.23
628.838	12.16
629.029	12.06
629.221	12.07
629.413	12.04
629.605	12.01
629.797	11.95
629.989	11.94
630.18	11.85
630.372	11.75
630.564	11.71
630.755	11.75
630.947	11.75
631.139	11.71
631.33	11.7
631.522	11.69
631.714	11.56
631.905	11.51
632.097	11.52
632.289	11.48
632.48	11.4
632.672	11.36
632.863	11.31
633.055	11.27
633.246	11.25
633.438	11.29
633.629	11.32
633.821	11.28
634.012	11.28
634.203	11.28
634.395	11.18
634.586	11.17
634.777	11.16
634.969	11.15
635.16	11.04
635.351	11.03
635.543	11.02
635.734	11
635.925	10.87
636.117	10.89
636.308	10.85
636.499	10.77
636.69	10.72
636.881	10.78
637.073	10.82
637.264	10.81
637.455	10.74
637.646	10.68
637.837	10.66
638.028	10.56
638.219	10.55
638.41	10.6
638.601	10.61
638.792	10.57
638.983	10.55
639.174	10.49
639.365	10.42
639.556	10.37
639.747	10.28
639.938	10.26
640.129	10.22
640.32	10.18
640.511	10.15
640.701	10.2
640.892	10.08
641.083	10.08
641.274	10
641.465	9.96
641.655	9.9
641.846	9.9
642.037	9.76
642.228	9.82
642.418	9.77
642.609	9.71
642.8	9.64
642.99	9.62
643.181	9.57
643.372	9.58
643.562	9.54
643.753	9.57
643.943	9.62
644.134	9.55
644.324	9.47
644.515	9.45
644.705	9.37
644.896	9.32
645.086	9.31
645.277	9.29
645.467	9.3
645.658	9.23
645.848	9.17
646.038	9.18
646.229	9.25
646.419	9.14
646.61	9.18
646.8	9.18
646.99	9.13
647.18	9.07
647.371	9.03
647.561	9.04
647.751	9.04
647.941	9.04
648.132	8.99
648.322	9.02
648.512	8.96
648.702	8.97
648.892	8.93
649.082	8.95
649.272	9.03
649.462	9.09
649.653	9.1
649.843	9.1
650.033	9.02
650.223	8.97
650.413	8.91
650.603	8.9
650.793	8.89
650.983	8.96
651.172	8.89
651.362	8.84
651.552	8.81
651.742	8.81
651.932	8.79
652.122	8.81
652.312	8.8
652.502	8.77
652.691	8.67
652.881	8.59
653.071	8.52
653.261	8.46
653.45	8.39
653.64	8.44
653.83	8.44
654.019	8.34
654.209	8.28
654.399	8.18
654.588	8.05
654.778	7.91
654.968	7.87
655.157	7.84
655.347	7.87
655.536	7.79
655.726	7.77
655.915	7.76
656.105	7.77
656.294	7.66
656.484	7.56
656.673	7.53
656.863	7.46
657.052	7.31
657.241	7.22
657.431	7.21
657.62	7.11
657.809	6.97
657.999	6.88
658.188	6.88
658.377	6.81
658.567	6.7
658.756	6.6
658.945	6.65
659.134	6.49
659.324	6.39
659.513	6.32
659.702	6.25
659.891	6.17
660.08	6.14
660.269	6.1
660.458	6.04
660.648	6.06
660.837	5.93
661.026	5.85
661.215	5.72
661.404	5.63
661.593	5.48
661.782	5.39
661.971	5.25
662.16	5.29
662.349	5.26
662.538	5.25
662.726	5.1
662.915	5.06
663.104	4.92
663.293	4.8
663.482	4.76
663.671	4.82
663.86	4.74
664.048	4.73
664.237	4.65
664.426	4.57
664.615	4.49
664.803	4.48
664.992	4.33
665.181	4.35
665.369	4.34
665.558	4.34
665.747	4.36
665.935	4.46
666.124	4.49
666.312	4.46
666.501	4.45
666.69	4.41
666.878	4.41
667.067	4.37
667.255	4.38
667.444	4.33
667.632	4.31
667.82	4.23
668.009	4.2
668.197	4.2
668.386	4.22
668.574	4.22
668.762	4.23
668.951	4.3
669.139	4.31
669.327	4.38
669.516	4.38
669.704	4.43
669.892	4.35
670.08	4.34
670.269	4.26
670.457	4.31
670.645	4.34
670.833	4.33
671.021	4.37
671.21	4.4
671.398	4.32
671.586	4.28
671.774	4.37
671.962	4.38
672.15	4.47
672.338	4.57
672.526	4.67
672.714	4.69
672.902	4.71
673.09	4.57
673.278	4.59
673.466	4.6
673.654	4.74
673.842	4.72
674.03	4.91
674.218	5
674.405	5.12
674.593	5.05
674.781	5.1
674.969	5.2
675.157	5.15
675.344	5.06
675.532	5.2
675.72	5.39
675.908	5.39
676.095	5.52
676.283	5.63
676.471	5.63
676.658	5.59
676.846	5.6
677.033	5.62
677.221	5.64
677.409	5.61
677.596	5.61
677.784	5.63
677.971	5.73
678.159	5.8
678.346	5.91
678.534	5.98
678.721	6.05
678.909	6.08
679.096	6.19
679.283	6.16
679.471	6.21
679.658	6.2
679.846	6.22
680.033	6.18
680.22	6.29
680.408	6.27
680.595	6.45
680.782	6.44
680.969	6.44
681.157	6.5
681.344	6.59
681.531	6.65
681.718	6.77
681.905	6.88
682.093	7.02
682.28	7.09
682.467	7.07
682.654	7.09
682.841	7.17
683.028	7.14
683.215	7.36
683.402	7.48
683.589	7.57
683.776	7.73
683.963	7.96
684.15	8.01
684.337	8.1
684.524	8.31
684.711	8.46
684.898	8.49
685.085	8.68
685.271	8.95
685.458	9.1
685.645	9.26
685.832	9.44
686.019	9.4
686.205	9.5
686.392	9.65
686.579	9.76
686.766	9.95
686.952	10.33
687.139	10.66
687.326	10.91
687.512	11.18
687.699	11.44
687.886	11.71
688.072	11.85
688.259	12.13
688.445	12.31
688.632	12.45
688.818	12.62
689.005	12.9
689.191	13.17
689.378	13.49
689.564	13.97
689.751	14.47
689.937	14.92
690.124	15.37
690.31	15.83
690.496	16.19
690.683	16.57
690.869	16.85
691.055	17.23
691.242	17.76
691.428	18.11
691.614	18.67
691.8	19.24
691.987	19.79
692.173	20.25
692.359	20.95
692.545	21.4
692.731	22.02
692.918	22.44
693.104	23.02
693.29	23.51
693.476	23.99
693.662	24.35
693.848	24.92
694.034	25.24
694.22	25.74
694.406	26.42
694.592	26.98
694.778	27.64
694.964	28.54
695.15	29.18
695.336	29.66
695.522	30.41
695.708	31.07
695.894	31.41
696.08	32.03
696.265	32.53
696.451	33.16
696.637	33.62
696.823	34.39
697.009	35.16
697.194	35.96
697.38	36.65
697.566	37.27
697.751	37.79
697.937	38.35
698.123	39
698.308	39.59
698.494	40.28
698.68	40.85
698.865	41.4
699.051	42.02
699.236	42.55
699.422	43.23
699.607	43.73
699.793	44.53
699.978	44.99
700.164	45.58
700.349	45.88
700.535	46.54
700.72	46.99
700.906	47.63
701.091	48.34
701.276	49.12
701.462	49.9
701.647	50.46
701.832	50.97
702.018	51.5
702.203	52.17
702.388	52.75
702.573	53.48
702.759	54.17
702.944	54.68
703.129	55.35
703.314	56.06
703.499	56.58
703.684	57.05
703.87	57.65
704.055	57.86
704.24	57.95
704.425	58.35
704.61	58.75
704.795	59.19
704.98	60.12
705.165	60.86
705.35	61.58
705.535	62.04
705.72	62.85
705.905	63.31
706.09	63.92
706.275	64.46
706.459	65.42
706.644	65.75
706.829	66.33
707.014	66.93
707.199	67.06
707.384	67.24
707.568	67.59
707.753	67.91
707.938	67.8
708.123	68.42
708.307	69.26
708.492	69.96
708.677	70.1
708.861	71
709.046	71.3
709.231	71.51
709.415	71.47
709.6	72.4
709.784	72.81
709.969	73.06
710.153	73.34
710.338	73.99
710.522	74.05
710.707	74.36
710.891	74.78
711.076	75.13
711.26	75.44
711.445	75.77
711.629	76.11
711.813	76.46
711.998	76.67
712.182	76.87
712.366	77.14
712.551	77.68
712.735	78.06
712.919	78.52
713.103	79
713.288	79.65
713.472	79.42
713.656	79.94
713.84	80.28
714.024	80.64
714.208	80.59
714.393	81.35
714.577	81.46
714.761	82.04
714.945	82.26
715.129	82.47
715.313	82.71
715.497	82.88
715.681	82.54
715.865	82.5
716.049	82.77
716.233	82.83
716.417	83.07
716.601	83.46
716.785	83.95
716.968	83.94
717.152	83.82
717.336	83.76
717.52	83.66
717.704	83.79
717.888	84.22
718.071	84.62
718.255	85.43
718.439	85.97
718.622	86
718.806	86.13
718.99	86.36
719.174	86.08
719.357	85.89
719.541	86.28
719.724	86.76
719.908	87.06
720.092	87.22
720.275	88.03
720.459	88.71
720.642	88.45
720.826	87.89
721.009	88.47
721.193	88.38
721.376	87.91
721.559	87.88
721.743	88.67
721.926	88.83
722.11	89.08
722.293	89.29
722.476	89.78
722.66	90.1
722.843	89.98
723.026	89.87
723.21	90.01
723.393	90.29
723.576	90.37
723.759	90.23
723.942	90.76
724.126	90.6
724.309	90.43
724.492	90.38
724.675	91.24
724.858	91.02
725.041	91.52
725.224	92.23
725.407	92.72
725.59	92.54
725.774	92.8
725.957	92.64
726.14	92.71
726.322	92.44
726.505	92.33
726.688	92.67
726.871	93.09
727.054	93.13
727.237	93.49
727.42	93.84
727.603	93.9
727.786	93.42
727.968	93.65
728.151	93.9
728.334	94.25
728.517	94.2
728.699	94.44
728.882	94.11
729.065	93.74
729.248	93.11
729.43	93.14
729.613	92.97
729.796	93.63
729.978	93.85
730.161	93.85
730.343	94.55
730.526	94.76
730.708	93.77
730.891	93.88
731.073	94.35
731.256	93.85
731.438	94.33
731.621	94.69
731.803	95.04
731.986	95.8
732.168	95.42
732.35	95.27
732.533	95.57
732.715	95.18
732.898	95.05
733.08	95.47
733.262	96.25
733.444	96.73
733.627	97.31
733.809	97.11
733.991	96.49
734.173	96.08
734.355	95.65
734.538	95.52
734.72	96.16
734.902	97.06
735.084	97.32
735.266	97.39
735.448	97.43
735.63	97.88
735.812	97.38
735.994	97.76
736.176	97.93
736.358	98.52
736.54	97.95
736.722	98.11
736.904	97.35
737.086	97.26
737.268	96.92
737.45	96.94
737.632	97.56
737.814	98.22
737.995	99.04
738.177	98.63
738.359	98.84
738.541	97.81
738.723	98.56
738.904	97.06
739.086	97.34
739.268	97.02
739.449	98.56
739.631	97.34
739.813	98.51
739.994	98.84
740.176	98.82
740.358	97.83
740.539	98.52
740.721	98.65
740.902	98.65
741.084	99.02
741.265	99.75
741.447	100.19
741.628	99.77
741.81	100.26
741.991	100.35
742.172	99.77
742.354	99.07
742.535	99.92
742.717	99.18
742.898	99.1
743.079	99.7
743.261	100.27
743.442	100.51
743.623	101.29
743.804	100.58
743.986	99.78
744.167	100.08
744.348	99.25
744.529	98.46
744.71	99.71
744.891	100.12
745.073	100.23
745.254	100.38
745.435	100.52
745.616	99.33
745.797	99.4
745.978	98.7
746.159	98.24
746.34	98.47
746.521	98.8
746.702	98.94
746.883	98.18
747.064	98.39
747.245	98.18
747.426	98
747.606	98.04
747.787	98.79
747.968	98.45
748.149	98.94
748.33	98.51
748.51	98.78
748.691	99.37
748.872	100.18
749.053	99.68
749.233	99.84
749.414	99.58
749.595	98.14
749.775	98.3
749.956	99.19
750.137	99.61
750.317	99.65
750.498	100.92
750.678	100.97
750.859	100.5
751.04	100.17
751.22	99.72
751.4	99.05
751.581	97.18
751.761	95.96
751.942	95.77
752.122	96.43
752.303	96.69
752.483	98.4
752.663	99.8
752.844	100.6
753.024	100.37
753.204	99.31
753.385	99.81
753.565	99.2
753.745	99.29
753.925	99
754.106	100.19
754.286	98.52
754.466	98.5
754.646	97.59
754.826	96.7
755.006	95.8
755.187	95.99
755.367	96.03
755.547	95.84
755.727	95.99
755.907	95.85
756.087	96.39
756.267	95.79
756.447	96.61
756.627	96.69
756.807	96.25
756.987	96.52
757.167	97.56
757.346	97.9
757.526	98.25
757.706	99.62
757.886	98.44
758.066	98
758.246	97.69
758.425	96.38
758.605	96.5
758.785	97.64
758.965	97.66
759.144	97.02
759.324	97.45
759.504	96.78
759.683	95.88
759.863	96.6
760.043	96.36
760.222	98.29
760.402	99.12
760.581	99.58
760.761	98.43
760.94	98.03
761.12	98.07
761.299	98.33
761.479	98.1
761.658	98.28
761.838	99.31
762.017	98.74
762.197	98.9
762.376	100.04
762.555	99.52
762.735	99.42
762.914	99.24
763.093	98.27
763.273	96.01
763.452	96.38
763.631	96.74
763.81	96.2
763.99	95.63
764.169	97.05
764.348	98.07
764.527	96.09
764.706	97.68
764.885	97.96
765.064	97.37
765.243	95.82
765.423	97.96
765.602	95.32
765.781	94.28
765.96	93.56
766.139	94.38
766.318	93.65
766.497	93.89
766.676	95.92
766.854	97.67
767.033	97.46
767.212	96.35
767.391	97.71
767.57	97.39
767.749	96.88
767.928	96.08
768.106	97.27
768.285	95.77
768.464	94.42
768.643	93.27
768.821	93.96
769	93.27
769.179	94.44
769.357	94.34
769.536	95.31
769.715	94.57
769.893	95.51
770.072	94.64
770.25	95.31
770.429	94.79
770.607	96.41
770.786	95.85
770.964	96.79
771.143	96.8
771.321	97.31
771.5	95.57
771.678	95.76
771.857	96.68
772.035	96.52
772.213	97.57
772.392	97.55
772.57	96.23
772.748	94.58
772.927	94.16
773.105	93.78
773.283	94.37
773.461	95.84
773.64	96.59
773.818	97.78
773.996	97.05
774.174	97.82
774.352	95.27
774.531	93.82
774.709	92.57
774.887	92.53
775.065	90.82
775.243	93.11
775.421	94.52
775.599	94.4
775.777	94.23
775.955	95.37
776.133	96.27
776.311	95.37
776.489	95.3
776.667	96.02
776.844	94.87
777.022	93.67
777.2	94.66
777.378	93.41
777.556	91.87
777.734	93.37
777.911	94.79
778.089	94.64
778.267	97.84
778.445	99.85
778.622	98.42
778.8	96.66
778.978	97.48
779.155	95.26
779.333	93.31
779.511	93.47
779.688	91.51
779.866	90.96
780.043	91.57
780.221	93
780.398	92.05
780.576	93.02
780.753	90.91
780.931	90.38
781.108	86.89
781.286	88.15
781.463	90.42
781.64	93.92
781.818	92.22
781.995	94.68
782.172	95.08
782.35	92.14
782.527	89.09
782.704	91.67
782.882	91.02
783.059	90.15
783.236	91.44
783.413	93.11
783.59	92.77
783.768	96.7
783.945	97.56
784.122	98.18
784.299	96.85
784.476	96.17
784.653	91
784.83	88.27
785.007	88.33
785.184	86.89
785.361	86.55
785.538	88.36
785.715	88.73
785.892	89.91
786.069	92.47
786.246	93.76
786.423	92.17
786.6	94.12
786.776	90.62
786.953	89.28
787.13	88.96
787.307	90.82
787.484	89.3
787.66	89.24
787.837	91.71
788.014	91.62
788.191	92.04
788.367	95.39
788.544	95.94
788.721	94.46
788.897	93.46
789.074	91.56
789.25	88.52
789.427	88.53
789.603	88.33
789.78	87.41
789.956	88.02
790.133	89.42
790.309	89
790.486	88.75
790.662	89.72
790.839	89.83
791.015	87.6
791.192	92.95
791.368	91.44
791.544	92.18
791.721	93.38
791.897	96.42
792.073	93.87
792.249	95.59
792.426	90.92
792.602	91.62
792.778	88.77
792.954	85.4
793.13	86.29
793.307	90.66
793.483	88.25
793.659	89.71
793.835	86.54
794.011	83.91
794.187	86.86
794.363	87.18
794.539	87.4
794.715	92.51
794.891	90.65
795.067	87.91
795.243	88.41
795.419	88.39
795.595	85.69
795.771	85.31
795.947	85.75
796.122	86.44
796.298	85.26
796.474	84.68
796.65	85.12
796.826	83.88
797.001	83.42
797.177	82.18
797.353	85.96
797.529	87.47
797.704	88.09
797.88	86.15
798.056	91.87
798.231	94.35
798.407	96.48
798.582	100.29
798.758	100.67
798.934	98.05
799.109	94.51
799.285	90.7
799.46	83.8
799.636	80.91
799.811	83.78
799.986	83.83
800.162	86.38
800.337	91.1
800.513	100.15
800.688	96.07
800.863	93.24
801.039	89.08
801.214	88.83
801.389	85.14
801.565	83.6
801.74	86.69
801.915	89
802.09	89.13
802.265	86.26
802.441	89.26
802.616	87.16
802.791	87.76
802.966	88.77
803.141	90.48
803.316	86.56
803.491	81.5
803.666	81.02
803.841	79.59
804.016	81.06
804.191	84.51
804.366	91.19
804.541	94.75
804.716	91.34
804.891	92.62
805.066	90.23
805.241	88.39
805.416	89.12
805.591	91.55
805.765	92.85
805.94	86.01
806.115	87.58
806.29	87.74
806.464	84.89
806.639	79.05
806.814	87.78
806.989	82.67
807.163	78.85
807.338	80.92
807.512	88.57
807.687	88.96
807.862	91.13
808.036	92.33
808.211	95.39
808.385	89.5
808.56	86.04
808.734	82.81
808.909	81.83
809.083	78.4
809.258	76.45
809.432	75.48
809.606	81.48
809.781	85.1
809.955	85.72
810.13	82.62
810.304	81.25
810.478	75.17
810.652	76.93
810.827	76.81
811.001	83.16
811.175	83.58
811.349	91.92
811.524	84.47
811.698	90.82
811.872	95.87
812.046	100.85
812.22	98.23
812.394	104.37
812.568	101.54
812.742	98.24
812.916	94.38
813.09	93.68
813.264	91.35
813.438	88.07
813.612	81.47
813.786	76.26
813.96	81.03
814.134	84.29
814.308	91.09
814.482	95.49
814.656	96.73
814.83	84.67
815.003	82.75
815.177	81.61
815.351	72.04
815.525	74.01
815.698	73.32
815.872	75.77
816.046	69.22
816.219	74.47
816.393	71.72
816.567	78.84
816.74	75.54
816.914	77.4
817.088	84.14
817.261	91.79
817.435	86.68
817.608	81.57
817.782	88.32
817.955	83.9
818.129	77.62
818.302	76.61
818.475	91.17
818.649	94.31
818.822	103.18
818.996	109.36
819.169	112.95
819.342	96.06
819.516	96.93
819.689	95.02
819.862	90.85
820.035	93.4
820.209	96.82
820.382	88.47
820.555	83.41
820.728	85.63
820.901	82.8
821.075	84.08
821.248	81.67
821.421	86.49
821.594	87.26
821.767	90.39
821.94	93.39
822.113	97.82
822.286	92.66
822.459	97.34
822.632	101.06
822.805	88.09
822.978	98.77
823.151	107.33
823.324	100.52
823.496	98.56
823.669	99.16
823.842	91.78
824.015	89.29
824.188	90.87
824.361	97.07
824.533	94.53
824.706	91.46
824.879	72.1
825.051	65.05
825.224	66.87
825.397	74.93
825.569	67.53
825.742	84.43
825.915	97.05
826.087	94.91
826.26	82.04
826.432	88.81
826.605	79.51
826.777	75.61
826.95	68.65
827.122	73.08
827.295	65.84
827.467	63.33
827.64	57.23
827.812	59.67
827.984	60.98
828.157	73.07
828.329	71.49
828.501	72.2
828.674	66.12
828.846	68.84
829.018	70.78
829.19	82.89
829.363	83.31
829.535	85.26
829.707	88.32
829.879	87.15
830.051	70.47
830.223	77.83
830.395	104.52
830.568	98.67
830.74	96.68
830.912	95.49
831.084	91.35
831.256	87.96
831.428	82.78
831.6	73.25
831.772	76.66
831.943	77.34
832.115	79.51
832.287	81.44
832.459	98.34
832.631	98.93
832.803	102.71
832.975	91.18
833.146	91.85
833.318	85.53
833.49	85.84
833.662	78.65
833.833	78.44
834.005	87.23
834.177	85.87
834.348	78.84
834.52	81.71
834.692	92.34
834.863	73.34
835.035	73.07
835.206	76.6
835.378	71.5
835.549	67.56
835.721	72.21
835.892	76.31
836.064	78.74
836.235	77.98
836.407	80.06
836.578	91.29
836.749	77.18
836.921	83.75
837.092	88.72
837.264	92.4
837.435	82.36
837.606	91.65
837.777	80.76
837.949	99.56
838.12	112.99
838.291	112.87
838.462	151.21
838.633	184.98
838.805	145.99
838.976	113.5
839.147	90.64
839.318	70.19
839.489	76.82
839.66	69.39
839.831	61.88
840.002	65.64
840.173	75.61
840.344	60.14
840.515	72
840.686	95.67
840.857	114.57
841.028	112.13
841.199	106.79
841.369	85.97
841.54	66.22
841.711	62.74
841.882	62.28
842.053	67.93
842.223	63.26
842.394	63.03
842.565	74.91
842.736	64.76
842.906	66.2
843.077	69.31
843.248	80.62
843.418	81.21
843.589	101.81
843.759	81.42
843.93	106.45
844.101	98.12
844.271	75.92
844.442	56.51
844.612	65.08
844.783	48.08
844.953	43.5
845.123	53.47
845.294	72.12
845.464	65.94
845.635	57.85
845.805	64.39
845.975	72.32
846.146	69.59
846.316	87.14
846.486	94.82
846.656	93.86
846.827	87.67
846.997	79.6
847.167	86.34
847.337	103.17
847.507	71.61
847.677	60.46
847.848	82.93
848.018	87.17
848.188	62.6
848.358	83.98
848.528	73.93
848.698	41.65
848.868	52.12
849.038	52.64
849.208	55.79
849.378	61.65
849.548	72.86
849.718	39.56
849.887	51.3
850.057	64.29
850.227	68.69
850.397	80.1
850.567	103.32
850.737	132.48
850.906	101.5
851.076	105.82
851.246	131.43
851.415	101.6
851.585	92.12
851.755	183.93
851.924	142.8
852.094	113.99
852.264	97.97
852.433	97.16
852.603	60.18
852.772	84.24
852.942	93.45
853.111	87.71
853.281	100.52
853.45	85.21
853.62	66.07
853.789	44.1
853.959	49.5
854.128	25.55
854.297	39.53
854.467	32.85
854.636	28.99
854.805	5.2
854.975	34.59
855.144	57.98
855.313	84.28
855.482	96.21
855.652	125.5
855.821	90.57
855.99	70.1
856.159	39.98
856.328	54.42
856.497	28.49
856.667	60.34
856.836	111.45
857.005	141.27
857.174	112.07
857.343	88.31
857.512	66.99
857.681	31.13
857.85	64.61
858.019	83.45
858.188	84.15
858.356	80.14
858.525	90.69
858.694	78.2
858.863	59.78
859.032	72.21
859.201	71.92
859.369	60.05
859.538	65.93
859.707	95.24
859.876	93.45
860.044	98.06
860.213	102.64
860.382	94.27
860.55	72.43
860.719	92.55
860.888	103.2
861.056	68.16
861.225	61.1
861.393	52.78
861.562	29.02
861.73	37.58
861.899	35.66
862.067	21.76
862.236	20
862.404	26.63
862.572	24.34
862.741	11.83
862.909	49.32
863.078	36.75
863.246	34.07
863.414	35.66
863.582	45.37
863.751	33.72
863.919	44.9
864.087	49.74
864.255	42.74
864.424	40.04
864.592	46.37
864.76	76.2
864.928	71.46
865.096	77.84
865.264	78.81
865.432	75.8
865.6	80.02
865.768	74.63
865.936	73.45
866.104	88.86
866.272	91.58
866.44	67.95
866.608	63.46
866.776	58.88
866.944	60.28
867.112	47.77
867.28	51.74
867.448	28.33
867.615	5.32
867.783	-2.36
867.951	-0.19
868.119	22.37
868.286	47.44
868.454	61.01
868.622	70.25
868.789	74.7
868.957	72.43
869.125	75.03
869.292	49.62
869.46	26.24
869.627	4.4
869.795	-5.14
869.963	-62.89
870.13	12.49
870.298	29.75
870.465	55.99
870.632	58.9
870.8	68.75
870.967	42.53
871.135	40.8
871.302	8.14
871.469	40.61
871.637	49.1
871.804	4.08
871.971	-20.23
872.139	-12.33
872.306	-29.01
872.473	16.4
872.64	41.81
872.807	34.25
872.975	60.44
873.142	38.69
873.309	-1.52
873.476	29.06
873.643	36.66
873.81	11.85
873.977	22.21
874.144	8.05
874.311	-7.58
874.478	32.68
874.645	45.5
874.812	28.76
874.979	51.94
875.146	48.59
875.313	18.02
875.48	35.76
875.647	52.81
875.813	51
875.98	56.3
876.147	49.65
876.314	49.02
876.481	68.58
876.647	63.84
876.814	61.67
876.981	76.8
877.147	94.05
877.314	98.75
877.481	173.7
877.647	220.77
877.814	134.92
877.98	109.19
878.147	11.11
878.314	-13.45
878.48	-15.24
878.647	-12.28
878.813	41.01
878.979	63.37
879.146	61.07
879.312	48.71
879.479	53.46
879.645	45.12
879.811	33.44
879.978	33.97
880.144	32.71
880.31	34.58
880.477	53.6
880.643	-4.6
880.809	-19.53
880.975	30.42
881.142	10.24
881.308	9.3
881.474	25.7
881.64	32.94
881.806	54.96
881.972	90.62
882.138	148.48
882.304	130.73
882.47	84.77
882.636	65.08
882.802	50.86
882.968	37.44
883.134	34.15
883.3	39.37
883.466	47.01
883.632	29.05
883.798	19.91
883.964	19.16
884.129	21.33
884.295	-32.14
884.461	-27.31
884.627	-63.03
884.793	-81.24
884.958	-35.89
885.124	20.36
885.29	-30.75
885.455	1.9
885.621	0.1
885.787	-19.42
885.952	11.33
886.118	42.47
886.283	40.68
886.449	45.36
886.614	59.38
886.78	54.68
886.945	73.67
887.111	69.12
887.276	55.97
887.442	51.35
887.607	25.54
887.773	20.19
887.938	28.03
888.103	45.44
888.269	44.29
888.434	65.09
888.599	61.52
888.764	98.09
888.93	121.37
889.095	158.81
889.26	110.72
889.425	70.17
889.59	11.32
889.756	-18.65
889.921	-5.68
890.086	15.41
890.251	29.51
890.416	57.8
890.581	111.72
890.746	-4.35
890.911	-42.15
891.076	187.42
891.241	451.52
891.406	194.88
891.571	86.93
891.736	21.32
891.901	20.87
892.065	-8.19
892.23	98.6
892.395	13.96
892.56	146.75
892.725	96.3
892.889	118.76
893.054	87.57
893.219	101.62
893.384	94.14
893.548	84.7
893.713	76.63
893.878	69.38
