Data from Ofra_PS_Phys_2GT38_Reflection_1.txt Node
Date: Tue Jul 20 17:49:59 EDT 2021
User: USUARIO
Spectrometer: FLMT01687
Trigger mode: 0
Integration Time (sec): 1.042999E0
Scans to average: 2
Electric dark correction enabled: true
Nonlinearity correction enabled: false
Boxcar width: 2
XAxis mode: Wavelengths
Number of Pixels in Spectrum: 3648
>>>>>Begin Spectral Data<<<<<
179.494	40.32
179.716	19.08
179.937	73.76
180.158	-15.22
180.38	-41.84
180.601	83.5
180.823	-40
181.044	431.96
181.265	625.58
181.486	67.47
181.708	70.14
181.929	108.62
182.15	20.33
182.372	550.7
182.593	100.83
182.814	88.45
183.035	69.3
183.257	78.92
183.478	63.13
183.699	51.03
183.92	48.46
184.141	42.14
184.363	32.98
184.584	24.41
184.805	34.54
185.026	38.05
185.247	64.33
185.468	52.72
185.689	44.2
185.91	41.08
186.132	43.82
186.353	8.27
186.574	49.63
186.795	79.78
187.016	64.88
187.237	47.69
187.458	52.87
187.679	-3.16
187.9	24.96
188.121	64.57
188.342	-101.9
188.563	-32.9
188.784	25.95
189.005	29.49
189.226	10.17
189.447	36.19
189.667	39.78
189.888	37.3
190.109	51.2
190.33	65.35
190.551	98.45
190.772	74.27
190.993	52.14
191.214	36.52
191.434	31.47
191.655	6.47
191.876	8.48
192.097	27.23
192.318	40.11
192.538	26.55
192.759	87.29
192.98	99.19
193.201	106.87
193.421	67.74
193.642	91.44
193.863	41.33
194.083	28.1
194.304	8.84
194.525	11.45
194.745	25.77
194.966	40.24
195.187	31.32
195.407	41.41
195.628	50.39
195.848	33.05
196.069	43.81
196.29	44.82
196.51	31.38
196.731	13.05
196.951	45.35
197.172	26.82
197.392	44.13
197.613	45.27
197.833	57.65
198.054	23.58
198.274	30.41
198.495	25.49
198.715	43.47
198.936	32.43
199.156	34.73
199.377	40.36
199.597	62.19
199.817	60.55
200.038	81.01
200.258	55.93
200.479	70.7
200.699	57.7
200.919	17.44
201.14	14.71
201.36	27.15
201.58	-36.09
201.801	-55.81
202.021	-30.91
202.241	-47.76
202.461	-134.86
202.682	16.21
202.902	35.38
203.122	6.86
203.342	44.53
203.563	25.3
203.783	-0.51
204.003	-0.92
204.223	-9.16
204.443	-79.66
204.663	-21.72
204.884	4.35
205.104	19.64
205.324	24.49
205.544	26.26
205.764	29.82
205.984	2.07
206.204	-2.6
206.424	-5.88
206.644	-22.93
206.864	-27.88
207.084	18.08
207.304	52.47
207.525	60.25
207.745	60.76
207.964	50.76
208.184	34.44
208.404	-2.99
208.624	-2.6
208.844	5.87
209.064	18.58
209.284	21.33
209.504	44.45
209.724	60.79
209.944	65.23
210.164	61.31
210.384	79.53
210.604	47.03
210.823	31.63
211.043	14.23
211.263	19.89
211.483	5.59
211.703	27.58
211.922	28.79
212.142	34.21
212.362	30.9
212.582	36.41
212.801	25.75
213.021	41.8
213.241	20.33
213.461	46.03
213.68	34.98
213.9	43.98
214.12	44.72
214.339	35.38
214.559	16.86
214.779	59.88
214.998	46.36
215.218	37.36
215.438	65.53
215.657	61.15
215.877	36.65
216.096	45.38
216.316	45.78
216.535	50.68
216.755	55.69
216.974	56.59
217.194	42.96
217.413	42.14
217.633	22.42
217.852	34.51
218.072	47.82
218.291	55.85
218.511	63.01
218.73	60.27
218.95	39.53
219.169	28.88
219.389	34.59
219.608	6.52
219.827	33.59
220.047	39.35
220.266	40.69
220.485	17.21
220.705	35.7
220.924	26.21
221.143	22.92
221.363	17.57
221.582	36.28
221.801	12.46
222.021	11.8
222.24	20.44
222.459	25.06
222.678	23.21
222.897	67.42
223.117	73.83
223.336	76.31
223.555	58.08
223.774	58.18
223.993	42.99
224.213	6.74
224.432	-8.94
224.651	-4.57
224.87	-8.67
225.089	-4.72
225.308	15.77
225.527	39.32
225.746	40.2
225.965	42.47
226.184	52.36
226.404	56.19
226.623	24.23
226.842	30.54
227.061	47.33
227.28	27.52
227.499	16.92
227.718	29.59
227.936	16.88
228.155	12.59
228.374	27.13
228.593	39.82
228.812	53.91
229.031	54.23
229.25	54.3
229.469	56.73
229.688	47.38
229.907	43.03
230.125	55.28
230.344	57.34
230.563	48.46
230.782	47.3
231.001	44.78
231.22	43.02
231.438	35.03
231.657	32.27
231.876	54.34
232.095	48.36
232.313	45.21
232.532	45.96
232.751	57.97
232.969	27.77
233.188	39.97
233.407	36.75
233.625	57.66
233.844	58.73
234.063	74.33
234.281	78.59
234.5	87.43
234.719	64.67
234.937	41.88
235.156	26.42
235.374	11.63
235.593	-2.16
235.811	-34.66
236.03	-32.05
236.249	-25.44
236.467	-7.9
236.686	1.69
236.904	19.55
237.123	40.01
237.341	49.92
237.559	47.54
237.778	42.55
237.996	37.86
238.215	38.42
238.433	28.59
238.652	23.76
238.87	22.65
239.088	19.07
239.307	17.03
239.525	1.44
239.743	4.8
239.962	-3.23
240.18	-3.08
240.398	-3.94
240.617	29.36
240.835	12.56
241.053	30.23
241.271	39.98
241.49	50.2
241.708	31.86
241.926	54.86
242.144	58.2
242.363	56.11
242.581	31.07
242.799	26.76
243.017	27
243.235	22.44
243.453	20.15
243.672	26.37
243.89	7.36
244.108	-1.24
244.326	-4.2
244.544	-13.55
244.762	-33.68
244.98	0.77
245.198	-5.43
245.416	9.59
245.634	29.02
245.852	58.46
246.07	75.99
246.288	90.93
246.506	89.96
246.724	95.75
246.942	80.42
247.16	57.87
247.378	60.48
247.596	53.09
247.814	42.98
248.032	10.44
248.25	23.38
248.468	8.73
248.685	38.41
248.903	48.27
249.121	59.54
249.339	53.1
249.557	62.38
249.775	63.88
249.992	70.88
250.21	53.14
250.428	53.16
250.646	24.86
250.863	11.84
251.081	-22.42
251.299	-27.87
251.517	-8.78
251.734	-37.15
251.952	-129.37
252.17	-68.5
252.387	-13.26
252.605	-23.94
252.823	14.39
253.04	43.32
253.258	43.85
253.475	49.92
253.693	75.85
253.911	87.59
254.128	90.33
254.346	75.74
254.563	72.19
254.781	39.5
254.998	25.52
255.216	34.93
255.433	24.94
255.651	32.25
255.868	53.84
256.086	50.24
256.303	34.14
256.521	29.83
256.738	18.99
256.956	0.46
257.173	-11.45
257.39	-17.02
257.608	-21.41
257.825	41.25
258.043	57.65
258.26	50.47
258.477	71.02
258.695	62.61
258.912	32.96
259.129	39.89
259.346	33.17
259.564	25.13
259.781	29.22
259.998	37.63
260.216	47.44
260.433	57.52
260.65	57.01
260.867	66.36
261.084	69.45
261.302	48.05
261.519	27.19
261.736	13.96
261.953	14.69
262.17	-1.14
262.387	1.72
262.604	19.9
262.822	-33.38
263.039	-52.4
263.256	-58.6
263.473	-58.48
263.69	-25.83
263.907	16.31
264.124	-7.09
264.341	20.6
264.558	28.8
264.775	26.63
264.992	-6.27
265.209	16.44
265.426	-9.63
265.643	-20.61
265.86	-19.23
266.077	-15.99
266.294	8.65
266.51	15.62
266.727	32.35
266.944	30.28
267.161	36.88
267.378	24.19
267.595	29.58
267.812	32.24
268.028	40.84
268.245	37.47
268.462	30.21
268.679	11.89
268.896	10.73
269.112	-1.16
269.329	18.11
269.546	0.11
269.763	18.51
269.979	36.92
270.196	47.35
270.413	50.16
270.629	38.72
270.846	40.85
271.063	30.5
271.279	22.82
271.496	-5.14
271.712	16.35
271.929	19.67
272.146	19.82
272.362	29.6
272.579	48.94
272.795	32.31
273.012	32.85
273.228	15.77
273.445	12.23
273.661	5.82
273.878	-8.5
274.094	-4.73
274.311	19.36
274.527	29.44
274.744	15.98
274.96	27.23
275.177	22.2
275.393	9.96
275.609	12.4
275.826	45.38
276.042	51.48
276.259	51.45
276.475	66.07
276.691	59.68
276.908	26.68
277.124	39.74
277.34	17.52
277.557	17.75
277.773	10.98
277.989	28.5
278.205	-4.7
278.422	28.9
278.638	20.12
278.854	29.56
279.07	24.67
279.286	27.23
279.503	16.43
279.719	23.69
279.935	8.6
280.151	22.36
280.367	36.46
280.583	28.81
280.799	28.39
281.016	30.41
281.232	24.77
281.448	2.59
281.664	17.05
281.88	7.4
282.096	14.28
282.312	28.33
282.528	38.04
282.744	31.44
282.96	33.71
283.176	23.31
283.392	15.07
283.608	14.81
283.824	24.58
284.04	31.12
284.256	39.88
284.471	31.19
284.687	45.25
284.903	41.97
285.119	22.76
285.335	-14.29
285.551	10.97
285.767	-18.36
285.982	-16.82
286.198	6.67
286.414	32.19
286.63	43.25
286.846	31.99
287.061	28.19
287.277	34.67
287.493	30.07
287.709	34.26
287.924	52.61
288.14	55.8
288.356	39.79
288.571	56.04
288.787	34.22
289.003	25.97
289.218	31.26
289.434	38.79
289.65	20.21
289.865	28.52
290.081	35.83
290.296	34.85
290.512	38.46
290.727	46.45
290.943	27.32
291.159	36.74
291.374	11.44
291.59	9.71
291.805	-4.55
292.021	17.79
292.236	15.36
292.451	41.7
292.667	42.18
292.882	26.02
293.098	24.67
293.313	17.92
293.529	30.42
293.744	17.76
293.959	30.65
294.175	23.82
294.39	33.92
294.605	27.59
294.821	13.24
295.036	33.83
295.251	43.02
295.467	38.57
295.682	21.32
295.897	27.14
296.112	14.64
296.328	8.38
296.543	1.69
296.758	20.31
296.973	25.46
297.188	27.54
297.404	25.65
297.619	33.55
297.834	-32.09
298.049	-25.11
298.264	-12.96
298.479	-10.47
298.694	-8.9
298.909	-15.74
299.125	-4.65
299.34	-31.09
299.555	3.99
299.77	-20.45
299.985	33.38
300.2	18.34
300.415	43.12
300.63	18.67
300.845	35.44
301.06	36.82
301.275	21.63
301.49	14.88
301.704	28.69
301.919	20.88
302.134	-7.21
302.349	15.91
302.564	14.11
302.779	7.87
302.994	15.9
303.209	36.02
303.423	35.41
303.638	25.06
303.853	23.7
304.068	25.07
304.283	9.46
304.497	18.05
304.712	25.16
304.927	21.69
305.142	14.89
305.356	14.08
305.571	6.99
305.786	3.83
306	7.47
306.215	23.04
306.43	30.82
306.644	39.18
306.859	52.57
307.074	53.22
307.288	41.72
307.503	36.1
307.717	28.43
307.932	10.94
308.147	17.85
308.361	16.4
308.576	13.21
308.79	19.21
309.005	18.81
309.219	3.58
309.434	6.83
309.648	9.09
309.863	2.57
310.077	33.79
310.292	52.82
310.506	45.52
310.72	50.53
310.935	57.78
311.149	37.28
311.364	30.29
311.578	49.41
311.792	49.1
312.007	56.74
312.221	50.36
312.435	54.77
312.649	41.56
312.864	34.56
313.078	12.17
313.292	36.57
313.507	29.46
313.721	28.43
313.935	43.76
314.149	51.4
314.363	34.34
314.578	43.2
314.792	30.67
315.006	6.13
315.22	9.8
315.434	-2.15
315.648	-32.15
315.862	-43.6
316.077	-52.75
316.291	-58.13
316.505	-36.23
316.719	-13.04
316.933	13.48
317.147	14.66
317.361	27.81
317.575	40.09
317.789	51.5
318.003	33.4
318.217	43.74
318.431	46.07
318.645	41.69
318.859	38.83
319.073	59.67
319.287	29.12
319.5	25.97
319.714	10.01
319.928	11.3
320.142	-4.39
320.356	24.23
320.57	13.55
320.784	26.01
320.997	29.32
321.211	27.62
321.425	26.81
321.639	44.22
321.853	64.08
322.066	48.16
322.28	47.55
322.494	50.89
322.707	46.39
322.921	30.4
323.135	30.75
323.349	31.4
323.562	15.79
323.776	16.6
323.989	22.65
324.203	18.78
324.417	0.73
324.63	10.97
324.844	5.31
325.057	11.36
325.271	23.7
325.485	35.59
325.698	12.23
325.912	38.2
326.125	36.16
326.339	22.04
326.552	32.14
326.766	39.34
326.979	30.82
327.193	35.09
327.406	29.83
327.619	41.13
327.833	43.28
328.046	22.34
328.26	2.97
328.473	22
328.686	13.19
328.9	20.86
329.113	39.53
329.326	36.5
329.54	37
329.753	19.92
329.966	-6.74
330.179	15.64
330.393	27.47
330.606	18.29
330.819	19.38
331.032	45.43
331.246	38.07
331.459	19.83
331.672	28.44
331.885	26.59
332.098	32.32
332.311	20.39
332.525	31.47
332.738	1.48
332.951	36.08
333.164	24.82
333.377	29.81
333.59	42.48
333.803	56.63
334.016	52.45
334.229	50.15
334.442	31.95
334.655	18.25
334.868	33.84
335.081	35.16
335.294	32.72
335.507	44.68
335.72	46.4
335.933	1.99
336.146	-6.17
336.359	18.44
336.572	21.78
336.785	22.54
336.997	47.6
337.21	66.78
337.423	42.76
337.636	34.04
337.849	42.74
338.062	30.6
338.274	22.41
338.487	37.76
338.7	31.54
338.913	16.82
339.125	30.32
339.338	26.69
339.551	10.13
339.763	16.62
339.976	19.94
340.189	22.95
340.402	22
340.614	13.13
340.827	23.59
341.039	26.61
341.252	24.32
341.465	12.11
341.677	32.98
341.89	7.16
342.102	22.11
342.315	16.44
342.527	12.55
342.74	29.81
342.952	33.98
343.165	33.82
343.377	39.95
343.59	43.5
343.802	41.94
344.015	53.06
344.227	34.35
344.44	27.64
344.652	35.49
344.864	25.11
345.077	28.94
345.289	47.04
345.502	37.86
345.714	25.08
345.926	19.92
346.139	11.86
346.351	7.98
346.563	36.16
346.775	54.28
346.988	45.72
347.2	27.26
347.412	19.03
347.624	22.01
347.837	13.94
348.049	20.12
348.261	20.39
348.473	26.77
348.685	30.69
348.897	30.38
349.11	31.11
349.322	34.3
349.534	37.44
349.746	33.95
349.958	30.27
350.17	39.44
350.382	45.57
350.594	39.73
350.806	39.75
351.018	52.81
351.23	28.9
351.442	24.37
351.654	26.55
351.866	13.74
352.078	-2.51
352.29	2.33
352.502	2.05
352.714	-1.01
352.926	-2.54
353.138	8.99
353.35	12.59
353.561	4.64
353.773	4.21
353.985	18.95
354.197	27.34
354.409	33.77
354.621	37.62
354.832	34.76
355.044	18.53
355.256	18.09
355.468	11.28
355.679	3.26
355.891	11.46
356.103	31.44
356.314	34.73
356.526	39.6
356.738	47.9
356.949	41.07
357.161	53.7
357.373	51.27
357.584	44.06
357.796	24.66
358.008	27.65
358.219	7.3
358.431	5.26
358.642	8.08
358.854	20.23
359.065	15.79
359.277	10.53
359.488	21.04
359.7	17.67
359.911	9.27
360.123	11.67
360.334	23.35
360.546	18.05
360.757	15.7
360.969	17.6
361.18	25.72
361.391	23.88
361.603	24.53
361.814	34.2
362.025	32.29
362.237	24.77
362.448	12.25
362.659	0.38
362.871	-2.01
363.082	6.1
363.293	17.69
363.504	23.23
363.716	35.59
363.927	19.73
364.138	19.42
364.349	0.07
364.56	-1.34
364.772	5.86
364.983	21.25
365.194	18.74
365.405	8.32
365.616	25.61
365.827	22.85
366.038	25.38
366.25	33.63
366.461	61.72
366.672	45.23
366.883	32.26
367.094	15.67
367.305	10.82
367.516	0.04
367.727	-0.73
367.938	2.23
368.149	15.79
368.36	18.63
368.571	25.86
368.781	38.19
368.992	34.41
369.203	33.13
369.414	25.37
369.625	36.38
369.836	24.99
370.047	29.12
370.258	24.58
370.468	26.47
370.679	17.8
370.89	11.58
371.101	14.98
371.312	19.02
371.522	19
371.733	19.66
371.944	24.86
372.155	27.49
372.365	24.15
372.576	30.59
372.787	30.2
372.997	34.27
373.208	32.76
373.419	37.29
373.629	20.74
373.84	27.48
374.05	21.8
374.261	23.7
374.472	16.36
374.682	35.35
374.893	28.59
375.103	26.89
375.314	16.81
375.524	13.27
375.735	13.25
375.945	14.45
376.156	15.56
376.366	13.18
376.577	24.4
376.787	19.87
376.997	12.01
377.208	16.36
377.418	27.07
377.629	33.78
377.839	24.67
378.049	28.11
378.26	34.68
378.47	29.27
378.68	22.46
378.89	25.83
379.101	33.35
379.311	33.91
379.521	30.91
379.732	45.25
379.942	52.78
380.152	50.2
380.362	39.25
380.572	49.2
380.783	37.91
380.993	38.32
381.203	34.76
381.413	28.59
381.623	26.23
381.833	20.95
382.043	5.29
382.253	0.73
382.463	9.27
382.674	3.46
382.884	-3.23
383.094	11.69
383.304	13.94
383.514	9.49
383.724	1.24
383.934	8.71
384.144	-0.07
384.353	4.53
384.563	4.53
384.773	12.72
384.983	17.31
385.193	31.11
385.403	32.56
385.613	38.39
385.823	39.02
386.033	24.67
386.242	17.51
386.452	10.89
386.662	11.22
386.872	8.47
387.082	15.89
387.291	10.59
387.501	13.64
387.711	8.22
387.921	10.66
388.13	11.22
388.34	13.16
388.55	13.19
388.759	11.89
388.969	11.05
389.179	7.07
389.388	7.35
389.598	3.3
389.807	5.24
390.017	4.19
390.227	6.27
390.436	4.54
390.646	2.93
390.855	5.53
391.065	6.88
391.274	9.14
391.484	9.44
391.693	12.54
391.903	12.36
392.112	10.42
392.322	6.31
392.531	4.52
392.74	3.11
392.95	1.54
393.159	3.41
393.369	5.1
393.578	6.49
393.787	5.99
393.997	6.08
394.206	4.86
394.415	5.7
394.625	6.17
394.834	6.63
395.043	6.73
395.252	7.73
395.462	8.48
395.671	7.61
395.88	7.71
396.089	7.48
396.298	6.72
396.508	4.75
396.717	5.76
396.926	5.34
397.135	4.85
397.344	4.66
397.553	5.02
397.762	4.33
397.971	4.42
398.181	4.53
398.39	4.96
398.599	4.72
398.808	4.9
399.017	5.33
399.226	5.43
399.435	5.29
399.644	5.05
399.853	5.1
400.062	4.7
400.27	4.76
400.479	4.82
400.688	5.22
400.897	5.32
401.106	5.43
401.315	5.41
401.524	5.21
401.733	5.56
401.941	5.4
402.15	5.46
402.359	5.28
402.568	5.17
402.777	5.16
402.985	4.99
403.194	4.62
403.403	4.75
403.612	4.59
403.82	4.05
404.029	4.3
404.238	4.5
404.446	4.32
404.655	4.67
404.864	4.86
405.072	4.55
405.281	4.56
405.489	4.63
405.698	4.46
405.906	4.4
406.115	4.47
406.324	4.34
406.532	4.23
406.741	4.16
406.949	4.1
407.158	4.05
407.366	4.07
407.574	3.91
407.783	3.91
407.991	3.92
408.2	3.97
408.408	3.97
408.617	4.19
408.825	4.15
409.033	4.18
409.242	4.24
409.45	4.25
409.658	4.25
409.867	4.32
410.075	4.23
410.283	4.07
410.491	3.96
410.7	3.82
410.908	3.76
411.116	3.8
411.324	3.85
411.533	3.87
411.741	3.97
411.949	4
412.157	4.08
412.365	4.16
412.573	4.2
412.781	4.23
412.99	4.15
413.198	4.14
413.406	4.09
413.614	4.15
413.822	4.07
414.03	4.11
414.238	3.92
414.446	3.83
414.654	3.74
414.862	3.7
415.07	3.56
415.278	3.67
415.486	3.69
415.694	3.65
415.902	3.64
416.109	3.66
416.317	3.74
416.525	3.58
416.733	3.55
416.941	3.61
417.149	3.61
417.357	3.58
417.564	3.77
417.772	3.84
417.98	3.84
418.188	3.9
418.395	3.79
418.603	3.72
418.811	3.8
419.019	3.64
419.226	3.63
419.434	3.65
419.642	3.71
419.849	3.55
420.057	3.61
420.265	3.64
420.472	3.57
420.68	3.51
420.887	3.59
421.095	3.64
421.302	3.6
421.51	3.58
421.717	3.53
421.925	3.49
422.132	3.45
422.34	3.49
422.547	3.39
422.755	3.46
422.962	3.3
423.17	3.22
423.377	3.23
423.585	3.31
423.792	3.25
423.999	3.37
424.207	3.48
424.414	3.34
424.621	3.3
424.829	3.32
425.036	3.3
425.243	3.19
425.451	3.32
425.658	3.23
425.865	3.33
426.072	3.19
426.28	3.22
426.487	3.06
426.694	3.25
426.901	3.16
427.108	3.45
427.315	3.46
427.523	3.55
427.73	3.57
427.937	3.44
428.144	3.25
428.351	3.21
428.558	3.2
428.765	2.92
428.972	3.01
429.179	2.97
429.386	3.05
429.593	2.92
429.8	3.03
430.007	3.08
430.214	3.29
430.421	3.2
430.628	3.38
430.835	3.6
431.042	3.5
431.249	3.47
431.456	3.53
431.662	3.45
431.869	3.17
432.076	3.33
432.283	3.18
432.49	3.22
432.697	3.19
432.903	3.28
433.11	3.22
433.317	3.27
433.524	3.33
433.73	3.31
433.937	3.41
434.144	3.33
434.35	3.3
434.557	3.07
434.764	3.24
434.97	3.09
435.177	3.24
435.384	3.14
435.59	3.42
435.797	3.41
436.003	3.49
436.21	3.48
436.416	3.6
436.623	3.43
436.829	3.44
437.036	3.44
437.242	3.39
437.449	3.31
437.655	3.36
437.862	3.3
438.068	3.23
438.275	3.25
438.481	3.33
438.687	3.35
438.894	3.42
439.1	3.72
439.307	3.74
439.513	3.76
439.719	3.77
439.926	3.69
440.132	3.61
440.338	3.64
440.544	3.63
440.751	3.61
440.957	3.62
441.163	3.59
441.369	3.64
441.575	3.66
441.782	3.72
441.988	3.73
442.194	3.69
442.4	3.55
442.606	3.51
442.812	3.42
443.018	3.48
443.224	3.46
443.431	3.6
443.637	3.73
443.843	3.84
444.049	3.82
444.255	3.8
444.461	3.79
444.667	3.67
444.873	3.63
445.079	3.63
445.284	3.63
445.49	3.55
445.696	3.55
445.902	3.59
446.108	3.56
446.314	3.57
446.52	3.66
446.726	3.83
446.931	3.84
447.137	3.84
447.343	3.8
447.549	3.79
447.755	3.68
447.96	3.65
448.166	3.74
448.372	3.92
448.578	3.97
448.783	4.06
448.989	4.07
449.195	4.08
449.4	3.95
449.606	3.86
449.812	3.77
450.017	3.84
450.223	3.8
450.428	3.82
450.634	3.87
450.84	3.93
451.045	3.96
451.251	3.96
451.456	4.02
451.662	4.12
451.867	4.14
452.073	4.07
452.278	4.01
452.483	4.08
452.689	3.9
452.894	3.8
453.1	3.81
453.305	3.94
453.51	3.76
453.716	3.81
453.921	3.77
454.127	3.74
454.332	3.65
454.537	3.71
454.742	3.73
454.948	3.84
455.153	3.91
455.358	3.92
455.563	4
455.769	3.98
455.974	3.97
456.179	3.85
456.384	3.8
456.589	3.75
456.795	3.73
457	3.69
457.205	3.6
457.41	3.67
457.615	3.77
457.82	3.85
458.025	3.86
458.23	3.93
458.435	3.96
458.64	3.87
458.845	3.84
459.05	3.78
459.255	3.85
459.46	3.83
459.665	3.77
459.87	3.73
460.075	3.79
460.28	3.78
460.485	3.8
460.69	3.81
460.895	3.87
461.099	3.87
461.304	3.86
461.509	3.85
461.714	3.93
461.919	3.96
462.123	3.97
462.328	3.98
462.533	4.07
462.738	4.07
462.942	3.99
463.147	4.08
463.352	4.08
463.556	4.07
463.761	4.03
463.966	4.07
464.17	4.14
464.375	4.27
464.58	4.22
464.784	4.27
464.989	4.31
465.193	4.26
465.398	4.25
465.602	4.29
465.807	4.17
466.011	4.12
466.216	4.09
466.42	4.15
466.625	4.19
466.829	4.29
467.034	4.35
467.238	4.42
467.443	4.36
467.647	4.24
467.851	4.16
468.056	4.13
468.26	4.16
468.464	4.2
468.669	4.32
468.873	4.45
469.077	4.4
469.282	4.33
469.486	4.33
469.69	4.33
469.894	4.27
470.099	4.29
470.303	4.32
470.507	4.3
470.711	4.27
470.915	4.32
471.119	4.44
471.324	4.48
471.528	4.5
471.732	4.47
471.936	4.42
472.14	4.45
472.344	4.42
472.548	4.39
472.752	4.42
472.956	4.54
473.16	4.53
473.364	4.58
473.568	4.6
473.772	4.64
473.976	4.62
474.18	4.57
474.384	4.65
474.588	4.66
474.792	4.61
474.995	4.59
475.199	4.78
475.403	4.67
475.607	4.67
475.811	4.76
476.015	4.76
476.218	4.59
476.422	4.6
476.626	4.59
476.83	4.62
477.033	4.69
477.237	4.72
477.441	4.74
477.644	4.82
477.848	4.87
478.052	4.83
478.255	4.92
478.459	4.99
478.663	4.99
478.866	5
479.07	5
479.273	4.98
479.477	4.97
479.681	4.99
479.884	4.92
480.088	4.93
480.291	4.96
480.495	4.95
480.698	4.91
480.901	5.02
481.105	5.11
481.308	5.06
481.512	5.1
481.715	5.1
481.919	5.05
482.122	4.95
482.325	5.07
482.529	5.13
482.732	5.21
482.935	5.24
483.138	5.29
483.342	5.25
483.545	5.16
483.748	5.13
483.952	5.07
484.155	5.09
484.358	5.11
484.561	5.09
484.764	5.08
484.967	5.12
485.171	5.13
485.374	5.11
485.577	5.19
485.78	5.24
485.983	5.24
486.186	5.27
486.389	5.27
486.592	5.22
486.795	5.25
486.998	5.24
487.201	5.23
487.404	5.21
487.607	5.27
487.81	5.24
488.013	5.27
488.216	5.31
488.419	5.36
488.622	5.31
488.825	5.34
489.028	5.37
489.231	5.26
489.433	5.23
489.636	5.27
489.839	5.21
490.042	5.19
490.245	5.27
490.447	5.3
490.65	5.25
490.853	5.24
491.056	5.24
491.258	5.27
491.461	5.26
491.664	5.36
491.866	5.42
492.069	5.45
492.272	5.44
492.474	5.38
492.677	5.36
492.879	5.31
493.082	5.32
493.285	5.31
493.487	5.39
493.69	5.33
493.892	5.33
494.095	5.33
494.297	5.34
494.5	5.38
494.702	5.45
494.905	5.54
495.107	5.51
495.309	5.56
495.512	5.53
495.714	5.56
495.917	5.57
496.119	5.61
496.321	5.65
496.524	5.69
496.726	5.6
496.928	5.57
497.13	5.55
497.333	5.54
497.535	5.55
497.737	5.66
497.939	5.7
498.142	5.71
498.344	5.7
498.546	5.72
498.748	5.72
498.95	5.82
499.152	5.87
499.355	5.89
499.557	5.9
499.759	5.98
499.961	5.92
500.163	5.94
500.365	6.01
500.567	6.09
500.769	6.01
500.971	6.07
501.173	6.1
501.375	6.02
501.577	6
501.779	6.05
501.981	6.07
502.183	6.08
502.385	6.18
502.587	6.19
502.788	6.23
502.99	6.2
503.192	6.21
503.394	6.17
503.596	6.25
503.798	6.25
503.999	6.31
504.201	6.32
504.403	6.39
504.605	6.37
504.806	6.47
505.008	6.47
505.21	6.51
505.411	6.48
505.613	6.49
505.815	6.46
506.016	6.54
506.218	6.56
506.42	6.66
506.621	6.68
506.823	6.67
507.024	6.67
507.226	6.68
507.427	6.71
507.629	6.73
507.83	6.73
508.032	6.74
508.233	6.79
508.435	6.81
508.636	6.87
508.838	6.91
509.039	6.96
509.24	6.97
509.442	6.92
509.643	6.89
509.845	6.94
510.046	6.98
510.247	7.01
510.448	7.1
510.65	7.17
510.851	7.16
511.052	7.19
511.254	7.2
511.455	7.14
511.656	7.16
511.857	7.22
512.058	7.26
512.26	7.3
512.461	7.37
512.662	7.37
512.863	7.35
513.064	7.33
513.265	7.33
513.466	7.31
513.667	7.41
513.868	7.45
514.069	7.54
514.27	7.63
514.471	7.66
514.672	7.58
514.873	7.62
515.074	7.63
515.275	7.57
515.476	7.57
515.677	7.64
515.878	7.64
516.079	7.66
516.28	7.72
516.481	7.75
516.682	7.8
516.882	7.86
517.083	7.81
517.284	7.84
517.485	7.88
517.686	7.84
517.886	7.88
518.087	7.86
518.288	7.85
518.488	7.85
518.689	7.89
518.89	7.94
519.091	8.02
519.291	8.06
519.492	8.15
519.692	8.19
519.893	8.19
520.094	8.18
520.294	8.23
520.495	8.16
520.695	8.16
520.896	8.15
521.096	8.2
521.297	8.22
521.497	8.27
521.698	8.28
521.898	8.28
522.099	8.28
522.299	8.25
522.499	8.3
522.7	8.37
522.9	8.44
523.101	8.42
523.301	8.47
523.501	8.47
523.702	8.41
523.902	8.38
524.102	8.52
524.302	8.58
524.503	8.59
524.703	8.62
524.903	8.64
525.103	8.6
525.304	8.6
525.504	8.66
525.704	8.67
525.904	8.71
526.104	8.7
526.304	8.75
526.504	8.75
526.705	8.81
526.905	8.81
527.105	8.89
527.305	8.86
527.505	8.84
527.705	8.84
527.905	8.86
528.105	8.85
528.305	8.85
528.505	8.9
528.705	8.97
528.905	9.02
529.105	9.05
529.304	9.16
529.504	9.19
529.704	9.24
529.904	9.23
530.104	9.26
530.304	9.24
530.503	9.27
530.703	9.25
530.903	9.32
531.103	9.37
531.303	9.36
531.502	9.36
531.702	9.38
531.902	9.33
532.101	9.38
532.301	9.47
532.501	9.55
532.7	9.58
532.9	9.64
533.1	9.65
533.299	9.68
533.499	9.65
533.698	9.69
533.898	9.74
534.097	9.72
534.297	9.74
534.496	9.74
534.696	9.81
534.895	9.83
535.095	9.9
535.294	9.95
535.494	10.03
535.693	10.02
535.892	10.1
536.092	10.13
536.291	10.13
536.491	10.13
536.69	10.17
536.889	10.17
537.088	10.13
537.288	10.18
537.487	10.27
537.686	10.3
537.886	10.33
538.085	10.46
538.284	10.51
538.483	10.58
538.682	10.6
538.882	10.67
539.081	10.73
539.28	10.79
539.479	10.87
539.678	10.95
539.877	10.94
540.076	10.98
540.275	11
540.474	10.96
540.673	11.03
540.872	11.11
541.071	11.1
541.27	11.14
541.469	11.24
541.668	11.29
541.867	11.33
542.066	11.42
542.265	11.52
542.464	11.56
542.663	11.63
542.862	11.68
543.06	11.72
543.259	11.79
543.458	11.84
543.657	11.88
543.856	11.94
544.054	12.02
544.253	12.05
544.452	12.13
544.651	12.15
544.849	12.21
545.048	12.27
545.247	12.31
545.445	12.37
545.644	12.48
545.843	12.56
546.041	12.59
546.24	12.67
546.438	12.74
546.637	12.87
546.836	12.91
547.034	13.02
547.233	13.12
547.431	13.13
547.63	13.14
547.828	13.2
548.027	13.27
548.225	13.3
548.423	13.44
548.622	13.56
548.82	13.66
549.019	13.79
549.217	13.93
549.415	14.08
549.614	14.15
549.812	14.28
550.01	14.34
550.209	14.36
550.407	14.49
550.605	14.58
550.803	14.64
551.002	14.75
551.2	14.88
551.398	14.91
551.596	14.96
551.794	15.05
551.993	15.07
552.191	15.19
552.389	15.27
552.587	15.39
552.785	15.49
552.983	15.7
553.181	15.78
553.379	15.9
553.577	16.01
553.775	16.16
553.973	16.23
554.171	16.38
554.369	16.53
554.567	16.68
554.765	16.78
554.963	16.94
555.161	17.09
555.359	17.21
555.557	17.33
555.755	17.48
555.952	17.58
556.15	17.69
556.348	17.77
556.546	17.94
556.744	17.98
556.941	18.12
557.139	18.28
557.337	18.46
557.535	18.55
557.732	18.68
557.93	18.8
558.128	18.86
558.325	18.96
558.523	19.13
558.721	19.26
558.918	19.38
559.116	19.61
559.313	19.72
559.511	19.86
559.708	20.03
559.906	20.19
560.104	20.32
560.301	20.45
560.498	20.63
560.696	20.73
560.893	20.86
561.091	20.95
561.288	21.17
561.486	21.18
561.683	21.4
561.88	21.64
562.078	21.74
562.275	21.79
562.473	21.98
562.67	22.11
562.867	22.07
563.064	22.31
563.262	22.44
563.459	22.58
563.656	22.66
563.853	22.96
564.051	23.08
564.248	23.2
564.445	23.31
564.642	23.49
564.839	23.57
565.036	23.68
565.234	23.84
565.431	23.98
565.628	24.1
565.825	24.2
566.022	24.26
566.219	24.36
566.416	24.46
566.613	24.63
566.81	24.79
567.007	24.97
567.204	25.09
567.401	25.21
567.598	25.37
567.795	25.44
567.991	25.47
568.188	25.63
568.385	25.71
568.582	25.82
568.779	25.89
568.976	26.05
569.172	26.16
569.369	26.36
569.566	26.31
569.763	26.43
569.96	26.48
570.156	26.58
570.353	26.54
570.55	26.65
570.746	26.73
570.943	26.79
571.14	26.8
571.336	26.95
571.533	27.01
571.729	27.1
571.926	27.18
572.123	27.11
572.319	27.18
572.516	27.32
572.712	27.35
572.909	27.42
573.105	27.51
573.302	27.49
573.498	27.36
573.695	27.35
573.891	27.39
574.087	27.36
574.284	27.46
574.48	27.59
574.677	27.62
574.873	27.6
575.069	27.71
575.266	27.7
575.462	27.72
575.658	27.83
575.854	27.9
576.051	27.9
576.247	28.01
576.443	27.97
576.639	28.01
576.835	28.03
577.032	28.12
577.228	28.12
577.424	28.14
577.62	28.14
577.816	28.17
578.012	28.09
578.208	28.01
578.404	28.05
578.6	28.01
578.796	27.99
578.993	28.14
579.189	28.14
579.384	28.18
579.58	28.24
579.776	28.21
579.972	28.15
580.168	28.16
580.364	28.04
580.56	27.89
580.756	27.86
580.952	27.87
581.148	27.83
581.343	27.95
581.539	27.99
581.735	28.03
581.931	28.03
582.127	27.99
582.322	27.94
582.518	28.05
582.714	28.04
582.909	28.02
583.105	27.97
583.301	27.91
583.496	27.79
583.692	27.72
583.888	27.59
584.083	27.63
584.279	27.67
584.474	27.59
584.67	27.58
584.866	27.59
585.061	27.54
585.257	27.46
585.452	27.51
585.648	27.42
585.843	27.4
586.039	27.42
586.234	27.44
586.429	27.32
586.625	27.4
586.82	27.41
587.015	27.34
587.211	27.28
587.406	27.32
587.601	27.34
587.797	27.38
587.992	27.37
588.187	27.41
588.383	27.51
588.578	27.52
588.773	27.46
588.968	27.53
589.163	27.53
589.359	27.47
589.554	27.47
589.749	27.55
589.944	27.6
590.139	27.69
590.334	27.77
590.529	27.8
590.724	27.83
590.919	27.86
591.114	27.86
591.309	27.79
591.504	27.82
591.699	27.78
591.894	27.76
592.089	27.79
592.284	27.93
592.479	27.98
592.674	28.08
592.869	28.15
593.064	28.21
593.259	28.3
593.454	28.4
593.648	28.44
593.843	28.6
594.038	28.75
594.233	28.84
594.428	28.88
594.622	29.14
594.817	29.19
595.012	29.22
595.206	29.22
595.401	29.27
595.596	29.21
595.79	29.2
595.985	29.25
596.18	29.3
596.374	29.49
596.569	29.55
596.763	29.69
596.958	29.79
597.153	29.9
597.347	29.97
597.542	30.11
597.736	30.19
597.931	30.33
598.125	30.45
598.319	30.46
598.514	30.56
598.708	30.69
598.903	30.68
599.097	30.73
599.291	30.78
599.486	30.8
599.68	30.83
599.874	30.91
600.069	31.01
600.263	31.18
600.457	31.27
600.651	31.39
600.846	31.43
601.04	31.45
601.234	31.44
601.428	31.51
601.622	31.43
601.817	31.55
602.011	31.62
602.205	31.59
602.399	31.61
602.593	31.75
602.787	31.63
602.981	31.58
603.175	31.71
603.369	31.75
603.563	31.71
603.757	31.81
603.951	31.77
604.145	31.53
604.339	31.48
604.533	31.42
604.727	31.36
604.921	31.39
605.115	31.4
605.309	31.33
605.502	31.3
605.696	31.36
605.89	31.28
606.084	31.29
606.278	31.26
606.471	31.17
606.665	31.08
606.859	31.08
607.053	31.05
607.246	30.97
607.44	30.96
607.634	30.8
607.827	30.59
608.021	30.6
608.214	30.53
608.408	30.42
608.602	30.46
608.795	30.55
608.989	30.48
609.182	30.38
609.376	30.22
609.569	30.1
609.763	30
609.956	29.82
610.15	29.72
610.343	29.66
610.537	29.57
610.73	29.43
610.923	29.33
611.117	29.32
611.31	29.23
611.504	29.12
611.697	29.04
611.89	28.95
612.083	28.78
612.277	28.63
612.47	28.52
612.663	28.41
612.856	28.21
613.05	28.06
613.243	28.03
613.436	27.91
613.629	27.79
613.822	27.78
614.015	27.76
614.209	27.7
614.402	27.55
614.595	27.51
614.788	27.48
614.981	27.38
615.174	27.2
615.367	27.09
615.56	26.97
615.753	26.85
615.946	26.77
616.139	26.85
616.332	26.82
616.525	26.8
616.718	26.69
616.911	26.67
617.103	26.59
617.296	26.56
617.489	26.51
617.682	26.43
617.875	26.28
618.067	26.16
618.26	26.09
618.453	26.06
618.646	26.07
618.838	25.97
619.031	25.91
619.224	25.81
619.417	25.7
619.609	25.63
619.802	25.64
619.994	25.59
620.187	25.56
620.38	25.53
620.572	25.47
620.765	25.5
620.957	25.43
621.15	25.4
621.342	25.28
621.535	25.21
621.727	25.09
621.92	25.07
622.112	25.04
622.305	25.03
622.497	24.96
622.69	24.94
622.882	24.86
623.074	24.85
623.267	24.89
623.459	24.87
623.651	24.8
623.844	24.84
624.036	24.81
624.228	24.68
624.42	24.7
624.613	24.74
624.805	24.64
624.997	24.62
625.189	24.62
625.381	24.62
625.574	24.57
625.766	24.51
625.958	24.41
626.15	24.39
626.342	24.4
626.534	24.41
626.726	24.43
626.918	24.45
627.11	24.4
627.302	24.32
627.494	24.22
627.686	24.26
627.878	24.13
628.07	24
628.262	23.94
628.454	23.93
628.646	23.8
628.838	23.81
629.029	23.85
629.221	23.69
629.413	23.67
629.605	23.67
629.797	23.69
629.989	23.62
630.18	23.57
630.372	23.41
630.564	23.35
630.755	23.22
630.947	23.15
631.139	23.07
631.33	23.1
631.522	23.04
631.714	22.98
631.905	22.99
632.097	23.04
632.289	22.99
632.48	22.98
632.672	23.01
632.863	23
633.055	22.94
633.246	22.95
633.438	22.8
633.629	22.69
633.821	22.59
634.012	22.55
634.203	22.45
634.395	22.56
634.586	22.62
634.777	22.63
634.969	22.6
635.16	22.58
635.351	22.5
635.543	22.37
635.734	22.27
635.925	22.34
636.117	22.41
636.308	22.46
636.499	22.49
636.69	22.54
636.881	22.49
637.073	22.47
637.264	22.4
637.455	22.45
637.646	22.42
637.837	22.43
638.028	22.34
638.219	22.28
638.41	22.12
638.601	22.09
638.792	22.03
638.983	22.08
639.174	22.06
639.365	22.17
639.556	22.12
639.747	22.1
639.938	22.12
640.129	22.1
640.32	22.02
640.511	22
640.701	21.93
640.892	21.79
641.083	21.76
641.274	21.68
641.465	21.69
641.655	21.7
641.846	21.71
642.037	21.68
642.228	21.67
642.418	21.69
642.609	21.61
642.8	21.55
642.99	21.52
643.181	21.44
643.372	21.32
643.562	21.4
643.753	21.33
643.943	21.33
644.134	21.38
644.324	21.39
644.515	21.28
644.705	21.26
644.896	21.16
645.086	21.12
645.277	21.06
645.467	21.03
645.658	21.02
645.848	20.96
646.038	20.87
646.229	20.83
646.419	20.78
646.61	20.73
646.8	20.72
646.99	20.76
647.18	20.74
647.371	20.72
647.561	20.73
647.751	20.75
647.941	20.7
648.132	20.57
648.322	20.49
648.512	20.41
648.702	20.36
648.892	20.33
649.082	20.38
649.272	20.43
649.462	20.36
649.653	20.33
649.843	20.31
650.033	20.28
650.223	20.19
650.413	20.17
650.603	20.02
650.793	19.98
650.983	19.83
651.172	19.74
651.362	19.67
651.552	19.64
651.742	19.58
651.932	19.55
652.122	19.63
652.312	19.54
652.502	19.46
652.691	19.35
652.881	19.27
653.071	19.06
653.261	18.96
653.45	18.89
653.64	18.73
653.83	18.66
654.019	18.58
654.209	18.41
654.399	18.26
654.588	18.23
654.778	17.99
654.968	17.84
655.157	17.74
655.347	17.68
655.536	17.41
655.726	17.28
655.915	17
656.105	16.82
656.294	16.57
656.484	16.33
656.673	16.16
656.863	16.11
657.052	15.94
657.241	15.75
657.431	15.63
657.62	15.45
657.809	15.21
657.999	15.08
658.188	14.81
658.377	14.64
658.567	14.5
658.756	14.21
658.945	13.95
659.134	13.82
659.324	13.51
659.513	13.17
659.702	13.1
659.891	12.81
660.08	12.53
660.269	12.42
660.458	12.32
660.648	12.12
660.837	11.99
661.026	11.82
661.215	11.63
661.404	11.39
661.593	11.19
661.782	11.03
661.971	10.85
662.16	10.65
662.349	10.47
662.538	10.27
662.726	10.12
662.915	9.93
663.104	9.84
663.293	9.81
663.482	9.65
663.671	9.5
663.86	9.46
664.048	9.32
664.237	9.15
664.426	9.07
664.615	8.95
664.803	8.84
664.992	8.69
665.181	8.56
665.369	8.41
665.558	8.35
665.747	8.12
665.935	8.06
666.124	7.96
666.312	7.89
666.501	7.88
666.69	8
666.878	7.97
667.067	7.87
667.255	7.96
667.444	7.85
667.632	7.74
667.82	7.64
668.009	7.67
668.197	7.53
668.386	7.49
668.574	7.43
668.762	7.42
668.951	7.4
669.139	7.37
669.327	7.38
669.516	7.55
669.704	7.53
669.892	7.56
670.08	7.52
670.269	7.43
670.457	7.33
670.645	7.37
670.833	7.35
671.021	7.46
671.21	7.52
671.398	7.49
671.586	7.45
671.774	7.46
671.962	7.41
672.15	7.48
672.338	7.53
672.526	7.5
672.714	7.6
672.902	7.68
673.09	7.66
673.278	7.72
673.466	7.91
673.654	7.96
673.842	8.01
674.03	8.11
674.218	8.11
674.405	8.07
674.593	8.12
674.781	8.15
674.969	8.23
675.157	8.37
675.344	8.49
675.532	8.55
675.72	8.69
675.908	8.86
676.095	8.89
676.283	8.91
676.471	8.92
676.658	8.99
676.846	9.09
677.033	9.26
677.221	9.38
677.409	9.42
677.596	9.49
677.784	9.46
677.971	9.42
678.159	9.62
678.346	9.91
678.534	9.98
678.721	10.17
678.909	10.26
679.096	10.25
679.283	10.24
679.471	10.24
679.658	10.21
679.846	10.37
680.033	10.52
680.22	10.74
680.408	11
680.595	11.2
680.782	11.37
680.969	11.57
681.157	11.71
681.344	11.8
681.531	12
681.718	12.08
681.905	12.26
682.093	12.42
682.28	12.55
682.467	12.68
682.654	12.93
682.841	13.13
683.028	13.26
683.215	13.49
683.402	13.81
683.589	14.06
683.776	14.21
683.963	14.52
684.15	14.93
684.337	15.1
684.524	15.39
684.711	15.69
684.898	16.1
685.085	16.47
685.271	16.93
685.458	17.16
685.645	17.37
685.832	17.59
686.019	17.9
686.205	18.18
686.392	18.59
686.579	19.16
686.766	19.62
686.952	19.99
687.139	20.33
687.326	20.94
687.512	21.59
687.699	22.16
687.886	22.72
688.072	23.21
688.259	23.74
688.445	24.19
688.632	24.66
688.818	25.34
689.005	26.2
689.191	26.74
689.378	27.33
689.564	28.06
689.751	28.68
689.937	29.31
690.124	29.76
690.31	30.57
690.496	31.13
690.683	31.95
690.869	32.77
691.055	33.84
691.242	34.38
691.428	35.17
691.614	35.63
691.8	36.07
691.987	36.6
692.173	37.29
692.359	37.94
692.545	38.85
692.731	39.63
692.918	40.55
693.104	41.37
693.29	42.15
693.476	43.06
693.662	43.92
693.848	44.77
694.034	45.49
694.22	46.16
694.406	46.63
694.592	47.4
694.778	47.79
694.964	48.63
695.15	49.55
695.336	50.49
695.522	51.33
695.708	52.34
695.894	53.09
696.08	53.91
696.265	54.33
696.451	54.98
696.637	55.62
696.823	56.31
697.009	57.06
697.194	57.62
697.38	58.3
697.566	58.97
697.751	59.55
697.937	59.93
698.123	60.94
698.308	61.6
698.494	62.33
698.68	62.81
698.865	63.34
699.051	63.8
699.236	64.16
699.422	64.59
699.607	65.32
699.793	66.17
699.978	66.64
700.164	67.29
700.349	67.85
700.535	68.45
700.72	68.94
700.906	69.42
701.091	70.12
701.276	70.79
701.462	71.25
701.647	71.4
701.832	72.01
702.018	72.33
702.203	72.74
702.388	72.96
702.573	73.44
702.759	73.77
702.944	74.23
703.129	74.23
703.314	74.7
703.499	74.96
703.684	75.38
703.87	75.43
704.055	75.77
704.24	76.19
704.425	76.6
704.61	76.94
704.795	77.24
704.98	77.59
705.165	77.88
705.35	78.24
705.535	78.59
705.72	78.87
705.905	79.46
706.09	79.75
706.275	80.23
706.459	80.14
706.644	80.56
706.829	80.81
707.014	81.28
707.199	81.68
707.384	82.39
707.568	82.71
707.753	82.98
707.938	82.99
708.123	82.86
708.307	82.9
708.492	83.31
708.677	83.37
708.861	83.58
709.046	83.9
709.231	84.21
709.415	84.09
709.6	84.06
709.784	84.26
709.969	84.7
710.153	84.77
710.338	84.81
710.522	85.12
710.707	84.94
710.891	84.69
711.076	84.65
711.26	84.95
711.445	84.81
711.629	85.45
711.813	85.65
711.998	86.11
712.182	85.81
712.366	86.48
712.551	86.3
712.735	86.3
712.919	86.24
713.103	86.8
713.288	86.55
713.472	86.89
713.656	87.58
713.84	87.66
714.024	87.84
714.208	88.36
714.393	88.09
714.577	87.86
714.761	87.94
714.945	87.79
715.129	87.7
715.313	88.17
715.497	88.21
715.681	88.31
715.865	88.8
716.049	88.81
716.233	88.64
716.417	88.5
716.601	88.77
716.785	88.73
716.968	88.82
717.152	89.21
717.336	89.44
717.52	89.58
717.704	89.68
717.888	89.8
718.071	89.59
718.255	89.77
718.439	89.68
718.622	89.49
718.806	89.5
718.99	90.03
719.174	90.07
719.357	90.42
719.541	91.02
719.724	91.63
719.908	91.57
720.092	91.95
720.275	91.62
720.459	91.59
720.642	91.32
720.826	91.39
721.009	91.04
721.193	91.58
721.376	91.33
721.559	91.17
721.743	90.79
721.926	91.39
722.11	91.03
722.293	91.43
722.476	91.79
722.66	91.5
722.843	91.26
723.026	91.3
723.21	90.89
723.393	91.3
723.576	92.15
723.759	92.34
723.942	92.76
724.126	93.03
724.309	92.62
724.492	92.54
724.675	92.76
724.858	92.24
725.041	92.76
725.224	93.46
725.407	93.54
725.59	93.41
725.774	93.8
725.957	93.83
726.14	93.58
726.322	92.87
726.505	92.6
726.688	92.92
726.871	92.48
727.054	92.22
727.237	93.27
727.42	94.15
727.603	93.92
727.786	94.2
727.968	94.59
728.151	94.18
728.334	93.53
728.517	94.03
728.699	94.17
728.882	94.13
729.065	94.28
729.248	94.81
729.43	94.21
729.613	94.32
729.796	94.25
729.978	94.36
730.161	93.81
730.343	94.1
730.526	94.3
730.708	94.49
730.891	94.46
731.073	94.99
731.256	95.59
731.438	94.92
731.621	94.89
731.803	94.58
731.986	94.56
732.168	93.72
732.35	94.02
732.533	94.08
732.715	94.61
732.898	94.78
733.08	95.01
733.262	95.31
733.444	95.38
733.627	95.86
733.809	95.62
733.991	96.58
734.173	96.37
734.355	96.57
734.538	96.14
734.72	96.4
734.902	96.27
735.084	96.54
735.266	96.42
735.448	96.68
735.63	96.94
735.812	96.69
735.994	96.85
736.176	97.43
736.358	97.53
736.54	97.58
736.722	98.16
736.904	98.42
737.086	98.09
737.268	97.94
737.45	97.88
737.632	97.32
737.814	96.83
737.995	97.12
738.177	97.41
738.359	98.25
738.541	98.59
738.723	99.27
738.904	99.45
739.086	99.82
739.268	98.98
739.449	99.39
739.631	99.3
739.813	98.4
739.994	98.16
740.176	97.89
740.358	97.78
740.539	97.36
740.721	97.68
740.902	97.69
741.084	98.18
741.265	97.96
741.447	98.3
741.628	98.32
741.81	98.53
741.991	97.82
742.172	98.03
742.354	97.51
742.535	97.83
742.717	97.33
742.898	97.76
743.079	97.32
743.261	98.45
743.442	97.32
743.623	96.78
743.804	96.07
743.986	96.42
744.167	95.61
744.348	96.04
744.529	96.23
744.71	96.68
744.891	96.67
745.073	97.14
745.254	97.3
745.435	97.1
745.616	96.81
745.797	95.76
745.978	94.96
746.159	96.03
746.34	95.25
746.521	96.65
746.702	96.98
746.883	97.38
747.064	97.05
747.245	98.02
747.426	96.69
747.606	95.47
747.787	95.64
747.968	95.51
748.149	95.48
748.33	96.07
748.51	96.84
748.691	96.33
748.872	95.14
749.053	95.4
749.233	95.81
749.414	96.47
749.595	96.34
749.775	96.99
749.956	98.13
750.137	97.43
750.317	97.5
750.498	97.07
750.678	97.14
750.859	96.67
751.04	97.22
751.22	98.48
751.4	98.63
751.581	99.09
751.761	98.88
751.942	97.72
752.122	97.24
752.303	96.59
752.483	97.21
752.663	96.78
752.844	97.51
753.024	97.38
753.204	98.77
753.385	96.44
753.565	97.22
753.745	97.03
753.925	95.79
754.106	95.62
754.286	98.25
754.466	95.66
754.646	95.48
754.826	97.13
755.006	96.71
755.187	96.23
755.367	97.88
755.547	98.86
755.727	96.82
755.907	96.13
756.087	93.66
756.267	94.06
756.447	92.81
756.627	93.84
756.807	93.93
756.987	94.17
757.167	95.06
757.346	96.04
757.526	95.96
757.706	96.63
757.886	98.8
758.066	97.9
758.246	97.27
758.425	96.96
758.605	97.43
758.785	95.73
758.965	94.82
759.144	95.06
759.324	95.28
759.504	94.59
759.683	94.2
759.863	94.59
760.043	94.64
760.222	94.78
760.402	94.62
760.581	95.85
760.761	95.22
760.94	92.45
761.12	92.98
761.299	94.45
761.479	93.6
761.658	94.34
761.838	96.57
762.017	97.21
762.197	95.44
762.376	95.48
762.555	94.89
762.735	94.37
762.914	92.43
763.093	92.32
763.273	91.8
763.452	91.74
763.631	92.62
763.81	92.3
763.99	92.27
764.169	93.48
764.348	94.4
764.527	93.83
764.706	94.57
764.885	94.36
765.064	92.65
765.243	91.96
765.423	90.27
765.602	88.82
765.781	88.44
765.96	89.42
766.139	90.1
766.318	92.03
766.497	91.77
766.676	91.86
766.854	90.39
767.033	90.03
767.212	89.72
767.391	90.16
767.57	91.34
767.749	92.28
767.928	92.27
768.106	91.97
768.285	92.33
768.464	91.66
768.643	92.03
768.821	93.21
769	93.81
769.179	92.95
769.357	91.87
769.536	91.4
769.715	90.34
769.893	89.55
770.072	91.94
770.25	91.33
770.429	94.13
770.607	92.75
770.786	92
770.964	91.68
771.143	95.07
771.321	93.28
771.5	94.84
771.678	94.99
771.857	93.59
772.035	91.45
772.213	91.29
772.392	88.61
772.57	88.73
772.748	90.94
772.927	93.8
773.105	91.8
773.283	92.77
773.461	91.79
773.64	88.95
773.818	87.85
773.996	89.65
774.174	91.3
774.352	94.45
774.531	93.85
774.709	94.74
774.887	93.28
775.065	92.35
775.243	90.97
775.421	93.02
775.599	91.45
775.777	90.83
775.955	90.93
776.133	89.75
776.311	88.01
776.489	87.21
776.667	89.84
776.844	88.81
777.022	89.1
777.2	88.49
777.378	88.82
777.556	87.3
777.734	88.94
777.911	90.67
778.089	93.91
778.267	94.18
778.445	91.52
778.622	89.51
778.8	86.7
778.978	84.84
779.155	83.76
779.333	85.98
779.511	89.68
779.688	93.2
779.866	94.03
780.043	94.16
780.221	93.8
780.398	90.28
780.576	91
780.753	91.24
780.931	90.53
781.108	87.72
781.286	87.59
781.463	83.33
781.64	81.35
781.818	82.76
781.995	85.88
782.172	87.18
782.35	91.77
782.527	89.84
782.704	88.26
782.882	88.91
783.059	88.99
783.236	86.6
783.413	89.62
783.59	91.38
783.768	93.87
783.945	94.17
784.122	94.95
784.299	95.37
784.476	96.91
784.653	95.19
784.83	92.41
785.007	92.1
785.184	91.33
785.361	91.35
785.538	87.43
785.715	91.77
785.892	89.46
786.069	89.77
786.246	91.38
786.423	94.48
786.6	94.93
786.776	94.58
786.953	93.12
787.13	86.73
787.307	84.6
787.484	80.17
787.66	80.59
787.837	81.84
788.014	84.39
788.191	84.57
788.367	84.39
788.544	85.05
788.721	85.14
788.897	82.77
789.074	85.68
789.25	85.57
789.427	86.79
789.603	87.09
789.78	89.18
789.956	85.94
790.133	90.39
790.309	89.69
790.486	89.18
790.662	86.6
790.839	87.71
791.015	88.89
791.192	85.19
791.368	84.93
791.544	88.91
791.721	91.86
791.897	88.98
792.073	94.36
792.249	93.5
792.426	91
792.602	86.86
792.778	84.35
792.954	85.41
793.13	87.09
793.307	85.76
793.483	88.65
793.659	88.92
793.835	85.61
794.011	84.17
794.187	85.12
794.363	82.41
794.539	83.69
794.715	84.95
794.891	85.53
795.067	86.73
795.243	86.52
795.419	85.96
795.595	84.61
795.771	85.48
795.947	85.46
796.122	87.24
796.298	82.84
796.474	86.24
796.65	83.57
796.826	85.76
797.001	80.02
797.177	82.29
797.353	81.03
797.529	78.89
797.704	72.01
797.88	78.63
798.056	81.88
798.231	76.68
798.407	80.3
798.582	86.88
798.758	86.67
798.934	83.68
799.109	91.94
799.285	90.9
799.46	94.06
799.636	89.96
799.811	91.58
799.986	89.16
800.162	88.92
800.337	82.45
800.513	83.32
800.688	80.6
800.863	82.39
801.039	84.04
801.214	85.13
801.389	86.75
801.565	90.76
801.74	87.51
801.915	84.76
802.09	82.73
802.265	82.55
802.441	80.5
802.616	80.9
802.791	82.27
802.966	81.74
803.141	75.65
803.316	79.46
803.491	78.91
803.666	78.45
803.841	73.31
804.016	83.06
804.191	84.15
804.366	81.56
804.541	80.08
804.716	84.41
804.891	78.68
805.066	76.75
805.241	81.64
805.416	81.16
805.591	83.89
805.765	91.69
805.94	83.64
806.115	79.73
806.29	82.43
806.464	84.1
806.639	76.77
806.814	81.1
806.989	86.65
807.163	81.41
807.338	82.55
807.512	88.13
807.687	82.33
807.862	81.76
808.036	84.92
808.211	82.62
808.385	85.3
808.56	88.79
808.734	83.99
808.909	82.75
809.083	83.54
809.258	79.27
809.432	82.48
809.606	76.77
809.781	86.82
809.955	78.53
810.13	79.87
810.304	76.6
810.478	89.7
810.652	84.11
810.827	86.8
811.001	90.82
811.175	96.2
811.349	89.7
811.524	92.69
811.698	92.88
811.872	79.08
812.046	82.41
812.22	82.08
812.394	80.86
812.568	83.89
812.742	82.99
812.916	79.11
813.09	79.74
813.264	80.05
813.438	80.89
813.612	99.22
813.786	103.86
813.96	106.95
814.134	107.2
814.308	100.71
814.482	89.21
814.656	87.37
814.83	75.97
815.003	78.54
815.177	83.6
815.351	81.9
815.525	80.7
815.698	89.84
815.872	91.49
816.046	90.48
816.219	94.94
816.393	81.15
816.567	85.14
816.74	83.38
816.914	87.86
817.088	75.83
817.261	82.4
817.435	73.74
817.608	70.1
817.782	65.39
817.955	79.22
818.129	85.32
818.302	89.83
818.475	94.97
818.649	83.17
818.822	77.17
818.996	77.07
819.169	72.45
819.342	62.41
819.516	66.92
819.689	67.57
819.862	62.52
820.035	60.36
820.209	69.89
820.382	74.01
820.555	60.54
820.728	65.64
820.901	79.26
821.075	82.83
821.248	72.19
821.421	75.51
821.594	73.96
821.767	62.58
821.94	57.15
822.113	75.89
822.286	90.99
822.459	98.7
822.632	87.63
822.805	96.09
822.978	88.91
823.151	85.22
823.324	70.76
823.496	92.28
823.669	88.28
823.842	81.62
824.015	71.9
824.188	65.75
824.361	54.93
824.533	54.25
824.706	48.91
824.879	64.6
825.051	89.34
825.224	90.02
825.397	84.45
825.569	88.45
825.742	88.86
825.915	86.05
826.087	82.93
826.26	102.24
826.432	92.52
826.605	77.26
826.777	67.29
826.95	66.84
827.122	57.06
827.295	68.65
827.467	79.48
827.64	86.71
827.812	89.34
827.984	87.12
828.157	74.53
828.329	68.67
828.501	70.26
828.674	75.75
828.846	76.88
829.018	78.03
829.19	80.79
829.363	64.06
829.535	56.11
829.707	65.01
829.879	73.25
830.051	56.13
830.223	65.75
830.395	72.17
830.568	62.37
830.74	59.46
830.912	70.92
831.084	77.75
831.256	66.52
831.428	66.41
831.6	63.51
831.772	72.09
831.943	56.12
832.115	65.41
832.287	53.53
832.459	59.6
832.631	59.75
832.803	37.84
832.975	40.88
833.146	40.16
833.318	43.03
833.49	43.84
833.662	68.61
833.833	70.75
834.005	88.35
834.177	76.8
834.348	75.94
834.52	78.23
834.692	70.45
834.863	64.44
835.035	74.32
835.206	72.4
835.378	75.07
835.549	120.65
835.721	101.78
835.892	95.23
836.064	103.16
836.235	81.72
836.407	73.05
836.578	97.38
836.749	77.31
836.921	79.7
837.092	76.97
837.264	68.64
837.435	58.52
837.606	67.49
837.777	55.24
837.949	57.94
838.12	63.74
838.291	63.08
838.462	71.6
838.633	74.67
838.805	67.4
838.976	61.85
839.147	67.81
839.318	61.56
839.489	58.45
839.66	82.43
839.831	85.79
840.002	83.91
840.173	76.79
840.344	112.55
840.515	97.65
840.686	95.87
840.857	95.98
841.028	110.85
841.199	88.06
841.369	88.18
841.54	88.59
841.711	83.44
841.882	85.55
842.053	95.01
842.223	77.82
842.394	65.33
842.565	83.27
842.736	91.89
842.906	75.41
843.077	83.1
843.248	134.68
843.418	133.53
843.589	149.66
843.759	109.14
843.93	106.68
844.101	94.56
844.271	85.69
844.442	64.32
844.612	111.69
844.783	134.44
844.953	244.26
845.123	-26500
845.294	146.98
845.464	95.23
845.635	124.68
845.805	75.68
845.975	90.65
846.146	81.76
846.316	87.97
846.486	63.37
846.656	71.2
846.827	57.97
846.997	51.34
847.167	61.67
847.337	71.6
847.507	49.25
847.677	40.78
847.848	59.41
848.018	47.23
848.188	22.88
848.358	52.75
848.528	67.51
848.698	61.3
848.868	50.73
849.038	92.9
849.208	155.14
849.378	133.38
849.548	159.63
849.718	165.89
849.887	150.85
850.057	99.22
850.227	70.58
850.397	61.56
850.567	47.13
850.737	67.34
850.906	74.37
851.076	59.71
851.246	50.41
851.415	45.81
851.585	40.19
851.755	29.55
851.924	85.45
852.094	101.76
852.264	128.8
852.433	129.41
852.603	76.94
852.772	65.73
852.942	86.82
853.111	104.59
853.281	94.78
853.45	104.31
853.62	92.34
853.789	72.96
853.959	66.24
854.128	64.08
854.297	69.03
854.467	53.96
854.636	101.92
854.805	113.66
854.975	174.29
855.144	92.6
855.313	103.03
855.482	66.39
855.652	76.44
855.821	54.86
855.99	45.38
856.159	42.25
856.328	50
856.497	27.15
856.667	48.03
856.836	157.53
857.005	131.94
857.174	176.02
857.343	192.72
857.512	254.91
857.681	169.71
857.85	517.21
858.019	144.01
858.188	48.72
858.356	31.97
858.525	30.58
858.694	31.78
858.863	10.11
859.032	50.27
859.201	44.89
859.369	36.18
859.538	27.13
859.707	50.39
859.876	29.52
860.044	14.06
860.213	58.34
860.382	92.6
860.55	103.61
860.719	103.67
860.888	97.35
861.056	71.74
861.225	57.8
861.393	79.34
861.562	68.45
861.73	60.95
861.899	59.95
862.067	67.27
862.236	29.76
862.404	67.65
862.572	92.6
862.741	86.78
862.909	103.31
863.078	106.58
863.246	18.62
863.414	-3.56
863.582	-1.82
863.751	-84.21
863.919	-224.02
864.087	-18.71
864.255	-219.18
864.424	218.12
864.592	126.2
864.76	57.03
864.928	30.65
865.096	41.39
865.264	25.77
865.432	19.63
865.6	50.54
865.768	76.14
865.936	70.42
866.104	74.45
866.272	60.49
866.44	41.81
866.608	33.83
866.776	19.25
866.944	6.24
867.112	47.99
867.28	77.89
867.448	121.51
867.615	132.08
867.783	91.6
867.951	78.16
868.119	66.86
868.286	77.24
868.454	83.82
868.622	86.78
868.789	84.37
868.957	90.33
869.125	106.69
869.292	91.21
869.46	141.84
869.627	121.63
869.795	394.12
869.963	32.95
870.13	-316.39
870.298	135.25
870.465	87.05
870.632	9.19
870.8	6.04
870.967	-10.47
871.135	1.82
871.302	29.32
871.469	44.08
871.637	66.75
871.804	96.57
871.971	85.55
872.139	73.01
872.306	98.26
872.473	87.35
872.64	60.21
872.807	54.62
872.975	76.56
873.142	95.68
873.309	82.25
873.476	139.11
873.643	92.6
873.81	73.26
873.977	6.12
874.144	-2.42
874.311	-4.95
874.478	5.37
874.645	50.7
874.812	75.4
874.979	54.16
875.146	56.69
875.313	69.27
875.48	37.18
875.647	29.34
875.813	59.91
875.98	83.74
876.147	69.28
876.314	72.55
876.481	87.31
876.647	60.14
876.814	32.85
876.981	59.13
877.147	1400
877.314	73.28
877.481	145.45
877.647	-972.73
877.814	59.03
877.98	63.49
878.147	66.62
878.314	125.95
878.48	107.16
878.647	154.59
878.813	136.01
878.979	116.46
879.146	120.34
879.312	118.46
879.479	135.51
879.645	132.66
879.811	306.02
879.978	150.62
880.144	74.13
880.31	33.86
880.477	33.61
880.643	5.52
880.809	20.33
880.975	42.23
881.142	143.24
881.308	1372.73
881.474	-446.62
881.64	-72.38
881.806	-151.22
881.972	-199.53
882.138	-580.82
882.304	35.94
882.47	31
882.636	89.68
882.802	-5.14
882.968	-345.07
883.134	-44.37
883.3	13.17
883.466	6.97
883.632	67.72
883.798	71.97
883.964	112.48
884.129	359.81
884.295	214.63
884.461	307.01
884.627	225.2
884.793	287.15
884.958	168.71
885.124	174.95
885.29	62.32
885.455	-34.78
885.621	-90.6
885.787	697.47
885.952	-353.01
886.118	24.29
886.283	76.78
886.449	137.75
886.614	46.4
886.78	15.47
886.945	23.95
887.111	1.31
887.276	4.42
887.442	42.2
887.607	66.34
887.773	61.81
887.938	110.91
888.103	219.38
888.269	164.35
888.434	183.73
888.599	270.5
888.764	124.43
888.93	96.55
889.095	103.71
889.26	123.83
889.425	112.49
889.59	108.49
889.756	82.06
889.921	70.72
890.086	76.69
890.251	79.49
890.416	49.56
890.581	94.86
890.746	60.07
890.911	74.65
891.076	-10.67
891.241	28.42
891.406	63.71
891.571	83.77
891.736	78.5
891.901	106.97
892.065	160.21
892.23	156.71
892.395	126.81
892.56	84.44
892.725	95.79
892.889	79.07
893.054	63.96
893.219	80
893.384	146.89
893.548	48.1
893.713	-32.26
893.878	22.03
