Data from Ofra_PS_Phys_2GT31_Reflection_2.txt Node
Date: Tue Jul 20 14:42:37 EDT 2021
User: USUARIO
Spectrometer: FLMT01687
Trigger mode: 0
Integration Time (sec): 1.200000E0
Scans to average: 2
Electric dark correction enabled: true
Nonlinearity correction enabled: false
Boxcar width: 2
XAxis mode: Wavelengths
Number of Pixels in Spectrum: 3648
>>>>>Begin Spectral Data<<<<<
179.494	-85.29
179.716	-439.39
179.937	869.74
180.158	122.25
180.38	101.54
180.601	77.89
180.823	460.91
181.044	247.75
181.265	-249.85
181.486	-24.52
181.708	361.05
181.929	116.38
182.15	132.3
182.372	-396.75
182.593	116.57
182.814	-4533.33
183.035	-244.28
183.257	43.35
183.478	44.81
183.699	39
183.92	13.2
184.141	38.27
184.363	33.4
184.584	30.91
184.805	27.1
185.026	42.77
185.247	34.17
185.468	33.79
185.689	43.84
185.91	52.42
186.132	48.97
186.353	55.53
186.574	43.7
186.795	31.57
187.016	31.35
187.237	32.19
187.458	34.74
187.679	37.38
187.9	42.5
188.121	21.51
188.342	14.05
188.563	6.93
188.784	1.95
189.005	7.31
189.226	23.83
189.447	22.58
189.667	25.95
189.888	29.95
190.109	22.88
190.33	37.66
190.551	41.92
190.772	30.48
190.993	26.47
191.214	42.35
191.434	30.73
191.655	37.61
191.876	38.09
192.097	45.46
192.318	40.4
192.538	32.34
192.759	15.97
192.98	29.11
193.201	38.38
193.421	32.37
193.642	44.67
193.863	41.72
194.083	40.78
194.304	35.01
194.525	22.81
194.745	33.2
194.966	27.63
195.187	18.65
195.407	20.14
195.628	33.15
195.848	12.91
196.069	22.5
196.29	32.65
196.51	41.52
196.731	34.27
196.951	26.42
197.172	18.57
197.392	16.92
197.613	1.64
197.833	12.83
198.054	29.13
198.274	40.47
198.495	46.68
198.715	61.32
198.936	38.5
199.156	54.43
199.377	-12.79
199.597	-37.33
199.817	-7.2
200.038	21.7
200.258	13.62
200.479	45.82
200.699	55.6
200.919	67.97
201.14	83.89
201.36	72.35
201.58	58.38
201.801	47.34
202.021	29.95
202.241	34.71
202.461	40.13
202.682	60.79
202.902	64.46
203.122	55.12
203.342	45.99
203.563	33.18
203.783	25.2
204.003	21.84
204.223	37.78
204.443	33.44
204.663	41.97
204.884	40.26
205.104	32.64
205.324	34.39
205.544	27.93
205.764	38.8
205.984	43.13
206.204	38.48
206.424	33.38
206.644	30.2
206.864	8.09
207.084	10.72
207.304	21.7
207.525	22.26
207.745	40.04
207.964	49.05
208.184	45.67
208.404	35.37
208.624	41.52
208.844	34.4
209.064	34.19
209.284	30.7
209.504	39.11
209.724	28.57
209.944	33.45
210.164	30.63
210.384	41.77
210.604	57.31
210.823	52.68
211.043	68.48
211.263	60.81
211.483	60.4
211.703	39.09
211.922	40.48
212.142	24.01
212.362	24.47
212.582	20.24
212.801	42.9
213.021	46.01
213.241	45.05
213.461	41.68
213.68	50.89
213.9	60.58
214.12	66.06
214.339	73.49
214.559	62.57
214.779	58.47
214.998	36.86
215.218	26.14
215.438	23.64
215.657	36.03
215.877	39.41
216.096	49.22
216.316	52.6
216.535	50.23
216.755	51.78
216.974	51.31
217.194	54.08
217.413	49
217.633	41.07
217.852	52.7
218.072	47.71
218.291	46.07
218.511	45.26
218.73	42.14
218.95	42.26
219.169	28.52
219.389	11.91
219.608	12.61
219.827	16.53
220.047	8.07
220.266	24.18
220.485	33.32
220.705	42.33
220.924	47.86
221.143	49.86
221.363	45.31
221.582	51.94
221.801	43.72
222.021	43.44
222.24	31.84
222.459	26.5
222.678	19.33
222.897	24.59
223.117	10.17
223.336	23.36
223.555	27.68
223.774	29.13
223.993	15.97
224.213	22.64
224.432	9.59
224.651	21.46
224.87	22.14
225.089	31.89
225.308	57.72
225.527	56.82
225.746	60.54
225.965	53.47
226.184	52.02
226.404	26.56
226.623	31.92
226.842	25.22
227.061	20.31
227.28	28.8
227.499	34.34
227.718	35.49
227.936	58.94
228.155	73.02
228.374	62.7
228.593	70.29
228.812	69.15
229.031	56.11
229.25	48.66
229.469	47.97
229.688	30.18
229.907	32.23
230.125	29.38
230.344	13.61
230.563	11.21
230.782	-0.7
231.001	-11.6
231.22	21.5
231.438	47.41
231.657	53.08
231.876	90.93
232.095	75.8
232.313	59.61
232.532	54.88
232.751	54.71
232.969	42.95
233.188	41.12
233.407	33.84
233.625	23.23
233.844	32.59
234.063	34.06
234.281	33.63
234.5	24.73
234.719	23.18
234.937	9.68
235.156	21.73
235.374	25.31
235.593	31.81
235.811	42.81
236.03	47.24
236.249	35.41
236.467	34.35
236.686	37.3
236.904	27.83
237.123	16.33
237.341	15.18
237.559	28.9
237.778	41.31
237.996	37.75
238.215	63.8
238.433	56.77
238.652	43.22
238.87	28.06
239.088	27.24
239.307	7.03
239.525	-15.86
239.743	11.48
239.962	9.89
240.18	20.22
240.398	20.01
240.617	30.63
240.835	23.7
241.053	30.4
241.271	33.96
241.49	39.14
241.708	49.62
241.926	54.64
242.144	54.01
242.363	53.51
242.581	44.92
242.799	35.05
243.017	33.62
243.235	35.59
243.453	43.44
243.672	40.12
243.89	30.42
244.108	33.02
244.326	21.29
244.544	6.65
244.762	11.68
244.98	4.57
245.198	9.8
245.416	12.52
245.634	24.41
245.852	35.04
246.07	47.91
246.288	42.37
246.506	42.76
246.724	33
246.942	18.31
247.16	26.8
247.378	35.3
247.596	38.92
247.814	38.81
248.032	55.38
248.25	48.72
248.468	33.86
248.685	27.45
248.903	27.64
249.121	31.33
249.339	22.04
249.557	30.27
249.775	34.14
249.992	27.17
250.21	22.66
250.428	20.22
250.646	20.86
250.863	21.73
251.081	29.11
251.299	20.97
251.517	25.55
251.734	18.75
251.952	1.78
252.17	0.32
252.387	2.97
252.605	9.25
252.823	2.82
253.04	16.76
253.258	28.37
253.475	34.6
253.693	31.03
253.911	39.11
254.128	35.33
254.346	30.29
254.563	25.64
254.781	34.29
254.998	32.6
255.216	24.08
255.433	24.76
255.651	31.51
255.868	32.5
256.086	38.6
256.303	44.19
256.521	48.82
256.738	52.12
256.956	39.67
257.173	34.89
257.39	34.97
257.608	13.89
257.825	-0.28
258.043	23.93
258.26	23.64
258.477	23.84
258.695	31.6
258.912	50.76
259.129	33.92
259.346	24.32
259.564	21
259.781	24.39
259.998	23.75
260.216	16.87
260.433	30.42
260.65	37.87
260.867	44.72
261.084	38.46
261.302	48.78
261.519	46.18
261.736	27.19
261.953	17.88
262.17	23.86
262.387	23.84
262.604	19.67
262.822	32.62
263.039	30.34
263.256	21.11
263.473	18.68
263.69	22.49
263.907	7.88
264.124	2.7
264.341	2.65
264.558	-4.17
264.775	-15.71
264.992	-5.88
265.209	-4.8
265.426	13.04
265.643	28.59
265.86	35.01
266.077	35.26
266.294	33.66
266.51	30.21
266.727	31.48
266.944	24.66
267.161	36.14
267.378	42.78
267.595	42.67
267.812	33.79
268.028	44.63
268.245	39.41
268.462	25.2
268.679	22.56
268.896	22.79
269.112	28.29
269.329	19.45
269.546	27.8
269.763	25.72
269.979	27.31
270.196	27.42
270.413	20.16
270.629	12.83
270.846	14.21
271.063	13.53
271.279	13.3
271.496	20.1
271.712	40.79
271.929	41.42
272.146	44.09
272.362	51.19
272.579	46.97
272.795	20.38
273.012	14.8
273.228	14.54
273.445	9.86
273.661	26.19
273.878	34.95
274.094	38.29
274.311	34.79
274.527	26.77
274.744	16.88
274.96	12.88
275.177	11.39
275.393	-11.57
275.609	5.2
275.826	2.05
276.042	10.08
276.259	5.43
276.475	21.13
276.691	7.64
276.908	13.33
277.124	27.79
277.34	28.64
277.557	32.84
277.773	42.96
277.989	45.34
278.205	31.71
278.422	23.53
278.638	16.91
278.854	21.29
279.07	18.99
279.286	16.02
279.503	31.46
279.719	38.04
279.935	33.67
280.151	31.4
280.367	40.31
280.583	37.08
280.799	35.68
281.016	40.06
281.232	47.16
281.448	43.06
281.664	46.8
281.88	38.92
282.096	31.84
282.312	25.1
282.528	19.05
282.744	26.04
282.96	30.84
283.176	38.36
283.392	35.69
283.608	34.04
283.824	24.6
284.04	25.81
284.256	20.58
284.471	18.51
284.687	32.6
284.903	30.31
285.119	28.04
285.335	35.74
285.551	36.71
285.767	27.81
285.982	37.75
286.198	26.71
286.414	6.38
286.63	19.77
286.846	8.9
287.061	7.8
287.277	15.55
287.493	32.46
287.709	26.23
287.924	44.77
288.14	38.15
288.356	37.09
288.571	31.1
288.787	31.72
289.003	20.81
289.218	19.3
289.434	10.71
289.65	22.23
289.865	4.32
290.081	21.93
290.296	21.43
290.512	8.13
290.727	-11.7
290.943	10.47
291.159	-5.17
291.374	-1.89
291.59	16.05
291.805	16.96
292.021	7.94
292.236	13.17
292.451	18.69
292.667	29.34
292.882	42.2
293.098	53.95
293.313	60.1
293.529	51.58
293.744	43.26
293.959	36.03
294.175	37.2
294.39	25.96
294.605	31.96
294.821	31.07
295.036	32.49
295.251	34.51
295.467	39.32
295.682	26.29
295.897	35.59
296.112	24.53
296.328	14.45
296.543	10.66
296.758	19.25
296.973	6.39
297.188	22.43
297.404	26.14
297.619	26.03
297.834	25.61
298.049	42.08
298.264	29.42
298.479	30.75
298.694	20.59
298.909	19.72
299.125	12.94
299.34	22.02
299.555	15.03
299.77	27.9
299.985	28.37
300.2	11.93
300.415	12.69
300.63	13.71
300.845	10.51
301.06	8.52
301.275	13.32
301.49	23.87
301.704	30.69
301.919	27.64
302.134	38.35
302.349	31.29
302.564	26.54
302.779	21.91
302.994	26.53
303.209	23.78
303.423	36.13
303.638	40.94
303.853	37.42
304.068	21.1
304.283	16.33
304.497	15.64
304.712	9.83
304.927	22.16
305.142	35.84
305.356	25
305.571	19.04
305.786	29.69
306	18.94
306.215	13.52
306.43	38.87
306.644	49.26
306.859	42.44
307.074	45.77
307.288	40.17
307.503	36.83
307.717	38.31
307.932	31.93
308.147	27.02
308.361	34.94
308.576	36.79
308.79	27.97
309.005	34.97
309.219	40.66
309.434	27.32
309.648	23.82
309.863	13.2
310.077	5.35
310.292	-4.72
310.506	5.58
310.72	0.89
310.935	7.56
311.149	9.71
311.364	26.35
311.578	33.5
311.792	29.9
312.007	37.67
312.221	35.03
312.435	29.7
312.649	23.22
312.864	35.8
313.078	35.76
313.292	26.98
313.507	36.55
313.721	25
313.935	11.47
314.149	-1.42
314.363	3.19
314.578	-6.6
314.792	-4.16
315.006	4.27
315.22	2.29
315.434	19.6
315.648	24.28
315.862	26.27
316.077	21.66
316.291	37
316.505	30.13
316.719	27.99
316.933	38.99
317.147	42.11
317.361	33.07
317.575	34.47
317.789	37.4
318.003	30.46
318.217	28.3
318.431	36.11
318.645	39.29
318.859	48.45
319.073	55.68
319.287	48.29
319.5	29.87
319.714	35.2
319.928	30.89
320.142	29.55
320.356	31.51
320.57	50.42
320.784	38.74
320.997	43.01
321.211	41.88
321.425	44.97
321.639	16
321.853	40.53
322.066	40.39
322.28	18.08
322.494	21.89
322.707	41.13
322.921	24.06
323.135	17.85
323.349	32.18
323.562	28.55
323.776	22.65
323.989	20.8
324.203	15.31
324.417	11.16
324.63	17.52
324.844	17.79
325.057	32.34
325.271	32.29
325.485	22.03
325.698	13.31
325.912	14.65
326.125	-7.46
326.339	4.21
326.552	3.75
326.766	0.34
326.979	1.13
327.193	8.7
327.406	7.21
327.619	20.71
327.833	45.48
328.046	43.63
328.26	43.29
328.473	39.75
328.686	35.49
328.9	19.54
329.113	15.1
329.326	7.45
329.54	9.99
329.753	17.73
329.966	19.78
330.179	21.29
330.393	29.51
330.606	27.93
330.819	25.03
331.032	29.47
331.246	33.56
331.459	34.14
331.672	35.31
331.885	37.26
332.098	32.92
332.311	21.12
332.525	30.05
332.738	18.91
332.951	25.06
333.164	20.74
333.377	23.38
333.59	19.56
333.803	23.81
334.016	6.91
334.229	20.74
334.442	23.88
334.655	23.6
334.868	27.73
335.081	22.47
335.294	15.25
335.507	13.9
335.72	20.99
335.933	13.12
336.146	24.22
336.359	23.83
336.572	29.71
336.785	4.35
336.997	8.25
337.21	4.07
337.423	-1.4
337.636	-19.72
337.849	3.92
338.062	8.96
338.274	15.27
338.487	22.84
338.7	20.71
338.913	22.19
339.125	27.59
339.338	24.4
339.551	25.96
339.763	35.11
339.976	39.84
340.189	30.75
340.402	28.22
340.614	28.26
340.827	27.21
341.039	22.96
341.252	33.64
341.465	34.51
341.677	40.2
341.89	44.95
342.102	38.1
342.315	35.38
342.527	40.09
342.74	38.16
342.952	35.69
343.165	41.44
343.377	44.16
343.59	41.5
343.802	45.68
344.015	46.22
344.227	32.9
344.44	21.81
344.652	30.35
344.864	13.45
345.077	4.69
345.289	31.23
345.502	41.35
345.714	29.26
345.926	38.45
346.139	47.58
346.351	25.37
346.563	25.49
346.775	33.6
346.988	31.84
347.2	21.43
347.412	21.04
347.624	21.74
347.837	14.49
348.049	8.9
348.261	8.79
348.473	26.65
348.685	22.66
348.897	19.32
349.11	21.92
349.322	30.27
349.534	16.51
349.746	13.66
349.958	14.85
350.17	15.05
350.382	7.34
350.594	0.27
350.806	-0.2
351.018	5.63
351.23	11.53
351.442	7.72
351.654	13.88
351.866	18.64
352.078	25.05
352.29	19.54
352.502	25.32
352.714	23.91
352.926	25.49
353.138	31.13
353.35	29.13
353.561	31.17
353.773	36.1
353.985	32.38
354.197	24.68
354.409	29.74
354.621	24.53
354.832	16.32
355.044	19.99
355.256	13.06
355.468	11.49
355.679	10.58
355.891	29.41
356.103	33.67
356.314	33.99
356.526	34.17
356.738	37.82
356.949	27.54
357.161	36.69
357.373	38.54
357.584	37.63
357.796	42.14
358.008	35.46
358.219	23.97
358.431	21.37
358.642	27.76
358.854	24.48
359.065	33.04
359.277	32.6
359.488	38.12
359.7	33.32
359.911	26.83
360.123	28.74
360.334	32.61
360.546	30.29
360.757	41.36
360.969	39.33
361.18	36.87
361.391	30.39
361.603	30.64
361.814	10.14
362.025	14.52
362.237	10.81
362.448	8.32
362.659	3.2
362.871	10.85
363.082	11.21
363.293	12.84
363.504	13.55
363.716	11.86
363.927	-7.07
364.138	-14.68
364.349	-1.39
364.56	-7.76
364.772	-1.5
364.983	15.18
365.194	22.74
365.405	20.73
365.616	32.1
365.827	27.07
366.038	32.65
366.25	27.33
366.461	24.3
366.672	24.42
366.883	26.85
367.094	27.11
367.305	32.41
367.516	36.45
367.727	33.47
367.938	42.98
368.149	34.21
368.36	27.83
368.571	22.79
368.781	24.69
368.992	16.52
369.203	5.09
369.414	-2.94
369.625	-2.71
369.836	6.34
370.047	12.82
370.258	23.34
370.468	32.37
370.679	34.86
370.89	32.1
371.101	27.03
371.312	24.65
371.522	21.65
371.733	17.27
371.944	12.09
372.155	13.26
372.365	12.96
372.576	12.79
372.787	16.89
372.997	29.57
373.208	30.76
373.419	31.21
373.629	33.9
373.84	34.92
374.05	20.87
374.261	19.86
374.472	21.79
374.682	25.38
374.893	26.48
375.103	19.1
375.314	20.49
375.524	26.26
375.735	19.89
375.945	21.01
376.156	28.61
376.366	27.59
376.577	20.62
376.787	28.89
376.997	28.99
377.208	24.33
377.418	23.99
377.629	26.97
377.839	19.92
378.049	12.49
378.26	15.78
378.47	10.77
378.68	14.6
378.89	10.15
379.101	12.48
379.311	10.05
379.521	22.21
379.732	15.31
379.942	10.81
380.152	7.69
380.362	7.07
380.572	2.17
380.783	10.4
380.993	23.78
381.203	28.73
381.413	34.19
381.623	30.22
381.833	31.9
382.043	28.78
382.253	20.67
382.463	20.54
382.674	19.33
382.884	18.61
383.094	17.14
383.304	26.87
383.514	25.6
383.724	34.58
383.934	31.08
384.144	31.52
384.353	23.42
384.563	21.45
384.773	14.81
384.983	19.23
385.193	14.37
385.403	14.93
385.613	14.51
385.823	7.33
386.033	2.74
386.242	3.91
386.452	7.24
386.662	9.03
386.872	19.68
387.082	14.81
387.291	19.13
387.501	20.29
387.711	17.41
387.921	14.85
388.13	16.48
388.34	16.46
388.55	17.66
388.759	19.84
388.969	16.42
389.179	18.21
389.388	18.03
389.598	11.53
389.807	11.61
390.017	14.73
390.227	11.26
390.436	7.08
390.646	9.81
390.855	11.26
391.065	8.27
391.274	10.44
391.484	14.16
391.693	12.68
391.903	9.95
392.112	11.67
392.322	11.2
392.531	9.41
392.74	11.2
392.95	11.25
393.159	10.17
393.369	11.08
393.578	10.66
393.787	8.69
393.997	9.18
394.206	9.54
394.415	9.48
394.625	9.09
394.834	8.85
395.043	7.05
395.252	7.07
395.462	6.31
395.671	6.37
395.88	6.95
396.089	7.66
396.298	6.99
396.508	8.33
396.717	8.14
396.926	8.02
397.135	7.28
397.344	7.57
397.553	6.44
397.762	6.36
397.971	6.16
398.181	6.36
398.39	6.24
398.599	5.58
398.808	5.6
399.017	5.92
399.226	6.08
399.435	6.42
399.644	6.55
399.853	6.69
400.062	6.26
400.27	6.31
400.479	5.67
400.688	6.33
400.897	6.09
401.106	6.24
401.315	6.5
401.524	6.55
401.733	6.14
401.941	6.38
402.15	6.37
402.359	5.88
402.568	5.99
402.777	5.8
402.985	5.73
403.194	5.61
403.403	5.83
403.612	5.79
403.82	5.65
404.029	5.45
404.238	5.54
404.446	5.51
404.655	5.47
404.864	5.62
405.072	5.71
405.281	5.73
405.489	5.7
405.698	5.67
405.906	5.59
406.115	5.52
406.324	5.39
406.532	5.39
406.741	5.27
406.949	5.33
407.158	5.32
407.366	5.27
407.574	5.2
407.783	5.2
407.991	5.21
408.2	5.42
408.408	5.38
408.617	5.25
408.825	5.29
409.033	5.36
409.242	5.09
409.45	5.18
409.658	5.19
409.867	5.17
410.075	4.96
410.283	4.98
410.491	4.95
410.7	4.83
410.908	4.92
411.116	4.96
411.324	4.97
411.533	4.82
411.741	4.95
411.949	4.7
412.157	4.61
412.365	4.66
412.573	4.78
412.781	4.67
412.99	4.85
413.198	4.94
413.406	4.81
413.614	4.69
413.822	4.67
414.03	4.73
414.238	4.67
414.446	4.62
414.654	4.62
414.862	4.86
415.07	4.74
415.278	4.7
415.486	4.69
415.694	4.73
415.902	4.57
416.109	4.44
416.317	4.52
416.525	4.56
416.733	4.67
416.941	4.45
417.149	4.63
417.357	4.56
417.564	4.4
417.772	4.25
417.98	4.53
418.188	4.38
418.395	4.29
418.603	4.32
418.811	4.35
419.019	4.33
419.226	4.43
419.434	4.61
419.642	4.62
419.849	4.56
420.057	4.48
420.265	4.44
420.472	4.28
420.68	4.36
420.887	4.33
421.095	4.27
421.302	4.25
421.51	4.24
421.717	4.13
421.925	4.14
422.132	4.19
422.34	4.2
422.547	4.36
422.755	4.31
422.962	4.35
423.17	4.24
423.377	4.22
423.585	3.95
423.792	4.04
423.999	4.02
424.207	4.01
424.414	3.98
424.621	4.04
424.829	4.03
425.036	3.98
425.243	4.05
425.451	4.08
425.658	4.13
425.865	4.14
426.072	4.13
426.28	4.13
426.487	4.07
426.694	4.13
426.901	4.06
427.108	3.99
427.315	3.88
427.523	3.93
427.73	3.96
427.937	4.09
428.144	4.04
428.351	4.34
428.558	4.27
428.765	4.19
428.972	4.16
429.179	4.32
429.386	4.18
429.593	4.29
429.8	4.24
430.007	4.18
430.214	4.19
430.421	4.17
430.628	4.08
430.835	3.99
431.042	3.94
431.249	3.98
431.456	3.91
431.662	4
431.869	4.25
432.076	4.33
432.283	4.26
432.49	4.3
432.697	4.18
432.903	4.04
433.11	4.01
433.317	4.09
433.524	4.21
433.73	4.33
433.937	4.27
434.144	4.28
434.35	4.24
434.557	4.14
434.764	4.14
434.97	4.25
435.177	4.21
435.384	4.2
435.59	4.11
435.797	4.16
436.003	4.09
436.21	4.16
436.416	4.2
436.623	4.37
436.829	4.26
437.036	4.29
437.242	4.25
437.449	4.21
437.655	4.15
437.862	4.18
438.068	4.2
438.275	4.26
438.481	4.35
438.687	4.37
438.894	4.39
439.1	4.5
439.307	4.54
439.513	4.5
439.719	4.48
439.926	4.49
440.132	4.5
440.338	4.54
440.544	4.62
440.751	4.73
440.957	4.79
441.163	4.78
441.369	4.76
441.575	4.62
441.782	4.64
441.988	4.63
442.194	4.55
442.4	4.57
442.606	4.67
442.812	4.69
443.018	4.66
443.224	4.64
443.431	4.61
443.637	4.56
443.843	4.5
444.049	4.56
444.255	4.66
444.461	4.69
444.667	4.73
444.873	4.84
445.079	4.79
445.284	4.85
445.49	4.91
445.696	4.91
445.902	4.83
446.108	4.94
446.314	4.86
446.52	4.83
446.726	4.91
446.931	4.96
447.137	4.96
447.343	5.1
447.549	5.05
447.755	5.06
447.96	4.98
448.166	4.96
448.372	4.81
448.578	4.91
448.783	4.88
448.989	4.95
449.195	4.94
449.4	4.98
449.606	4.9
449.812	4.91
450.017	4.92
450.223	4.89
450.428	4.86
450.634	4.89
450.84	4.9
451.045	4.87
451.251	4.89
451.456	4.94
451.662	4.91
451.867	4.91
452.073	4.95
452.278	4.97
452.483	5.03
452.689	5.09
452.894	4.97
453.1	4.97
453.305	4.93
453.51	4.96
453.716	4.9
453.921	5.06
454.127	5.08
454.332	5.03
454.537	4.91
454.742	4.96
454.948	4.94
455.153	4.92
455.358	4.97
455.563	5.07
455.769	5.16
455.974	5.13
456.179	5.13
456.384	5.08
456.589	5.03
456.795	4.93
457	4.95
457.205	5.01
457.41	5.1
457.615	5.11
457.82	5.13
458.025	5.15
458.23	5.03
458.435	5.04
458.64	4.92
458.845	4.92
459.05	4.93
459.255	5.06
459.46	5.06
459.665	5.16
459.87	5.19
460.075	5.15
460.28	5.07
460.485	5.03
460.69	5.17
460.895	5.2
461.099	5.2
461.304	5.32
461.509	5.42
461.714	5.38
461.919	5.42
462.123	5.44
462.328	5.42
462.533	5.38
462.738	5.35
462.942	5.26
463.147	5.33
463.352	5.26
463.556	5.27
463.761	5.24
463.966	5.29
464.17	5.33
464.375	5.44
464.58	5.5
464.784	5.57
464.989	5.63
465.193	5.51
465.398	5.4
465.602	5.41
465.807	5.39
466.011	5.34
466.216	5.39
466.42	5.45
466.625	5.4
466.829	5.4
467.034	5.43
467.238	5.43
467.443	5.46
467.647	5.54
467.851	5.61
468.056	5.52
468.26	5.5
468.464	5.52
468.669	5.47
468.873	5.5
469.077	5.61
469.282	5.72
469.486	5.63
469.69	5.68
469.894	5.7
470.099	5.7
470.303	5.77
470.507	5.9
470.711	5.96
470.915	5.9
471.119	5.92
471.324	5.84
471.528	5.83
471.732	5.86
471.936	5.83
472.14	5.77
472.344	5.84
472.548	5.88
472.752	5.81
472.956	5.85
473.16	6.03
473.364	5.96
473.568	5.92
473.772	6.01
473.976	6.02
474.18	6.02
474.384	6.06
474.588	6
474.792	5.94
474.995	5.95
475.199	5.89
475.403	5.89
475.607	5.96
475.811	6.05
476.015	6.1
476.218	6.15
476.422	6.21
476.626	6.28
476.83	6.18
477.033	6.23
477.237	6.28
477.441	6.3
477.644	6.31
477.848	6.4
478.052	6.37
478.255	6.34
478.459	6.3
478.663	6.29
478.866	6.34
479.07	6.37
479.273	6.35
479.477	6.43
479.681	6.42
479.884	6.36
480.088	6.37
480.291	6.37
480.495	6.34
480.698	6.3
480.901	6.31
481.105	6.35
481.308	6.39
481.512	6.4
481.715	6.48
481.919	6.5
482.122	6.47
482.325	6.52
482.529	6.52
482.732	6.5
482.935	6.47
483.138	6.49
483.342	6.48
483.545	6.49
483.748	6.51
483.952	6.51
484.155	6.56
484.358	6.59
484.561	6.61
484.764	6.61
484.967	6.61
485.171	6.51
485.374	6.48
485.577	6.51
485.78	6.5
485.983	6.58
486.186	6.61
486.389	6.59
486.592	6.55
486.795	6.61
486.998	6.54
487.201	6.62
487.404	6.66
487.607	6.7
487.81	6.69
488.013	6.71
488.216	6.67
488.419	6.67
488.622	6.63
488.825	6.56
489.028	6.57
489.231	6.61
489.433	6.63
489.636	6.65
489.839	6.7
490.042	6.71
490.245	6.64
490.447	6.65
490.65	6.6
490.853	6.62
491.056	6.59
491.258	6.64
491.461	6.63
491.664	6.64
491.866	6.62
492.069	6.7
492.272	6.64
492.474	6.66
492.677	6.66
492.879	6.73
493.082	6.73
493.285	6.77
493.487	6.68
493.69	6.73
493.892	6.7
494.095	6.63
494.297	6.65
494.5	6.77
494.702	6.77
494.905	6.74
495.107	6.79
495.309	6.83
495.512	6.76
495.714	6.79
495.917	6.81
496.119	6.76
496.321	6.77
496.524	6.88
496.726	6.87
496.928	6.94
497.13	7.01
497.333	6.97
497.535	6.91
497.737	6.95
497.939	6.95
498.142	6.93
498.344	6.93
498.546	6.95
498.748	6.98
498.95	6.95
499.152	7.01
499.355	7.01
499.557	6.97
499.759	6.99
499.961	7.04
500.163	7.06
500.365	7.2
500.567	7.29
500.769	7.29
500.971	7.26
501.173	7.29
501.375	7.27
501.577	7.32
501.779	7.39
501.981	7.43
502.183	7.49
502.385	7.52
502.587	7.48
502.788	7.48
502.99	7.54
503.192	7.52
503.394	7.53
503.596	7.57
503.798	7.63
503.999	7.65
504.201	7.7
504.403	7.71
504.605	7.76
504.806	7.76
505.008	7.78
505.21	7.71
505.411	7.74
505.613	7.78
505.815	7.81
506.016	7.83
506.218	7.89
506.42	7.93
506.621	7.93
506.823	7.9
507.024	7.91
507.226	7.95
507.427	7.96
507.629	7.99
507.83	8.08
508.032	8.11
508.233	8.18
508.435	8.24
508.636	8.27
508.838	8.23
509.039	8.26
509.24	8.22
509.442	8.24
509.643	8.23
509.845	8.32
510.046	8.34
510.247	8.42
510.448	8.47
510.65	8.49
510.851	8.47
511.052	8.52
511.254	8.59
511.455	8.57
511.656	8.6
511.857	8.71
512.058	8.71
512.26	8.69
512.461	8.74
512.662	8.79
512.863	8.73
513.064	8.79
513.265	8.81
513.466	8.84
513.667	8.85
513.868	8.9
514.069	8.94
514.27	9
514.471	9.08
514.672	9.1
514.873	9.13
515.074	9.14
515.275	9.15
515.476	9.08
515.677	9.14
515.878	9.19
516.079	9.26
516.28	9.26
516.481	9.33
516.682	9.31
516.882	9.27
517.083	9.31
517.284	9.3
517.485	9.28
517.686	9.29
517.886	9.3
518.087	9.28
518.288	9.31
518.488	9.31
518.689	9.36
518.89	9.39
519.091	9.36
519.291	9.39
519.492	9.45
519.692	9.4
519.893	9.49
520.094	9.48
520.294	9.5
520.495	9.47
520.695	9.58
520.896	9.57
521.096	9.65
521.297	9.7
521.497	9.8
521.698	9.83
521.898	9.86
522.099	9.84
522.299	9.9
522.499	9.89
522.7	9.88
522.9	9.87
523.101	9.98
523.301	9.92
523.501	9.96
523.702	10.01
523.902	10.03
524.102	9.95
524.302	9.98
524.503	9.99
524.703	10.04
524.903	10.13
525.103	10.19
525.304	10.2
525.504	10.22
525.704	10.19
525.904	10.17
526.104	10.2
526.304	10.29
526.504	10.31
526.705	10.38
526.905	10.43
527.105	10.44
527.305	10.44
527.505	10.43
527.705	10.44
527.905	10.45
528.105	10.39
528.305	10.43
528.505	10.47
528.705	10.5
528.905	10.52
529.105	10.64
529.304	10.68
529.504	10.71
529.704	10.79
529.904	10.8
530.104	10.88
530.304	10.83
530.503	10.86
530.703	10.76
530.903	10.82
531.103	10.79
531.303	10.86
531.502	10.88
531.702	10.97
531.902	10.94
532.101	10.99
532.301	10.98
532.501	11.05
532.7	11.07
532.9	11.18
533.1	11.16
533.299	11.24
533.499	11.31
533.698	11.4
533.898	11.41
534.097	11.52
534.297	11.55
534.496	11.5
534.696	11.52
534.895	11.52
535.095	11.51
535.294	11.55
535.494	11.64
535.693	11.69
535.892	11.76
536.092	11.8
536.291	11.82
536.491	11.87
536.69	11.93
536.889	11.97
537.088	12
537.288	12.04
537.487	12.07
537.686	12.05
537.886	12.08
538.085	12.11
538.284	12.15
538.483	12.19
538.682	12.25
538.882	12.3
539.081	12.34
539.28	12.38
539.479	12.41
539.678	12.44
539.877	12.47
540.076	12.55
540.275	12.6
540.474	12.63
540.673	12.64
540.872	12.67
541.071	12.73
541.27	12.8
541.469	12.84
541.668	12.93
541.867	13.03
542.066	13.05
542.265	13.11
542.464	13.16
542.663	13.26
542.862	13.3
543.06	13.37
543.259	13.4
543.458	13.48
543.657	13.52
543.856	13.63
544.054	13.68
544.253	13.77
544.452	13.85
544.651	13.89
544.849	13.92
545.048	14
545.247	14.07
545.445	14.13
545.644	14.16
545.843	14.2
546.041	14.26
546.24	14.29
546.438	14.36
546.637	14.45
546.836	14.52
547.034	14.63
547.233	14.73
547.431	14.79
547.63	14.88
547.828	14.98
548.027	15.05
548.225	15.11
548.423	15.2
548.622	15.3
548.82	15.42
549.019	15.48
549.217	15.64
549.415	15.68
549.614	15.77
549.812	15.79
550.01	15.91
550.209	15.99
550.407	16.1
550.605	16.13
550.803	16.23
551.002	16.3
551.2	16.34
551.398	16.52
551.596	16.72
551.794	16.88
551.993	16.98
552.191	17.07
552.389	17.18
552.587	17.26
552.785	17.37
552.983	17.56
553.181	17.69
553.379	17.75
553.577	17.89
553.775	17.99
553.973	18.08
554.171	18.18
554.369	18.32
554.567	18.34
554.765	18.38
554.963	18.53
555.161	18.59
555.359	18.65
555.557	18.82
555.755	19.01
555.952	19.09
556.15	19.34
556.348	19.55
556.546	19.7
556.744	19.82
556.941	19.91
557.139	19.96
557.337	20.01
557.535	20.16
557.732	20.24
557.93	20.4
558.128	20.57
558.325	20.73
558.523	20.84
558.721	21.04
558.918	21.25
559.116	21.35
559.313	21.55
559.511	21.64
559.708	21.72
559.906	21.81
560.104	21.98
560.301	22.01
560.498	22.25
560.696	22.45
560.893	22.56
561.091	22.64
561.288	22.83
561.486	22.89
561.683	22.95
561.88	23.1
562.078	23.31
562.275	23.45
562.473	23.46
562.67	23.6
562.867	23.69
563.064	23.72
563.262	23.83
563.459	24.09
563.656	24.19
563.853	24.39
564.051	24.59
564.248	24.71
564.445	24.88
564.642	25.04
564.839	25.11
565.036	25.27
565.234	25.39
565.431	25.4
565.628	25.55
565.825	25.7
566.022	25.76
566.219	25.93
566.416	26.08
566.613	26.18
566.81	26.27
567.007	26.41
567.204	26.43
567.401	26.6
567.598	26.63
567.795	26.7
567.991	26.78
568.188	26.95
568.385	26.97
568.582	27.07
568.779	27.11
568.976	27.1
569.172	27.18
569.369	27.22
569.566	27.37
569.763	27.56
569.96	27.71
570.156	27.64
570.353	27.78
570.55	27.81
570.746	27.82
570.943	27.95
571.14	28.12
571.336	28.15
571.533	28.27
571.729	28.31
571.926	28.32
572.123	28.38
572.319	28.45
572.516	28.43
572.712	28.54
572.909	28.58
573.105	28.58
573.302	28.63
573.498	28.71
573.695	28.85
573.891	28.98
574.087	29.04
574.284	29.12
574.48	29.13
574.677	29.11
574.873	29.1
575.069	29.18
575.266	29.22
575.462	29.22
575.658	29.18
575.854	29.19
576.051	29.21
576.247	29.17
576.443	29.26
576.639	29.29
576.835	29.27
577.032	29.22
577.228	29.25
577.424	29.26
577.62	29.21
577.816	29.18
578.012	29.2
578.208	29.19
578.404	29.13
578.6	29.08
578.796	29.17
578.993	29.15
579.189	29.11
579.384	29.09
579.58	29.14
579.776	29.06
579.972	29.06
580.168	29.08
580.364	29.19
580.56	29.3
580.756	29.22
580.952	29.17
581.148	29.11
581.343	28.96
581.539	28.86
581.735	28.91
581.931	28.87
582.127	28.89
582.322	28.95
582.518	28.75
582.714	28.69
582.909	28.71
583.105	28.73
583.301	28.62
583.496	28.69
583.692	28.64
583.888	28.66
584.083	28.62
584.279	28.62
584.474	28.63
584.67	28.69
584.866	28.63
585.061	28.62
585.257	28.55
585.452	28.65
585.648	28.64
585.843	28.63
586.039	28.57
586.234	28.6
586.429	28.51
586.625	28.53
586.82	28.45
587.015	28.45
587.211	28.39
587.406	28.3
587.601	28.26
587.797	28.31
587.992	28.24
588.187	28.37
588.383	28.49
588.578	28.45
588.773	28.43
588.968	28.5
589.163	28.44
589.359	28.44
589.554	28.52
589.749	28.54
589.944	28.57
590.139	28.65
590.334	28.6
590.529	28.65
590.724	28.69
590.919	28.76
591.114	28.86
591.309	28.94
591.504	28.9
591.699	28.91
591.894	28.91
592.089	28.9
592.284	28.99
592.479	29.14
592.674	29.32
592.869	29.44
593.064	29.48
593.259	29.5
593.454	29.51
593.648	29.52
593.843	29.47
594.038	29.57
594.233	29.69
594.428	29.79
594.622	29.96
594.817	30.13
595.012	30.24
595.206	30.34
595.401	30.5
595.596	30.46
595.79	30.54
595.985	30.51
596.18	30.49
596.374	30.5
596.569	30.64
596.763	30.66
596.958	30.84
597.153	30.99
597.347	31.13
597.542	31.16
597.736	31.34
597.931	31.3
598.125	31.29
598.319	31.4
598.514	31.47
598.708	31.53
598.903	31.73
599.097	31.87
599.291	31.87
599.486	32.01
599.68	32.14
599.874	32.16
600.069	32.25
600.263	32.29
600.457	32.32
600.651	32.3
600.846	32.41
601.04	32.57
601.234	32.63
601.428	32.66
601.622	32.71
601.817	32.69
602.011	32.66
602.205	32.71
602.399	32.74
602.593	32.78
602.787	32.87
602.981	32.82
603.175	32.89
603.369	32.84
603.563	32.87
603.757	32.82
603.951	32.77
604.145	32.79
604.339	32.87
604.533	32.85
604.727	32.8
604.921	32.87
605.115	32.7
605.309	32.73
605.502	32.63
605.696	32.62
605.89	32.45
606.084	32.44
606.278	32.2
606.471	32.28
606.665	32.24
606.859	32.27
607.053	32.21
607.246	32.31
607.44	32.1
607.634	31.99
607.827	31.81
608.021	31.75
608.214	31.52
608.408	31.45
608.602	31.31
608.795	31.42
608.989	31.31
609.182	31.37
609.376	31.36
609.569	31.23
609.763	30.98
609.956	30.92
610.15	30.77
610.343	30.68
610.537	30.76
610.73	30.73
610.923	30.62
611.117	30.49
611.31	30.26
611.504	30.19
611.697	30.09
611.89	30.03
612.083	29.99
612.277	30.01
612.47	29.86
612.663	29.85
612.856	29.82
613.05	29.72
613.243	29.63
613.436	29.42
613.629	29.31
613.822	29.11
614.015	29.05
614.209	28.89
614.402	28.96
614.595	28.82
614.788	28.74
614.981	28.71
615.174	28.66
615.367	28.46
615.56	28.42
615.753	28.35
615.946	28.13
616.139	28.1
616.332	28.06
616.525	28.05
616.718	27.94
616.911	27.94
617.103	27.82
617.296	27.76
617.489	27.52
617.682	27.47
617.875	27.39
618.067	27.28
618.26	27.31
618.453	27.34
618.646	27.28
618.838	27.18
619.031	27.24
619.224	27.1
619.417	27.09
619.609	27.09
619.802	27.05
619.994	26.87
620.187	26.81
620.38	26.75
620.572	26.73
620.765	26.77
620.957	26.76
621.15	26.73
621.342	26.62
621.535	26.51
621.727	26.39
621.92	26.34
622.112	26.24
622.305	26.27
622.497	26.27
622.69	26.19
622.882	26.15
623.074	26.15
623.267	26.09
623.459	26
623.651	25.98
623.844	26.01
624.036	25.99
624.228	25.89
624.42	25.96
624.613	25.98
624.805	25.99
624.997	25.98
625.189	26.04
625.381	26.03
625.574	25.97
625.766	25.88
625.958	25.77
626.15	25.71
626.342	25.63
626.534	25.62
626.726	25.57
626.918	25.55
627.11	25.46
627.302	25.33
627.494	25.24
627.686	25.23
627.878	25.22
628.07	25.26
628.262	25.25
628.454	25.2
628.646	25.13
628.838	25.21
629.029	25.04
629.221	25
629.413	24.88
629.605	24.86
629.797	24.69
629.989	24.73
630.18	24.69
630.372	24.75
630.564	24.76
630.755	24.7
630.947	24.67
631.139	24.62
631.33	24.51
631.522	24.4
631.714	24.3
631.905	24.27
632.097	24.22
632.289	24.22
632.48	24.22
632.672	24.16
632.863	24.1
633.055	24.1
633.246	24.11
633.438	24.05
633.629	24.2
633.821	24.21
634.012	24.21
634.203	24.13
634.395	24.12
634.586	24.01
634.777	23.9
634.969	23.83
635.16	23.86
635.351	23.82
635.543	23.76
635.734	23.88
635.925	23.86
636.117	23.88
636.308	23.85
636.499	23.89
636.69	23.8
636.881	23.91
637.073	23.85
637.264	23.91
637.455	23.84
637.646	23.82
637.837	23.75
638.028	23.74
638.219	23.59
638.41	23.52
638.601	23.54
638.792	23.46
638.983	23.46
639.174	23.5
639.365	23.55
639.556	23.49
639.747	23.44
639.938	23.42
640.129	23.46
640.32	23.44
640.511	23.47
640.701	23.45
640.892	23.4
641.083	23.34
641.274	23.33
641.465	23.3
641.655	23.33
641.846	23.3
642.037	23.23
642.228	23.16
642.418	23.13
642.609	23.02
642.8	22.93
642.99	22.9
643.181	22.92
643.372	22.89
643.562	22.95
643.753	23
643.943	22.94
644.134	22.83
644.324	22.82
644.515	22.73
644.705	22.65
644.896	22.6
645.086	22.58
645.277	22.45
645.467	22.39
645.658	22.31
645.848	22.26
646.038	22.3
646.229	22.28
646.419	22.23
646.61	22.27
646.8	22.33
646.99	22.27
647.18	22.23
647.371	22.19
647.561	22.1
647.751	22.09
647.941	22.08
648.132	22.09
648.322	22.09
648.512	22.13
648.702	22.14
648.892	22.07
649.082	21.98
649.272	21.91
649.462	21.81
649.653	21.7
649.843	21.62
650.033	21.56
650.223	21.55
650.413	21.59
650.603	21.62
650.793	21.6
650.983	21.67
651.172	21.57
651.362	21.48
651.552	21.32
651.742	21.31
651.932	21.23
652.122	21.21
652.312	21.13
652.502	21.04
652.691	20.83
652.881	20.66
653.071	20.45
653.261	20.33
653.45	20.19
653.64	20.19
653.83	20.03
654.019	20.02
654.209	19.88
654.399	19.82
654.588	19.59
654.778	19.55
654.968	19.46
655.157	19.3
655.347	19.13
655.536	18.98
655.726	18.71
655.915	18.51
656.105	18.35
656.294	18.15
656.484	17.97
656.673	17.97
656.863	17.75
657.052	17.67
657.241	17.48
657.431	17.29
657.62	17.04
657.809	16.73
657.999	16.38
658.188	16.18
658.377	15.89
658.567	15.66
658.756	15.51
658.945	15.32
659.134	15.12
659.324	15
659.513	14.75
659.702	14.57
659.891	14.38
660.08	14.13
660.269	13.93
660.458	13.62
660.648	13.47
660.837	13.22
661.026	13.02
661.215	12.78
661.404	12.65
661.593	12.3
661.782	12.07
661.971	11.85
662.16	11.71
662.349	11.49
662.538	11.37
662.726	11.28
662.915	11.17
663.104	11.01
663.293	10.83
663.482	10.63
663.671	10.47
663.86	10.25
664.048	10.15
664.237	9.91
664.426	9.94
664.615	9.74
664.803	9.58
664.992	9.38
665.181	9.34
665.369	9.14
665.558	9.07
665.747	9.05
665.935	8.98
666.124	8.84
666.312	8.74
666.501	8.62
666.69	8.48
666.878	8.35
667.067	8.39
667.255	8.22
667.444	8.25
667.632	8.13
667.82	8.02
668.009	7.92
668.197	7.85
668.386	7.82
668.574	7.86
668.762	7.79
668.951	7.76
669.139	7.8
669.327	7.59
669.516	7.58
669.704	7.55
669.892	7.59
670.08	7.54
670.269	7.6
670.457	7.53
670.645	7.49
670.833	7.41
671.021	7.48
671.21	7.43
671.398	7.45
671.586	7.51
671.774	7.51
671.962	7.47
672.15	7.48
672.338	7.49
672.526	7.53
672.714	7.5
672.902	7.5
673.09	7.53
673.278	7.61
673.466	7.61
673.654	7.76
673.842	7.81
674.03	7.83
674.218	7.77
674.405	7.69
674.593	7.55
674.781	7.57
674.969	7.61
675.157	7.61
675.344	7.79
675.532	7.81
675.72	7.88
675.908	7.93
676.095	8.05
676.283	8.05
676.471	8.19
676.658	8.28
676.846	8.34
677.033	8.32
677.221	8.36
677.409	8.37
677.596	8.32
677.784	8.39
677.971	8.44
678.159	8.6
678.346	8.76
678.534	8.89
678.721	8.97
678.909	9.11
679.096	9.18
679.283	9.22
679.471	9.27
679.658	9.39
679.846	9.49
680.033	9.63
680.22	9.74
680.408	9.85
680.595	10
680.782	10.13
680.969	10.22
681.157	10.42
681.344	10.59
681.531	10.72
681.718	10.89
681.905	11.03
682.093	11.13
682.28	11.29
682.467	11.43
682.654	11.61
682.841	11.77
683.028	11.96
683.215	12.11
683.402	12.28
683.589	12.56
683.776	12.8
683.963	13.03
684.15	13.47
684.337	13.76
684.524	14.01
684.711	14.25
684.898	14.57
685.085	14.83
685.271	15.08
685.458	15.37
685.645	15.87
685.832	16.28
686.019	16.55
686.205	17.01
686.392	17.24
686.579	17.62
686.766	17.94
686.952	18.37
687.139	18.86
687.326	19.52
687.512	20.02
687.699	20.6
687.886	21.17
688.072	21.69
688.259	22.06
688.445	22.41
688.632	22.91
688.818	23.39
689.005	23.97
689.191	24.73
689.378	25.54
689.564	26.29
689.751	27.02
689.937	27.79
690.124	28.29
690.31	29.05
690.496	29.56
690.683	30.31
690.869	30.92
691.055	31.76
691.242	32.21
691.428	33.02
691.614	33.71
691.8	34.53
691.987	35.13
692.173	35.84
692.359	36.7
692.545	37.4
692.731	38.1
692.918	38.98
693.104	39.84
693.29	40.43
693.476	41.25
693.662	41.91
693.848	42.68
694.034	43.47
694.22	44.28
694.406	44.96
694.592	45.82
694.778	46.67
694.964	47.39
695.15	48.21
695.336	49.06
695.522	49.79
695.708	50.54
695.894	51.13
696.08	51.71
696.265	52.3
696.451	52.92
696.637	53.58
696.823	54.58
697.009	55.62
697.194	56.31
697.38	56.82
697.566	57.49
697.751	57.75
697.937	57.9
698.123	58.62
698.308	59.49
698.494	60.06
698.68	60.9
698.865	61.84
699.051	62.26
699.236	62.77
699.422	63.36
699.607	63.8
699.793	64.51
699.978	65.19
700.164	66.14
700.349	66.78
700.535	67.41
700.72	67.72
700.906	68.12
701.091	68.16
701.276	68.28
701.462	69.12
701.647	69.16
701.832	69.59
702.018	70.11
702.203	70.88
702.388	70.98
702.573	71.76
702.759	72.04
702.944	72.36
703.129	72.82
703.314	73.12
703.499	73.88
703.684	74.73
703.87	75.05
704.055	75.36
704.24	75.73
704.425	75.6
704.61	75.79
704.795	76.28
704.98	76.58
705.165	77.01
705.35	77.61
705.535	78.14
705.72	78.28
705.905	78.65
706.09	78.8
706.275	79.08
706.459	79.11
706.644	79.54
706.829	79.46
707.014	79.75
707.199	80.14
707.384	80.13
707.568	80.28
707.753	80.92
707.938	81.02
708.123	81.06
708.307	81.32
708.492	81.76
708.677	81.6
708.861	81.85
709.046	81.93
709.231	82.4
709.415	82.77
709.6	83.16
709.784	83.53
709.969	83.78
710.153	83.84
710.338	84.1
710.522	84.27
710.707	84.47
710.891	84.71
711.076	84.9
711.26	84.89
711.445	84.74
711.629	84.65
711.813	84.32
711.998	84.77
712.182	84.74
712.366	85.22
712.551	85.91
712.735	86.72
712.919	86.39
713.103	86.74
713.288	86.66
713.472	86.35
713.656	86.16
713.84	86.54
714.024	86.61
714.208	86.47
714.393	86.44
714.577	86.2
714.761	85.9
714.945	85.93
715.129	86.52
715.313	86.59
715.497	86.65
715.681	87.07
715.865	86.89
716.049	86.78
716.233	86.4
716.417	86.87
716.601	86.94
716.785	87.51
716.968	87.59
717.152	88.46
717.336	88.77
717.52	88.94
717.704	89.07
717.888	88.92
718.071	88.75
718.255	88.76
718.439	88.97
718.622	88.81
718.806	88.95
718.99	89.02
719.174	88.91
719.357	88.79
719.541	88.85
719.724	89.2
719.908	89.28
720.092	88.95
720.275	88.94
720.459	88.58
720.642	88.95
720.826	89.34
721.009	89.65
721.193	89.99
721.376	89.87
721.559	89.68
721.743	89.29
721.926	89.62
722.11	89.2
722.293	89.53
722.476	89.36
722.66	89.4
722.843	89.27
723.026	89.3
723.21	89.23
723.393	89.2
723.576	89.62
723.759	89.8
723.942	90.05
724.126	90.29
724.309	90.23
724.492	90.14
724.675	90.34
724.858	90.18
725.041	89.95
725.224	90.23
725.407	90.25
725.59	89.88
725.774	90.39
725.957	90.65
726.14	91.01
726.322	91.23
726.505	91.81
726.688	91.75
726.871	92.09
727.054	92.16
727.237	92.41
727.42	92.05
727.603	91.9
727.786	91.36
727.968	91.01
728.151	90.82
728.334	90.6
728.517	90.67
728.699	91.12
728.882	91.39
729.065	91.15
729.248	91.94
729.43	92.22
729.613	92.41
729.796	92.56
729.978	92.99
730.161	93.14
730.343	92.91
730.526	92.94
730.708	92.62
730.891	92.51
731.073	91.86
731.256	92.53
731.438	92.58
731.621	93.05
731.803	93.13
731.986	93.09
732.168	92.75
732.35	92.26
732.533	92.07
732.715	91.73
732.898	92.34
733.08	91.89
733.262	91.96
733.444	92.22
733.627	92.27
733.809	91.71
733.991	91.8
734.173	92.06
734.355	90.93
734.538	91.62
734.72	92.08
734.902	92.21
735.084	92.51
735.266	93.34
735.448	93.25
735.63	92.65
735.812	92.89
735.994	92.13
736.176	91.88
736.358	92.16
736.54	92.83
736.722	92.71
736.904	93.02
737.086	93.09
737.268	92.38
737.45	91.85
737.632	92.21
737.814	91.93
737.995	91.88
738.177	92.02
738.359	91.98
738.541	91.58
738.723	91.78
738.904	92.33
739.086	92.86
739.268	94.35
739.449	94.88
739.631	95.28
739.813	94.68
739.994	94.47
740.176	92.71
740.358	92.47
740.539	92.03
740.721	92.46
740.902	93.15
741.084	93.81
741.265	93.82
741.447	94.37
741.628	93.94
741.81	92.84
741.991	93.11
742.172	93.24
742.354	93.17
742.535	94.36
742.717	94.7
742.898	94.95
743.079	94.85
743.261	94.92
743.442	94.06
743.623	93.73
743.804	93.26
743.986	92.58
744.167	93.06
744.348	93.44
744.529	92.81
744.71	92.28
744.891	93.15
745.073	93.11
745.254	92.98
745.435	93
745.616	94.05
745.797	93.55
745.978	93.38
746.159	93.55
746.34	93.93
746.521	92.74
746.702	92.36
746.883	92.42
747.064	91.76
747.245	92.26
747.426	92.88
747.606	93.68
747.787	93.74
747.968	93.56
748.149	93.04
748.33	92.95
748.51	92.48
748.691	92.21
748.872	92.54
749.053	93.68
749.233	93.56
749.414	93.08
749.595	92.88
749.775	92.46
749.956	91.59
750.137	91.35
750.317	92.9
750.498	92.84
750.678	93.06
750.859	93.2
751.04	93.23
751.22	92.78
751.4	93.99
751.581	94.71
751.761	95.24
751.942	96.83
752.122	96.86
752.303	96.11
752.483	95.93
752.663	95.5
752.844	93.69
753.024	93.78
753.204	93.35
753.385	93.45
753.565	92.36
753.745	92.99
753.925	93.32
754.106	93.98
754.286	93.45
754.466	93.75
754.646	93.15
754.826	92.6
755.006	90.83
755.187	91.81
755.367	92.04
755.547	91.91
755.727	91.43
755.907	92.32
756.087	90.29
756.267	91
756.447	91.58
756.627	90.74
756.807	89.48
756.987	91.28
757.167	91.35
757.346	92.47
757.526	92.54
757.706	94.62
757.886	94.11
758.066	93.93
758.246	92.48
758.425	92.93
758.605	92.68
758.785	91.85
758.965	91.58
759.144	91.89
759.324	92.35
759.504	92.32
759.683	91.92
759.863	92.29
760.043	91.32
760.222	91.32
760.402	91.13
760.581	91.54
760.761	91.3
760.94	92.01
761.12	90.43
761.299	90.32
761.479	90.93
761.658	90.39
761.838	89.9
762.017	90.82
762.197	88.92
762.376	89.23
762.555	89.03
762.735	90.26
762.914	89.8
763.093	92.5
763.273	91.58
763.452	92.11
763.631	91.04
763.81	91.16
763.99	89.79
764.169	89.87
764.348	88.97
764.527	88.81
764.706	89
764.885	89.75
765.064	89.06
765.243	90.45
765.423	91.88
765.602	91.61
765.781	91.08
765.96	91.38
766.139	90.38
766.318	89.36
766.497	89.82
766.676	90.94
766.854	91.47
767.033	93.27
767.212	93.31
767.391	92.84
767.57	90.97
767.749	90.68
767.928	88.48
768.106	88.17
768.285	88.09
768.464	89.43
768.643	89.37
768.821	89.81
769	90.17
769.179	91.41
769.357	90.63
769.536	89.56
769.715	89.83
769.893	90.27
770.072	89.08
770.25	88.58
770.429	89.52
770.607	89.17
770.786	86.97
770.964	87.89
771.143	88.85
771.321	89.23
771.5	90.02
771.678	91.52
771.857	91.11
772.035	89.48
772.213	88.96
772.392	87.18
772.57	86.94
772.748	86.56
772.927	87.47
773.105	89.19
773.283	90.14
773.461	90.16
773.64	90.08
773.818	90.66
773.996	89.63
774.174	88.55
774.352	86.35
774.531	86.51
774.709	85.87
774.887	85.63
775.065	87.36
775.243	89.08
775.421	87.58
775.599	87.57
775.777	86.47
775.955	83.64
776.133	85.09
776.311	86.96
776.489	86.07
776.667	85.52
776.844	90.19
777.022	88.53
777.2	88.57
777.378	88.18
777.556	88.96
777.734	85.72
777.911	86.52
778.089	88.18
778.267	87.92
778.445	88.7
778.622	89.48
778.8	89.48
778.978	87.21
779.155	88.26
779.333	88.99
779.511	87.31
779.688	86.17
779.866	88.47
780.043	88.51
780.221	87.32
780.398	89.94
780.576	90.22
780.753	85.94
780.931	88.99
781.108	89.92
781.286	87.63
781.463	86.59
781.64	87.53
781.818	85.92
781.995	82.2
782.172	82.77
782.35	83.81
782.527	83.14
782.704	80.1
782.882	83.35
783.059	82.65
783.236	83.87
783.413	86.14
783.59	89.68
783.768	88.4
783.945	87.43
784.122	85.59
784.299	83.38
784.476	80.04
784.653	80.94
784.83	84.12
785.007	85.16
785.184	86.39
785.361	86.54
785.538	86.87
785.715	85.22
785.892	85.91
786.069	83.69
786.246	87.83
786.423	86.86
786.6	89.96
786.776	88.7
786.953	90.1
787.13	86.55
787.307	85.03
787.484	80.78
787.66	82.26
787.837	81.45
788.014	80.96
788.191	79.98
788.367	79.82
788.544	78.12
788.721	80.2
788.897	80.93
789.074	82.49
789.25	86.35
789.427	85.92
789.603	88.45
789.78	88.41
789.956	89.52
790.133	86.37
790.309	89.38
790.486	83.88
790.662	84.8
790.839	83.1
791.015	83.33
791.192	78.09
791.368	80.21
791.544	80
791.721	82.6
791.897	80.19
792.073	81.79
792.249	82.84
792.426	80.67
792.602	81.99
792.778	83.74
792.954	88.32
793.13	85.89
793.307	86.95
793.483	86.07
793.659	86.94
793.835	82.28
794.011	84.27
794.187	83.9
794.363	78.43
794.539	78.69
794.715	81.39
794.891	79.46
795.067	78.5
795.243	81.17
795.419	80.07
795.595	80.16
795.771	83
795.947	86.54
796.122	83.19
796.298	84.93
796.474	85.98
796.65	84
796.826	81.54
797.001	84.26
797.177	82.2
797.353	76.76
797.529	76.72
797.704	78.19
797.88	79.34
798.056	83.57
798.231	89.02
798.407	92.9
798.582	94.48
798.758	94.56
798.934	91.35
799.109	88.81
799.285	86.33
799.46	82.57
799.636	80.82
799.811	81.7
799.986	80.65
800.162	76.98
800.337	78.86
800.513	78.59
800.688	75.99
800.863	77.19
801.039	81.27
801.214	81.48
801.389	86.3
801.565	90.56
801.74	87.24
801.915	86.78
802.09	86.7
802.265	83.35
802.441	77.88
802.616	83.19
802.791	81.18
802.966	81.44
803.141	80.48
803.316	81.65
803.491	79.16
803.666	79.57
803.841	73.44
804.016	73.19
804.191	74.39
804.366	74.75
804.541	71.45
804.716	77.7
804.891	83.57
805.066	82.05
805.241	78.27
805.416	81.09
805.591	77.13
805.765	67.56
805.94	71.27
806.115	71.17
806.29	73.02
806.464	80.22
806.639	81.69
806.814	82.7
806.989	87.24
807.163	85.69
807.338	82.39
807.512	82.08
807.687	78.36
807.862	77.65
808.036	75.58
808.211	72.63
808.385	73
808.56	73.91
808.734	65.02
808.909	63.84
809.083	67.57
809.258	69.48
809.432	72.99
809.606	77.28
809.781	77.88
809.955	76.28
810.13	78.03
810.304	73.42
810.478	77.97
810.652	75.2
810.827	78.09
811.001	72.06
811.175	75.06
811.349	74.5
811.524	77.44
811.698	72.21
811.872	78.38
812.046	78.95
812.22	82.79
812.394	82.54
812.568	84.96
812.742	75.85
812.916	74.39
813.09	71.31
813.264	73.73
813.438	73.25
813.612	85.99
813.786	84.35
813.96	88.87
814.134	92.84
814.308	95.75
814.482	80.46
814.656	82.95
814.83	75.89
815.003	74.64
815.177	74.38
815.351	78.41
815.525	75.19
815.698	81.27
815.872	83.67
816.046	80.73
816.219	84.64
816.393	90.59
816.567	98.95
816.74	96.69
816.914	97.7
817.088	100.26
817.261	90.32
817.435	71.96
817.608	72.78
817.782	69.81
817.955	67.52
818.129	75.18
818.302	90.63
818.475	84.57
818.649	90.26
818.822	89.1
818.996	86.86
819.169	77.8
819.342	80.63
819.516	83.87
819.689	80.61
819.862	73.9
820.035	79.57
820.209	73.28
820.382	76.51
820.555	80.78
820.728	82.31
820.901	80.77
821.075	78.37
821.248	67.04
821.421	69.41
821.594	63.25
821.767	67.69
821.94	74.8
822.113	80.05
822.286	84.59
822.459	94.75
822.632	90.07
822.805	82.52
822.978	71.1
823.151	63.73
823.324	70.37
823.496	68.48
823.669	71
823.842	79.64
824.015	81.92
824.188	74.26
824.361	79.72
824.533	79.93
824.706	79.7
824.879	67.43
825.051	67.12
825.224	63.59
825.397	56.47
825.569	62.61
825.742	74.22
825.915	78.98
826.087	71.82
826.26	75.82
826.432	67.22
826.605	72.03
826.777	79.56
826.95	85.58
827.122	85.26
827.295	86.9
827.467	79.52
827.64	67.88
827.812	77.45
827.984	82.39
828.157	81.71
828.329	78.23
828.501	76.43
828.674	64.92
828.846	57.18
829.018	62.92
829.19	55.88
829.363	54.61
829.535	51.99
829.707	58.69
829.879	46.22
830.051	56.97
830.223	54.69
830.395	55.01
830.568	53.02
830.74	70.74
830.912	81.24
831.084	84.09
831.256	86.02
831.428	78.53
831.6	61.42
831.772	61.85
831.943	68.2
832.115	69.86
832.287	76.38
832.459	83.29
832.631	72.42
832.803	66.6
832.975	76.52
833.146	76.16
833.318	70.36
833.49	77.13
833.662	79
833.833	68.44
834.005	64.51
834.177	70.44
834.348	67.31
834.52	63.07
834.692	55.26
834.863	63.24
835.035	58.53
835.206	50.77
835.378	55.06
835.549	62.31
835.721	60.63
835.892	59.11
836.064	64.88
836.235	60.27
836.407	73.58
836.578	64.9
836.749	71.58
836.921	63.97
837.092	69.3
837.264	50.38
837.435	60.51
837.606	68.59
837.777	81.78
837.949	86.86
838.12	78.19
838.291	72.12
838.462	57.53
838.633	52.56
838.805	49.51
838.976	56.98
839.147	56.54
839.318	55.45
839.489	60.24
839.66	59
839.831	54.85
840.002	50.79
840.173	51.46
840.344	36.37
840.515	28.34
840.686	13.7
840.857	37.9
841.028	45.25
841.199	68.96
841.369	85.79
841.54	81.96
841.711	67.03
841.882	58.57
842.053	35.68
842.223	24.86
842.394	25.09
842.565	29.74
842.736	58.68
842.906	91.73
843.077	107.72
843.248	86.05
843.418	79.28
843.589	60.19
843.759	41.69
843.93	36.24
844.101	51.8
844.271	47.23
844.442	49.81
844.612	60.12
844.783	62.95
844.953	58.76
845.123	71.28
845.294	60.92
845.464	57.85
845.635	44.56
845.805	38.4
845.975	35.34
846.146	43.6
846.316	38.37
846.486	55.42
846.656	78.97
846.827	78.72
846.997	78.93
847.167	77.32
847.337	79.81
847.507	56.91
847.677	45.9
847.848	46.25
848.018	51.56
848.188	56.74
848.358	57.57
848.528	60.24
848.698	69.8
848.868	57.3
849.038	45.09
849.208	55.08
849.378	66.69
849.548	49.87
849.718	55.77
849.887	60.61
850.057	74.67
850.227	67.79
850.397	66.29
850.567	75.89
850.737	56.76
850.906	50.33
851.076	51.61
851.246	81.31
851.415	76.99
851.585	110.21
851.755	101.75
851.924	80.15
852.094	36.73
852.264	33.62
852.433	33.88
852.603	9.6
852.772	24.9
852.942	33.03
853.111	43.42
853.281	52.02
853.45	64.56
853.62	64.48
853.789	64.27
853.959	59.34
854.128	53.06
854.297	52.54
854.467	50.21
854.636	48.15
854.805	48.47
854.975	15.09
855.144	10.59
855.313	23.46
855.482	46.15
855.652	43.26
855.821	63.67
855.99	64.11
856.159	69.31
856.328	65.65
856.497	58.65
856.667	69.26
856.836	72.22
857.005	71.85
857.174	69.7
857.343	81.14
857.512	67.31
857.681	52.99
857.85	63.73
858.019	6.85
858.188	-7.84
858.356	-14.81
858.525	32.52
858.694	-8.05
858.863	31.97
859.032	58.87
859.201	73.76
859.369	65.43
859.538	69.86
859.707	63.53
859.876	43.08
860.044	50.99
860.213	52.62
860.382	53.26
860.55	63.02
860.719	60.27
860.888	63.54
861.056	76.29
861.225	92.67
861.393	95.5
861.562	93.4
861.73	62
861.899	43.73
862.067	50.64
862.236	40.34
862.404	43.69
862.572	51.2
862.741	58.59
862.909	54.99
863.078	60.03
863.246	69.3
863.414	67.13
863.582	46.79
863.751	46.71
863.919	47.92
864.087	77.82
864.255	83.19
864.424	134.88
864.592	116.8
864.76	140.6
864.928	184.27
865.096	154.64
865.264	148.23
865.432	230.82
865.6	144.4
865.768	86.16
865.936	92.21
866.104	91.65
866.272	74.92
866.44	57.59
866.608	70.66
866.776	38.7
866.944	40.24
867.112	34.83
867.28	29.63
867.448	23.71
867.615	38.28
867.783	38.38
867.951	53.31
868.119	62.48
868.286	43.86
868.454	44.52
868.622	22.95
868.789	12.85
868.957	24.67
869.125	4.5
869.292	17.36
869.46	32.86
869.627	57.62
869.795	38.08
869.963	47.56
870.13	54.26
870.298	31.06
870.465	15.65
870.632	35.89
870.8	45.69
870.967	41.28
871.135	51.75
871.302	48.06
871.469	45.26
871.637	33.44
871.804	-14.18
871.971	50.54
872.139	66.44
872.306	56.18
872.473	38.13
872.64	43.24
872.807	25.68
872.975	25.05
873.142	6.79
873.309	34.13
873.476	26.01
873.643	103.93
873.81	80.08
873.977	97.28
874.144	55.96
874.311	66.53
874.478	53.52
874.645	64.26
874.812	62.43
874.979	84.19
875.146	74.12
875.313	95.49
875.48	97.91
875.647	105.22
875.813	95.13
875.98	89.26
876.147	76.94
876.314	82.48
876.481	52.01
876.647	43.85
876.814	38.57
876.981	50.77
877.147	52.41
877.314	66.3
877.481	87.77
877.647	111.33
877.814	93.82
877.98	66.86
878.147	74.64
878.314	57.49
878.48	63.55
878.647	54.47
878.813	58.03
878.979	40.54
879.146	25.2
879.312	48.48
879.479	74.44
879.645	68.23
879.811	71.47
879.978	102.39
880.144	69.37
880.31	57.74
880.477	57.92
880.643	37.81
880.809	26.8
880.975	26.43
881.142	38.08
881.308	0.17
881.474	33.29
881.64	59.02
881.806	56.09
881.972	62.74
882.138	71.89
882.304	127.74
882.47	92.52
882.636	207.63
882.802	-11.74
882.968	-477.37
883.134	-95.29
883.3	11.09
883.466	-23.12
883.632	79.71
883.798	138.5
883.964	63.04
884.129	22.1
884.295	28.61
884.461	-22.05
884.627	-23.64
884.793	-2.72
884.958	25.1
885.124	59.83
885.29	63.76
885.455	53.12
885.621	66.97
885.787	48.41
885.952	17.04
886.118	10.58
886.283	29.9
886.449	2.29
886.614	9.29
886.78	17.04
886.945	49.54
887.111	50.16
887.276	82.13
887.442	79.78
887.607	72.96
887.773	64.18
887.938	76.66
888.103	58.11
888.269	41.85
888.434	46.29
888.599	23.68
888.764	34.28
888.93	43.43
889.095	65.36
889.26	65.49
889.425	50.06
889.59	30.4
889.756	44.16
889.921	18.67
890.086	26.54
890.251	46.82
890.416	66.85
890.581	72.75
890.746	105.46
890.911	104.66
891.076	101.19
891.241	65.35
891.406	63.77
891.571	42.89
891.736	77.79
891.901	60.37
892.065	76.72
892.23	111.86
892.395	94.42
892.56	56.33
892.725	47.94
892.889	57.66
893.054	39.35
893.219	86.75
893.384	148.34
893.548	178.12
893.713	190.35
893.878	188.84
