Data from Ofra_PS_Phys_0CX5_Reflection_1.txt Node
Date: Tue Jul 20 14:43:22 EDT 2021
User: USUARIO
Spectrometer: FLMT01687
Trigger mode: 0
Integration Time (sec): 1.200000E0
Scans to average: 2
Electric dark correction enabled: true
Nonlinearity correction enabled: false
Boxcar width: 2
XAxis mode: Wavelengths
Number of Pixels in Spectrum: 3648
>>>>>Begin Spectral Data<<<<<
179.494	66.07
179.716	519.7
179.937	-250.26
180.158	-16.79
180.38	29.08
180.601	29.57
180.823	376.95
181.044	250.59
181.265	-22.82
181.486	30.65
181.708	-83.9
181.929	-40.85
182.15	170.91
182.372	-279.67
182.593	87.82
182.814	-4453.33
183.035	-218
183.257	-29.99
183.478	-34.36
183.699	21.92
183.92	11.85
184.141	54.55
184.363	49.42
184.584	45.77
184.805	14.4
185.026	35.68
185.247	26.87
185.468	30.27
185.689	35.47
185.91	46
186.132	49.58
186.353	43.57
186.574	34.07
186.795	39.76
187.016	47.45
187.237	39.12
187.458	33.49
187.679	45.1
187.9	42.04
188.121	25.91
188.342	43.06
188.563	65.04
188.784	57.99
189.005	56.16
189.226	38.64
189.447	23.41
189.667	22.18
189.888	26.24
190.109	28.34
190.33	38.23
190.551	43.31
190.772	27.9
190.993	26.13
191.214	13.52
191.434	15.04
191.655	7.68
191.876	13.56
192.097	-5.57
192.318	15.02
192.538	27.06
192.759	28.4
192.98	34.52
193.201	39.97
193.421	36.65
193.642	41.52
193.863	40.91
194.083	49.49
194.304	52.77
194.525	54.66
194.745	50.57
194.966	50.13
195.187	41.34
195.407	38.39
195.628	16.98
195.848	6.39
196.069	16.29
196.29	14
196.51	36.16
196.731	35.02
196.951	34.09
197.172	24.79
197.392	20.17
197.613	-5.76
197.833	0.5
198.054	11.48
198.274	0.55
198.495	-1.49
198.715	-2.41
198.936	2.36
199.156	-25.37
199.377	-59.96
199.597	-37.89
199.817	-10.49
200.038	-15.36
200.258	2.3
200.479	25.2
200.699	27.23
200.919	39.37
201.14	56.82
201.36	50.47
201.58	56.04
201.801	39.43
202.021	42.63
202.241	32.27
202.461	35.92
202.682	28.9
202.902	48.98
203.122	34.63
203.342	35.48
203.563	21.65
203.783	21.49
204.003	0.37
204.223	5.79
204.443	-0.31
204.663	12.76
204.884	6.86
205.104	27.89
205.324	34.39
205.544	31.21
205.764	30.17
205.984	30.03
206.204	6.86
206.424	6.96
206.644	-12.93
206.864	-12.83
207.084	-8.68
207.304	8.02
207.525	0.07
207.745	5.58
207.964	-3.23
208.184	3.01
208.404	-8.37
208.624	7.28
208.844	25.37
209.064	50.81
209.284	39.14
209.504	32.48
209.724	24.46
209.944	29.95
210.164	35.93
210.384	49.29
210.604	45.6
210.823	47.03
211.043	46.17
211.263	18.96
211.483	10.15
211.703	18.84
211.922	18.5
212.142	22.03
212.362	19.23
212.582	11.84
212.801	35.85
213.021	38.9
213.241	28.34
213.461	25.91
213.68	28.89
213.9	26.07
214.12	15.82
214.339	24.35
214.559	36.37
214.779	48.44
214.998	42.75
215.218	32.71
215.438	31.45
215.657	32.92
215.877	27.46
216.096	12.49
216.316	25.05
216.535	15.96
216.755	28.69
216.974	26.56
217.194	41.31
217.413	44.37
217.633	50.86
217.852	52.9
218.072	45.48
218.291	48.94
218.511	45.74
218.73	31.59
218.95	37.45
219.169	33.43
219.389	24.37
219.608	26.75
219.827	60.11
220.047	57.03
220.266	76.76
220.485	90.74
220.705	92.62
220.924	56.71
221.143	53.15
221.363	45.15
221.582	39.04
221.801	12.18
222.021	13.54
222.24	3.71
222.459	3.12
222.678	2.44
222.897	19.91
223.117	20.11
223.336	19.42
223.555	17.66
223.774	29.13
223.993	22.41
224.213	20.11
224.432	29.09
224.651	39.79
224.87	21.94
225.089	30.53
225.308	38.94
225.527	27.4
225.746	3.29
225.965	17.79
226.184	11.41
226.404	-3.95
226.623	10.62
226.842	14.98
227.061	18.81
227.28	29.39
227.499	34.34
227.718	37.87
227.936	44.5
228.155	41.77
228.374	33.8
228.593	37.26
228.812	26.62
229.031	26.51
229.25	27.3
229.469	24.42
229.688	16.62
229.907	23.82
230.125	17.25
230.344	10.92
230.563	17.18
230.782	18.45
231.001	5.02
231.22	12.53
231.438	1
231.657	2.99
231.876	18.25
232.095	33.32
232.313	41.16
232.532	53.14
232.751	52.48
232.969	37.86
233.188	31.18
233.407	20.64
233.625	0.77
233.844	9.95
234.063	21.88
234.281	27.21
234.5	41.55
234.719	41.57
234.937	38.72
235.156	41.81
235.374	41.84
235.593	32.52
235.811	44.62
236.03	46.46
236.249	42.68
236.467	38.97
236.686	30.68
236.904	22.63
237.123	16.2
237.341	9.36
237.559	25.87
237.778	41.45
237.996	45.68
238.215	51.98
238.433	50.31
238.652	27.84
238.87	11.09
239.088	-5.35
239.307	-2.62
239.525	-26.33
239.743	7.83
239.962	3.44
240.18	19.16
240.398	5.73
240.617	21.18
240.835	20.9
241.053	24.69
241.271	26.15
241.49	34.66
241.708	39.04
241.926	48.31
242.144	60.5
242.363	74.07
242.581	81.33
242.799	70.03
243.017	51.84
243.235	42.26
243.453	33.18
243.672	37.6
243.89	44.43
244.108	55.24
244.326	50.97
244.544	40.79
244.762	25.77
244.98	3.85
245.198	9.96
245.416	25.83
245.634	40.93
245.852	56.75
246.07	77.91
246.288	75.02
246.506	65.66
246.724	66.1
246.942	39.27
247.16	32.23
247.378	24.94
247.596	23.16
247.814	18.74
248.032	20.21
248.25	25.62
248.468	35.84
248.685	31.28
248.903	41.52
249.121	61.89
249.339	56.95
249.557	41.48
249.775	55.01
249.992	26.99
250.21	13.47
250.428	14.2
250.646	7.49
250.863	8.89
251.081	22.23
251.299	20.85
251.517	26.71
251.734	34.72
251.952	23.87
252.17	12.44
252.387	17.17
252.605	23.19
252.823	26.01
253.04	39.64
253.258	53.98
253.475	55.95
253.693	57.24
253.911	59.01
254.128	49.42
254.346	38.24
254.563	18.16
254.781	6.61
254.998	-13.26
255.216	-12.5
255.433	12.75
255.651	29.83
255.868	41.49
256.086	37.33
256.303	45.92
256.521	46.61
256.738	45.2
256.956	21.72
257.173	24.45
257.39	20.97
257.608	6.73
257.825	-4.71
258.043	20.29
258.26	31.93
258.477	19.4
258.695	14.25
258.912	26.03
259.129	25.53
259.346	12.19
259.564	6.87
259.781	-3.52
259.998	15.38
260.216	0.68
260.433	17.3
260.65	29.81
260.867	45.9
261.084	21.02
261.302	38.09
261.519	28.23
261.736	24.61
261.953	22.74
262.17	39.23
262.387	30.51
262.604	41.26
262.822	47.17
263.039	39.3
263.256	25.9
263.473	37.86
263.69	27.78
263.907	12.24
264.124	28.36
264.341	44.69
264.558	38.07
264.775	36.66
264.992	36.88
265.209	29.72
265.426	33.46
265.643	32.23
265.86	33.9
266.077	37.74
266.294	37.2
266.51	23.22
266.727	27.27
266.944	21.71
267.161	19.84
267.378	18.12
267.595	20.07
267.812	13.77
268.028	17.54
268.245	34.35
268.462	28.15
268.679	20.22
268.896	16.73
269.112	33.32
269.329	25.1
269.546	15.42
269.763	37.41
269.979	43.05
270.196	31.69
270.413	32.16
270.629	54.39
270.846	32.99
271.063	18.68
271.279	29.18
271.496	19.81
271.712	24.09
271.929	35.28
272.146	49.96
272.362	32.59
272.579	34.44
272.795	30.75
273.012	29.55
273.228	22.88
273.445	25.78
273.661	32.35
273.878	15.36
274.094	8.75
274.311	1.77
274.527	11.76
274.744	3.61
274.96	14.34
275.177	6.7
275.393	15.22
275.609	10.74
275.826	15.45
276.042	17.64
276.259	19.89
276.475	14.95
276.691	6.32
276.908	4.24
277.124	14.63
277.34	25.46
277.557	29.63
277.773	35.44
277.989	40.35
278.205	30.58
278.422	25.06
278.638	23.77
278.854	24.83
279.07	25.49
279.286	35.28
279.503	39.04
279.719	42.68
279.935	36.75
280.151	35.93
280.367	36.68
280.583	44.55
280.799	38.61
281.016	52.24
281.232	55.01
281.448	53.59
281.664	51.97
281.88	57.34
282.096	44.1
282.312	47.2
282.528	49.6
282.744	52.04
282.96	41.74
283.176	40.33
283.392	23.23
283.608	9.55
283.824	8.64
284.04	6.52
284.256	9.15
284.471	12.84
284.687	16.66
284.903	3.2
285.119	10.02
285.335	24.33
285.551	25.14
285.767	13.93
285.982	21.01
286.198	23.91
286.414	13.3
286.63	20.57
286.846	17.89
287.061	15.09
287.277	-9.49
287.493	-4.74
287.709	-8.41
287.924	7.08
288.14	2.74
288.356	13.24
288.571	14.89
288.787	3.84
289.003	7.5
289.218	15.07
289.434	22.83
289.65	24.37
289.865	25.68
290.081	25.83
290.296	14.93
290.512	-5.38
290.727	-16.69
290.943	-15.41
291.159	-15.46
291.374	-7.4
291.59	1.22
291.805	5.08
292.021	22.99
292.236	33.22
292.451	30.67
292.667	38.92
292.882	41.94
293.098	24.25
293.313	23.4
293.529	27.36
293.744	16.58
293.959	11.69
294.175	23.53
294.39	12.87
294.605	12.78
294.821	13.55
295.036	20.84
295.251	29.65
295.467	35.89
295.682	43.37
295.897	48.24
296.112	48.3
296.328	27.87
296.543	24.67
296.758	17.15
296.973	11.87
297.188	8.22
297.404	20.57
297.619	16.55
297.834	22.77
298.049	12.72
298.264	17.04
298.479	21.95
298.694	26.21
298.909	19.54
299.125	53.69
299.34	39.82
299.555	45.62
299.77	52.38
299.985	47.62
300.2	22.74
300.415	23.88
300.63	14.65
300.845	11.75
301.06	12.45
301.275	20.61
301.49	17.87
301.704	17.34
301.919	17.93
302.134	24.2
302.349	17.8
302.564	19.68
302.779	11.04
302.994	10.23
303.209	9.97
303.423	26.46
303.638	27.56
303.853	49.34
304.068	48.85
304.283	33.26
304.497	18.39
304.712	22.09
304.927	28.52
305.142	16.09
305.356	10.95
305.571	17.9
305.786	35.65
306	16.54
306.215	36.09
306.43	35.87
306.644	54.24
306.859	44.75
307.074	46.09
307.288	47.45
307.503	45.87
307.717	41.06
307.932	31.66
308.147	36.55
308.361	43.29
308.576	45.79
308.79	42.12
309.005	44.96
309.219	45.15
309.434	30.46
309.648	30.64
309.863	12.28
310.077	4.64
310.292	10.08
310.506	11.28
310.72	19.58
310.935	41.7
311.149	53.78
311.364	37.14
311.578	46.17
311.792	40.96
312.007	32.05
312.221	31.45
312.435	36
312.649	32.93
312.864	45.58
313.078	56.4
313.292	45.36
313.507	51.66
313.721	38.41
313.935	16.4
314.149	0.44
314.363	-1.34
314.578	-13.24
314.792	-15.63
315.006	-13.71
315.22	-9.81
315.434	3.58
315.648	11.7
315.862	16.84
316.077	16.58
316.291	24.8
316.505	23.29
316.719	25.54
316.933	28.02
317.147	29.77
317.361	13.64
317.575	16
317.789	22.11
318.003	12.02
318.217	14.26
318.431	18.56
318.645	13.17
318.859	2.75
319.073	19.44
319.287	9.41
319.5	11.46
319.714	16.51
319.928	29.42
320.142	27.74
320.356	27.06
320.57	36.29
320.784	43.25
320.997	45.7
321.211	45.6
321.425	50.32
321.639	35.76
321.853	39.66
322.066	14.23
322.28	-8.03
322.494	12.72
322.707	16.28
322.921	9.39
323.135	14.22
323.349	23.62
323.562	21.05
323.776	24.04
323.989	25.85
324.203	25.69
324.417	26.76
324.63	13.61
324.844	15.79
325.057	14.72
325.271	13.39
325.485	9.65
325.698	15.19
325.912	17.67
326.125	8.83
326.339	11.35
326.552	1.18
326.766	7.52
326.979	4.5
327.193	12.43
327.406	18.46
327.619	12.75
327.833	19.74
328.046	18.31
328.26	18.99
328.473	22.53
328.686	50.16
328.9	37.4
329.113	36.08
329.326	28.47
329.54	28.72
329.753	25.46
329.966	40.55
330.179	47.01
330.393	52.64
330.606	41.47
330.819	32.74
331.032	21.61
331.246	16.98
331.459	24.1
331.672	20.66
331.885	25.22
332.098	27.8
332.311	24.19
332.525	3.94
332.738	19.35
332.951	19.54
333.164	15.5
333.377	21.14
333.59	36.03
333.803	25.03
334.016	18.95
334.229	28.66
334.442	28.62
334.655	16.45
334.868	31.83
335.081	34.41
335.294	28.08
335.507	17.02
335.72	26.68
335.933	18.28
336.146	23.48
336.359	26.54
336.572	35.64
336.785	23.63
336.997	22.55
337.21	13.26
337.423	9.11
337.636	-3.81
337.849	18.92
338.062	26.48
338.274	28.71
338.487	25.22
338.7	35.13
338.913	15.4
339.125	8.45
339.338	-6.21
339.551	-0.58
339.763	-13.27
339.976	10.97
340.189	3.45
340.402	20.72
340.614	27.51
340.827	31.68
341.039	15.91
341.252	32.34
341.465	32.79
341.677	24.56
341.89	21.07
342.102	28.89
342.315	28.63
342.527	32.43
342.74	36.93
342.952	50.34
343.165	43.13
343.377	38.67
343.59	26.79
343.802	28.08
344.015	16.72
344.227	19.45
344.44	21.4
344.652	32.83
344.864	19.58
345.077	8.2
345.289	21.43
345.502	19.23
345.714	7.68
345.926	15.45
346.139	27.8
346.351	18.53
346.563	25.49
346.775	30.85
346.988	23.37
347.2	9.65
347.412	19.87
347.624	21.74
347.837	18.55
348.049	21.05
348.261	27.06
348.473	25.27
348.685	19.32
348.897	18.87
349.11	17.48
349.322	22.48
349.534	19.07
349.746	18.05
349.958	24.49
350.17	30.84
350.382	17.23
350.594	15.34
350.806	16.7
351.018	19.95
351.23	17.86
351.442	30.41
351.654	22.88
351.866	30.54
352.078	25.54
352.29	15.15
352.502	18.8
352.714	18.7
352.926	19.84
353.138	24
353.35	27.79
353.561	22.4
353.773	35.17
353.985	27.44
354.197	21.29
354.409	34.07
354.621	35.41
354.832	23.75
355.044	23.37
355.256	20.48
355.468	-5.82
355.679	-0.27
355.891	8.86
356.103	22.62
356.314	17.45
356.526	26.17
356.738	23.62
356.949	23.6
357.161	18.69
357.373	26.44
357.584	31.28
357.796	33.36
358.008	23.07
358.219	17.56
358.431	16.88
358.642	29.42
358.854	29.81
359.065	36.15
359.277	31.67
359.488	29.78
359.7	18.01
359.911	7.79
360.123	1.79
360.334	8.6
360.546	3.21
360.757	11.7
360.969	13.92
361.18	19.47
361.391	18.13
361.603	18.11
361.814	5.73
362.025	9.81
362.237	12.19
362.448	13.41
362.659	12.58
362.871	14.97
363.082	14.24
363.293	8.94
363.504	-4.2
363.716	5.62
363.927	-11.16
364.138	-8.82
364.349	-8.39
364.56	-4.8
364.772	-8.22
364.983	13.03
365.194	15.71
365.405	22
365.616	22.04
365.827	18.13
366.038	12.68
366.25	9.43
366.461	6.6
366.672	15.45
366.883	21.74
367.094	29.25
367.305	29.76
367.516	34.81
367.727	27.88
367.938	32.16
368.149	24.01
368.36	19.33
368.571	17.46
368.781	20.16
368.992	16.71
369.203	8.91
369.414	9.27
369.625	16.2
369.836	19.83
370.047	19.41
370.258	28.92
370.468	35.71
370.679	30.76
370.89	26.44
371.101	31.85
371.312	21.52
371.522	13.8
371.733	10.49
371.944	16.57
372.155	18.99
372.365	23.06
372.576	25.95
372.787	30.69
372.997	33.08
373.208	21.96
373.419	23.55
373.629	22.08
373.84	25.57
374.05	24.34
374.261	29.56
374.472	28.69
374.682	27.82
374.893	27.64
375.103	23.02
375.314	26.16
375.524	23.28
375.735	27.42
375.945	29.44
376.156	26
376.366	11.5
376.577	9.41
376.787	9.66
376.997	3.1
377.208	13.78
377.418	18.3
377.629	26.76
377.839	26.52
378.049	29.28
378.26	26.01
378.47	26.47
378.68	36.66
378.89	33.12
379.101	21.22
379.311	24.44
379.521	27.23
379.732	17.3
379.942	8.01
380.152	8.99
380.362	8.07
380.572	12.97
380.783	21.07
380.993	44.4
381.203	43.44
381.413	45.5
381.623	38.74
381.833	37.9
382.043	22.18
382.253	16.8
382.463	8.83
382.674	11.87
382.884	8.05
383.094	14.13
383.304	28.51
383.514	29.33
383.724	33.73
383.934	32.73
384.144	32.78
384.353	20.96
384.563	14.79
384.773	14.17
384.983	17.84
385.193	20.6
385.403	23.47
385.613	28.11
385.823	18.76
386.033	16.99
386.242	16.46
386.452	16.07
386.662	13.85
386.872	18.47
387.082	13.32
387.291	9.99
387.501	11.19
387.711	12.9
387.921	13.45
388.13	14.38
388.34	19.21
388.55	17.71
388.759	14.74
388.969	11.85
389.179	15.41
389.388	10.63
389.598	9.16
389.807	8.5
390.017	9.07
390.227	6.35
390.436	6.13
390.646	6.68
390.855	7.37
391.065	9.49
391.274	11.03
391.484	12.28
391.693	11.11
391.903	12.9
392.112	10.48
392.322	8.24
392.531	9.07
392.74	10.81
392.95	8.92
393.159	9.6
393.369	10.15
393.578	8.38
393.787	7.85
393.997	7.54
394.206	7.21
394.415	8.66
394.625	9.94
394.834	10.17
395.043	9.98
395.252	10.39
395.462	9.39
395.671	7.65
395.88	5.72
396.089	6.05
396.298	5.64
396.508	6.32
396.717	7.15
396.926	7.91
397.135	7.42
397.344	7.43
397.553	7.11
397.762	6.99
397.971	6.59
398.181	6.35
398.39	6.01
398.599	5.34
398.808	4.81
399.017	5.22
399.226	5.72
399.435	6.17
399.644	5.77
399.853	6.17
400.062	5.95
400.27	5.39
400.479	4.67
400.688	5.54
400.897	5.76
401.106	6.14
401.315	6.48
401.524	6.66
401.733	6.5
401.941	6.36
402.15	6.15
402.359	5.92
402.568	5.96
402.777	5.58
402.985	5.61
403.194	5.47
403.403	5.75
403.612	5.58
403.82	5.49
404.029	5.14
404.238	5.29
404.446	5.13
404.655	5.12
404.864	5.26
405.072	5.39
405.281	5.43
405.489	5.52
405.698	5.62
405.906	5.57
406.115	5.41
406.324	5.25
406.532	5.1
406.741	4.91
406.949	4.97
407.158	4.93
407.366	4.8
407.574	4.86
407.783	4.96
407.991	4.83
408.2	4.94
408.408	5.15
408.617	5.12
408.825	5.06
409.033	5.25
409.242	5.08
409.45	5.01
409.658	4.81
409.867	4.78
410.075	4.56
410.283	4.6
410.491	4.47
410.7	4.52
410.908	4.73
411.116	4.79
411.324	4.84
411.533	4.93
411.741	4.99
411.949	4.89
412.157	4.8
412.365	4.84
412.573	4.91
412.781	4.78
412.99	4.75
413.198	4.82
413.406	4.77
413.614	4.57
413.822	4.6
414.03	4.59
414.238	4.57
414.446	4.46
414.654	4.44
414.862	4.48
415.07	4.36
415.278	4.37
415.486	4.39
415.694	4.43
415.902	4.5
416.109	4.53
416.317	4.54
416.525	4.48
416.733	4.41
416.941	4.19
417.149	4.2
417.357	4.24
417.564	4.27
417.772	4.22
417.98	4.3
418.188	4.35
418.395	4.24
418.603	4.2
418.811	4.36
419.019	4.42
419.226	4.44
419.434	4.52
419.642	4.53
419.849	4.47
420.057	4.45
420.265	4.25
420.472	4
420.68	4.08
420.887	4.03
421.095	4.02
421.302	4.08
421.51	4.3
421.717	4.17
421.925	4.11
422.132	4.09
422.34	4.18
422.547	4
422.755	3.97
422.962	3.99
423.17	3.92
423.377	3.8
423.585	3.78
423.792	3.88
423.999	3.95
424.207	3.97
424.414	4.1
424.621	4.24
424.829	4.15
425.036	4.15
425.243	4.08
425.451	4.11
425.658	4.09
425.865	4.22
426.072	4.15
426.28	4.28
426.487	4.3
426.694	4.3
426.901	4.06
427.108	4.02
427.315	3.92
427.523	3.71
427.73	3.7
427.937	3.94
428.144	3.91
428.351	4.08
428.558	4.1
428.765	4.14
428.972	3.91
429.179	3.77
429.386	3.67
429.593	3.76
429.8	3.71
430.007	3.83
430.214	4.09
430.421	4.12
430.628	4.04
430.835	4
431.042	4.13
431.249	4.04
431.456	3.94
431.662	3.91
431.869	4.01
432.076	3.93
432.283	3.96
432.49	3.99
432.697	3.98
432.903	3.88
433.11	3.82
433.317	3.89
433.524	3.94
433.73	3.97
433.937	4.02
434.144	4.12
434.35	4.16
434.557	4.18
434.764	4.28
434.97	4.22
435.177	4.23
435.384	4.09
435.59	3.98
435.797	4.07
436.003	4.1
436.21	4.05
436.416	4.18
436.623	4.37
436.829	4.19
437.036	4.21
437.242	4.17
437.449	4.09
437.655	4.04
437.862	4.13
438.068	4.07
438.275	4.14
438.481	4.18
438.687	4.11
438.894	4.05
439.1	4.13
439.307	4.17
439.513	4.15
439.719	4.19
439.926	4.31
440.132	4.38
440.338	4.38
440.544	4.42
440.751	4.45
440.957	4.46
441.163	4.45
441.369	4.45
441.575	4.35
441.782	4.45
441.988	4.34
442.194	4.23
442.4	4.18
442.606	4.27
442.812	4.2
443.018	4.28
443.224	4.4
443.431	4.42
443.637	4.36
443.843	4.3
444.049	4.3
444.255	4.21
444.461	4.26
444.667	4.3
444.873	4.34
445.079	4.33
445.284	4.47
445.49	4.43
445.696	4.47
445.902	4.44
446.108	4.48
446.314	4.42
446.52	4.49
446.726	4.51
446.931	4.59
447.137	4.59
447.343	4.63
447.549	4.59
447.755	4.55
447.96	4.46
448.166	4.44
448.372	4.39
448.578	4.42
448.783	4.43
448.989	4.55
449.195	4.51
449.4	4.57
449.606	4.52
449.812	4.53
450.017	4.55
450.223	4.54
450.428	4.53
450.634	4.57
450.84	4.6
451.045	4.52
451.251	4.49
451.456	4.47
451.662	4.48
451.867	4.44
452.073	4.45
452.278	4.52
452.483	4.54
452.689	4.56
452.894	4.54
453.1	4.51
453.305	4.57
453.51	4.54
453.716	4.51
453.921	4.58
454.127	4.62
454.332	4.54
454.537	4.55
454.742	4.53
454.948	4.49
455.153	4.47
455.358	4.47
455.563	4.47
455.769	4.56
455.974	4.55
456.179	4.52
456.384	4.46
456.589	4.52
456.795	4.42
457	4.44
457.205	4.46
457.41	4.5
457.615	4.44
457.82	4.44
458.025	4.44
458.23	4.42
458.435	4.47
458.64	4.46
458.845	4.47
459.05	4.45
459.255	4.51
459.46	4.48
459.665	4.44
459.87	4.46
460.075	4.47
460.28	4.33
460.485	4.33
460.69	4.46
460.895	4.47
461.099	4.48
461.304	4.64
461.509	4.69
461.714	4.6
461.919	4.66
462.123	4.6
462.328	4.58
462.533	4.54
462.738	4.66
462.942	4.64
463.147	4.72
463.352	4.66
463.556	4.74
463.761	4.56
463.966	4.52
464.17	4.56
464.375	4.59
464.58	4.64
464.784	4.66
464.989	4.73
465.193	4.66
465.398	4.69
465.602	4.65
465.807	4.72
466.011	4.72
466.216	4.81
466.42	4.74
466.625	4.67
466.829	4.7
467.034	4.67
467.238	4.7
467.443	4.69
467.647	4.73
467.851	4.76
468.056	4.71
468.26	4.62
468.464	4.74
468.669	4.73
468.873	4.79
469.077	4.83
469.282	4.91
469.486	4.82
469.69	4.86
469.894	4.83
470.099	4.88
470.303	4.89
470.507	5.04
470.711	5.04
470.915	5.09
471.119	5.07
471.324	5.08
471.528	5.03
471.732	5.02
471.936	4.91
472.14	5
472.344	4.99
472.548	4.99
472.752	5.02
472.956	5.16
473.16	5.15
473.364	5.1
473.568	5.12
473.772	5.23
473.976	5.15
474.18	5.16
474.384	5.3
474.588	5.28
474.792	5.24
474.995	5.28
475.199	5.24
475.403	5.25
475.607	5.31
475.811	5.31
476.015	5.35
476.218	5.36
476.422	5.4
476.626	5.43
476.83	5.45
477.033	5.43
477.237	5.51
477.441	5.46
477.644	5.42
477.848	5.4
478.052	5.48
478.255	5.43
478.459	5.43
478.663	5.49
478.866	5.44
479.07	5.48
479.273	5.51
479.477	5.56
479.681	5.56
479.884	5.61
480.088	5.54
480.291	5.55
480.495	5.54
480.698	5.57
480.901	5.64
481.105	5.67
481.308	5.66
481.512	5.7
481.715	5.72
481.919	5.73
482.122	5.73
482.325	5.74
482.529	5.79
482.732	5.72
482.935	5.71
483.138	5.71
483.342	5.69
483.545	5.61
483.748	5.66
483.952	5.63
484.155	5.63
484.358	5.63
484.561	5.67
484.764	5.61
484.967	5.63
485.171	5.7
485.374	5.72
485.577	5.75
485.78	5.85
485.983	5.9
486.186	5.83
486.389	5.86
486.592	5.8
486.795	5.83
486.998	5.8
487.201	5.88
487.404	5.89
487.607	5.93
487.81	5.91
488.013	5.88
488.216	5.84
488.419	5.84
488.622	5.77
488.825	5.69
489.028	5.72
489.231	5.75
489.433	5.69
489.636	5.76
489.839	5.78
490.042	5.83
490.245	5.78
490.447	5.84
490.65	5.88
490.853	5.87
491.056	5.8
491.258	5.83
491.461	5.82
491.664	5.77
491.866	5.82
492.069	5.85
492.272	5.81
492.474	5.82
492.677	5.8
492.879	5.83
493.082	5.82
493.285	5.92
493.487	5.93
493.69	5.96
493.892	5.9
494.095	5.91
494.297	5.89
494.5	5.94
494.702	5.94
494.905	5.98
495.107	5.97
495.309	6
495.512	5.92
495.714	5.98
495.917	5.99
496.119	6.04
496.321	6.05
496.524	6.22
496.726	6.17
496.928	6.27
497.13	6.3
497.333	6.29
497.535	6.2
497.737	6.25
497.939	6.18
498.142	6.14
498.344	6.12
498.546	6.13
498.748	6.21
498.95	6.24
499.152	6.32
499.355	6.36
499.557	6.35
499.759	6.35
499.961	6.36
500.163	6.34
500.365	6.34
500.567	6.41
500.769	6.35
500.971	6.31
501.173	6.33
501.375	6.38
501.577	6.36
501.779	6.4
501.981	6.42
502.183	6.48
502.385	6.43
502.587	6.48
502.788	6.49
502.99	6.55
503.192	6.52
503.394	6.54
503.596	6.55
503.798	6.61
503.999	6.64
504.201	6.71
504.403	6.74
504.605	6.75
504.806	6.76
505.008	6.77
505.21	6.74
505.411	6.77
505.613	6.84
505.815	6.88
506.016	6.96
506.218	7.02
506.42	6.97
506.621	6.92
506.823	6.89
507.024	6.82
507.226	6.81
507.427	6.84
507.629	6.87
507.83	6.92
508.032	6.9
508.233	6.99
508.435	7.06
508.636	7.1
508.838	7.09
509.039	7.19
509.24	7.21
509.442	7.18
509.643	7.21
509.845	7.26
510.046	7.26
510.247	7.25
510.448	7.27
510.65	7.29
510.851	7.32
511.052	7.32
511.254	7.37
511.455	7.46
511.656	7.44
511.857	7.49
512.058	7.53
512.26	7.52
512.461	7.49
512.662	7.54
512.863	7.49
513.064	7.53
513.265	7.54
513.466	7.58
513.667	7.57
513.868	7.58
514.069	7.54
514.27	7.52
514.471	7.59
514.672	7.63
514.873	7.66
515.074	7.74
515.275	7.77
515.476	7.73
515.677	7.78
515.878	7.82
516.079	7.84
516.28	7.87
516.481	7.89
516.682	7.89
516.882	7.87
517.083	7.89
517.284	7.89
517.485	7.9
517.686	7.87
517.886	7.85
518.087	7.81
518.288	7.88
518.488	7.85
518.689	7.87
518.89	7.86
519.091	7.9
519.291	7.87
519.492	7.94
519.692	7.97
519.893	8.07
520.094	8.08
520.294	8.1
520.495	8.13
520.695	8.18
520.896	8.18
521.096	8.18
521.297	8.18
521.497	8.21
521.698	8.25
521.898	8.27
522.099	8.34
522.299	8.45
522.499	8.41
522.7	8.39
522.9	8.41
523.101	8.4
523.301	8.36
523.501	8.38
523.702	8.4
523.902	8.36
524.102	8.38
524.302	8.36
524.503	8.4
524.703	8.45
524.903	8.47
525.103	8.49
525.304	8.5
525.504	8.52
525.704	8.49
525.904	8.52
526.104	8.53
526.304	8.53
526.504	8.53
526.705	8.57
526.905	8.61
527.105	8.62
527.305	8.63
527.505	8.67
527.705	8.72
527.905	8.71
528.105	8.72
528.305	8.82
528.505	8.81
528.705	8.83
528.905	8.87
529.105	8.9
529.304	8.9
529.504	8.9
529.704	8.92
529.904	8.9
530.104	8.99
530.304	8.98
530.503	9.04
530.703	9.01
530.903	9.09
531.103	9.05
531.303	9.13
531.502	9.15
531.702	9.2
531.902	9.15
532.101	9.16
532.301	9.15
532.501	9.15
532.7	9.17
532.9	9.23
533.1	9.29
533.299	9.31
533.499	9.37
533.698	9.39
533.898	9.41
534.097	9.43
534.297	9.45
534.496	9.45
534.696	9.49
534.895	9.49
535.095	9.5
535.294	9.56
535.494	9.6
535.693	9.59
535.892	9.68
536.092	9.72
536.291	9.74
536.491	9.76
536.69	9.87
536.889	9.84
537.088	9.81
537.288	9.78
537.487	9.82
537.686	9.79
537.886	9.82
538.085	9.82
538.284	9.89
538.483	9.91
538.682	9.94
538.882	9.97
539.081	10.04
539.28	10.07
539.479	10.11
539.678	10.15
539.877	10.19
540.076	10.2
540.275	10.24
540.474	10.25
540.673	10.26
540.872	10.27
541.071	10.35
541.27	10.4
541.469	10.44
541.668	10.51
541.867	10.6
542.066	10.64
542.265	10.66
542.464	10.71
542.663	10.69
542.862	10.67
543.06	10.77
543.259	10.81
543.458	10.84
543.657	10.95
543.856	11.05
544.054	11.03
544.253	11.1
544.452	11.14
544.651	11.21
544.849	11.25
545.048	11.3
545.247	11.32
545.445	11.38
545.644	11.42
545.843	11.46
546.041	11.51
546.24	11.56
546.438	11.59
546.637	11.62
546.836	11.67
547.034	11.75
547.233	11.81
547.431	11.87
547.63	11.91
547.828	11.99
548.027	11.99
548.225	12.09
548.423	12.18
548.622	12.26
548.82	12.3
549.019	12.38
549.217	12.45
549.415	12.5
549.614	12.57
549.812	12.6
550.01	12.63
550.209	12.7
550.407	12.76
550.605	12.8
550.803	12.89
551.002	13.02
551.2	13.03
551.398	13.1
551.596	13.23
551.794	13.33
551.993	13.39
552.191	13.47
552.389	13.59
552.587	13.6
552.785	13.63
552.983	13.77
553.181	13.9
553.379	13.96
553.577	14.04
553.775	14.13
553.973	14.18
554.171	14.29
554.369	14.37
554.567	14.51
554.765	14.58
554.963	14.61
555.161	14.62
555.359	14.67
555.557	14.78
555.755	14.94
555.952	15.08
556.15	15.17
556.348	15.28
556.546	15.37
556.744	15.41
556.941	15.46
557.139	15.54
557.337	15.65
557.535	15.69
557.732	15.82
557.93	15.95
558.128	16.13
558.325	16.21
558.523	16.31
558.721	16.42
558.918	16.46
559.116	16.52
559.313	16.7
559.511	16.86
559.708	16.97
559.906	17.18
560.104	17.33
560.301	17.34
560.498	17.38
560.696	17.41
560.893	17.37
561.091	17.44
561.288	17.55
561.486	17.66
561.683	17.72
561.88	17.85
562.078	17.9
562.275	18.01
562.473	18.14
562.67	18.31
562.867	18.45
563.064	18.56
563.262	18.62
563.459	18.7
563.656	18.78
563.853	18.89
564.051	18.93
564.248	19.1
564.445	19.23
564.642	19.36
564.839	19.47
565.036	19.77
565.234	19.84
565.431	19.87
565.628	19.96
565.825	20.08
566.022	20.08
566.219	20.22
566.416	20.39
566.613	20.53
566.81	20.55
567.007	20.62
567.204	20.66
567.401	20.71
567.598	20.71
567.795	20.79
567.991	20.9
568.188	20.99
568.385	21.01
568.582	21.12
568.779	21.2
568.976	21.27
569.172	21.36
569.369	21.46
569.566	21.46
569.763	21.56
569.96	21.62
570.156	21.61
570.353	21.71
570.55	21.91
570.746	21.93
570.943	22
571.14	22.15
571.336	22.18
571.533	22.19
571.729	22.25
571.926	22.18
572.123	22.19
572.319	22.32
572.516	22.38
572.712	22.4
572.909	22.52
573.105	22.53
573.302	22.5
573.498	22.48
573.695	22.61
573.891	22.68
574.087	22.73
574.284	22.77
574.48	22.8
574.677	22.73
574.873	22.75
575.069	22.8
575.266	22.87
575.462	22.91
575.658	23.01
575.854	23
576.051	23.06
576.247	23.03
576.443	23.08
576.639	23.11
576.835	23.12
577.032	23.02
577.228	23.1
577.424	23.08
577.62	23.04
577.816	23.09
578.012	23.15
578.208	23.1
578.404	23.12
578.6	23.09
578.796	23.06
578.993	23.15
579.189	23.14
579.384	23.09
579.58	23.18
579.776	23.24
579.972	23.21
580.168	23.25
580.364	23.4
580.56	23.39
580.756	23.33
580.952	23.27
581.148	23.23
581.343	23.17
581.539	23.08
581.735	23.13
581.931	23.13
582.127	23.16
582.322	23.17
582.518	23.16
582.714	23.08
582.909	23.11
583.105	23.08
583.301	22.98
583.496	23.03
583.692	23.06
583.888	22.96
584.083	22.88
584.279	22.84
584.474	22.8
584.67	22.81
584.866	22.83
585.061	22.84
585.257	22.91
585.452	23.09
585.648	23
585.843	23.01
586.039	23.07
586.234	23.05
586.429	22.92
586.625	22.97
586.82	22.95
587.015	22.92
587.211	22.88
587.406	22.82
587.601	22.77
587.797	22.86
587.992	22.81
588.187	22.88
588.383	22.83
588.578	22.83
588.773	22.71
588.968	22.74
589.163	22.69
589.359	22.74
589.554	22.77
589.749	22.89
589.944	22.96
590.139	22.98
590.334	23.06
590.529	23.11
590.724	23.11
590.919	23.11
591.114	23.19
591.309	23.18
591.504	23.19
591.699	23.21
591.894	23.18
592.089	23.19
592.284	23.2
592.479	23.28
592.674	23.33
592.869	23.48
593.064	23.56
593.259	23.67
593.454	23.57
593.648	23.6
593.843	23.69
594.038	23.78
594.233	23.86
594.428	24.06
594.622	24.14
594.817	24.08
595.012	24.14
595.206	24.13
595.401	24.21
595.596	24.26
595.79	24.4
595.985	24.39
596.18	24.52
596.374	24.51
596.569	24.66
596.763	24.71
596.958	24.85
597.153	24.91
597.347	25
597.542	24.93
597.736	25.03
597.931	25.07
598.125	25.12
598.319	25.28
598.514	25.42
598.708	25.49
598.903	25.64
599.097	25.64
599.291	25.63
599.486	25.75
599.68	25.75
599.874	25.74
600.069	25.85
600.263	25.93
600.457	25.96
600.651	26.02
600.846	26.04
601.04	26.14
601.234	26.13
601.428	26.16
601.622	26.15
601.817	26.26
602.011	26.28
602.205	26.39
602.399	26.4
602.593	26.46
602.787	26.41
602.981	26.4
603.175	26.38
603.369	26.33
603.563	26.36
603.757	26.41
603.951	26.46
604.145	26.38
604.339	26.44
604.533	26.41
604.727	26.33
604.921	26.25
605.115	26.16
605.309	26.18
605.502	26.11
605.696	26.06
605.89	25.95
606.084	25.99
606.278	25.89
606.471	25.95
606.665	25.87
606.859	25.91
607.053	25.84
607.246	25.84
607.44	25.72
607.634	25.78
607.827	25.71
608.021	25.61
608.214	25.52
608.408	25.41
608.602	25.32
608.795	25.27
608.989	25.25
609.182	25.13
609.376	25.1
609.569	24.97
609.763	24.87
609.956	24.91
610.15	24.9
610.343	24.85
610.537	24.77
610.73	24.75
610.923	24.6
611.117	24.56
611.31	24.44
611.504	24.48
611.697	24.34
611.89	24.35
612.083	24.19
612.277	24.16
612.47	23.96
612.663	23.91
612.856	23.79
613.05	23.81
613.243	23.67
613.436	23.66
613.629	23.56
613.822	23.45
614.015	23.24
614.209	23.18
614.402	23.13
614.595	23.05
614.788	22.98
614.981	22.97
615.174	22.95
615.367	22.87
615.56	22.81
615.753	22.8
615.946	22.74
616.139	22.68
616.332	22.63
616.525	22.66
616.718	22.58
616.911	22.57
617.103	22.55
617.296	22.56
617.489	22.46
617.682	22.46
617.875	22.38
618.067	22.31
618.26	22.17
618.453	22.18
618.646	22.01
618.838	21.96
619.031	21.91
619.224	21.85
619.417	21.82
619.609	21.83
619.802	21.74
619.994	21.64
620.187	21.65
620.38	21.57
620.572	21.63
620.765	21.69
620.957	21.71
621.15	21.67
621.342	21.6
621.535	21.47
621.727	21.41
621.92	21.31
622.112	21.25
622.305	21.26
622.497	21.3
622.69	21.24
622.882	21.25
623.074	21.23
623.267	21.2
623.459	21.1
623.651	21.12
623.844	21.15
624.036	21.19
624.228	21.19
624.42	21.14
624.613	21.14
624.805	21.11
624.997	21.07
625.189	21.02
625.381	21.04
625.574	21.02
625.766	20.95
625.958	20.91
626.15	20.92
626.342	20.89
626.534	20.84
626.726	20.81
626.918	20.76
627.11	20.68
627.302	20.68
627.494	20.6
627.686	20.57
627.878	20.66
628.07	20.65
628.262	20.55
628.454	20.51
628.646	20.49
628.838	20.33
629.029	20.24
629.221	20.21
629.413	20.22
629.605	20.12
629.797	20.05
629.989	20.1
630.18	20.11
630.372	20.01
630.564	20.06
630.755	20.11
630.947	20.02
631.139	19.93
631.33	19.9
631.522	19.91
631.714	19.81
631.905	19.79
632.097	19.79
632.289	19.82
632.48	19.79
632.672	19.76
632.863	19.75
633.055	19.7
633.246	19.66
633.438	19.66
633.629	19.71
633.821	19.65
634.012	19.66
634.203	19.65
634.395	19.51
634.586	19.45
634.777	19.49
634.969	19.46
635.16	19.41
635.351	19.45
635.543	19.37
635.734	19.4
635.925	19.34
636.117	19.38
636.308	19.36
636.499	19.38
636.69	19.23
636.881	19.26
637.073	19.24
637.264	19.24
637.455	19.14
637.646	19.2
637.837	19.16
638.028	19.03
638.219	19.01
638.41	19.03
638.601	18.99
638.792	19.04
638.983	19.1
639.174	19.08
639.365	19.08
639.556	19.08
639.747	18.95
639.938	19.05
640.129	19.09
640.32	19.06
640.511	19.01
640.701	19.05
640.892	18.93
641.083	18.9
641.274	18.81
641.465	18.81
641.655	18.81
641.846	18.75
642.037	18.65
642.228	18.67
642.418	18.6
642.609	18.51
642.8	18.47
642.99	18.5
643.181	18.5
643.372	18.53
643.562	18.6
643.753	18.57
643.943	18.47
644.134	18.43
644.324	18.41
644.515	18.29
644.705	18.39
644.896	18.4
645.086	18.39
645.277	18.35
645.467	18.3
645.658	18.14
645.848	18.09
646.038	18.04
646.229	17.99
646.419	17.93
646.61	17.97
646.8	17.96
646.99	18
647.18	17.95
647.371	17.96
647.561	17.85
647.751	17.88
647.941	17.81
648.132	17.81
648.322	17.85
648.512	17.89
648.702	17.84
648.892	17.73
649.082	17.7
649.272	17.61
649.462	17.61
649.653	17.66
649.843	17.73
650.033	17.74
650.223	17.81
650.413	17.75
650.603	17.7
650.793	17.66
650.983	17.67
651.172	17.61
651.362	17.54
651.552	17.42
651.742	17.47
651.932	17.32
652.122	17.29
652.312	17.28
652.502	17.26
652.691	17.08
652.881	17.12
653.071	16.98
653.261	16.87
653.45	16.77
653.64	16.75
653.83	16.49
654.019	16.39
654.209	16.3
654.399	16.17
654.588	16.04
654.778	16.04
654.968	15.91
655.157	15.84
655.347	15.81
655.536	15.66
655.726	15.42
655.915	15.34
656.105	15.17
656.294	14.99
656.484	14.82
656.673	14.85
656.863	14.75
657.052	14.66
657.241	14.49
657.431	14.42
657.62	14.23
657.809	13.96
657.999	13.71
658.188	13.51
658.377	13.37
658.567	13.1
658.756	13.01
658.945	12.87
659.134	12.71
659.324	12.41
659.513	12.32
659.702	12.08
659.891	11.91
660.08	11.78
660.269	11.74
660.458	11.54
660.648	11.43
660.837	11.33
661.026	11.25
661.215	11.03
661.404	10.92
661.593	10.74
661.782	10.58
661.971	10.43
662.16	10.32
662.349	10.15
662.538	10.09
662.726	9.99
662.915	9.85
663.104	9.74
663.293	9.7
663.482	9.56
663.671	9.37
663.86	9.22
664.048	9.14
664.237	8.98
664.426	8.94
664.615	8.81
664.803	8.75
664.992	8.67
665.181	8.66
665.369	8.57
665.558	8.56
665.747	8.46
665.935	8.38
666.124	8.32
666.312	8.26
666.501	8.22
666.69	8.22
666.878	8.14
667.067	8.04
667.255	7.94
667.444	7.94
667.632	7.85
667.82	7.81
668.009	7.76
668.197	7.67
668.386	7.61
668.574	7.62
668.762	7.58
668.951	7.66
669.139	7.68
669.327	7.57
669.516	7.58
669.704	7.6
669.892	7.61
670.08	7.6
670.269	7.74
670.457	7.71
670.645	7.7
670.833	7.71
671.021	7.87
671.21	7.9
671.398	7.99
671.586	8.02
671.774	7.95
671.962	7.85
672.15	7.87
672.338	7.88
672.526	7.9
672.714	7.9
672.902	7.97
673.09	7.96
673.278	7.97
673.466	8.07
673.654	8.16
673.842	8.12
674.03	8.22
674.218	8.28
674.405	8.26
674.593	8.34
674.781	8.55
674.969	8.67
675.157	8.78
675.344	8.96
675.532	8.99
675.72	8.98
675.908	8.9
676.095	8.96
676.283	8.93
676.471	9.01
676.658	9.12
676.846	9.16
677.033	9.23
677.221	9.38
677.409	9.35
677.596	9.4
677.784	9.55
677.971	9.51
678.159	9.62
678.346	9.83
678.534	9.98
678.721	10.12
678.909	10.27
679.096	10.29
679.283	10.32
679.471	10.34
679.658	10.42
679.846	10.51
680.033	10.63
680.22	10.68
680.408	10.8
680.595	10.96
680.782	11.12
680.969	11.24
681.157	11.48
681.344	11.55
681.531	11.78
681.718	11.82
681.905	11.99
682.093	12.04
682.28	12.29
682.467	12.31
682.654	12.48
682.841	12.65
683.028	12.95
683.215	13.03
683.402	13.23
683.589	13.48
683.776	13.72
683.963	13.88
684.15	14.26
684.337	14.36
684.524	14.62
684.711	14.7
684.898	14.95
685.085	15.1
685.271	15.46
685.458	15.74
685.645	16.17
685.832	16.45
686.019	16.82
686.205	17.09
686.392	17.24
686.579	17.52
686.766	17.82
686.952	18.07
687.139	18.56
687.326	19.02
687.512	19.52
687.699	20.07
687.886	20.53
688.072	20.89
688.259	21.35
688.445	21.63
688.632	22
688.818	22.42
689.005	22.93
689.191	23.33
689.378	24.03
689.564	24.46
689.751	25.11
689.937	25.62
690.124	26.22
690.31	26.7
690.496	27.4
690.683	28.03
690.869	28.56
691.055	29.16
691.242	29.59
691.428	30.03
691.614	30.64
691.8	31.31
691.987	31.9
692.173	32.58
692.359	33.43
692.545	34.06
692.731	34.68
692.918	35.47
693.104	36.12
693.29	36.65
693.476	37.2
693.662	37.93
693.848	38.5
694.034	39.06
694.22	39.77
694.406	40.3
694.592	40.89
694.778	41.39
694.964	42.28
695.15	42.98
695.336	43.68
695.522	44.25
695.708	44.99
695.894	45.5
696.08	46.1
696.265	46.6
696.451	47.21
696.637	47.88
696.823	48.39
697.009	48.91
697.194	49.75
697.38	50.27
697.566	50.74
697.751	51.26
697.937	51.61
698.123	52.09
698.308	52.94
698.494	53.46
698.68	54.22
698.865	54.81
699.051	55.41
699.236	55.7
699.422	56.38
699.607	56.84
699.793	57.49
699.978	57.91
700.164	58.6
700.349	58.97
700.535	59.44
700.72	60.16
700.906	60.58
701.091	60.84
701.276	61.15
701.462	61.65
701.647	61.6
701.832	61.96
702.018	62.5
702.203	63.03
702.388	63.21
702.573	63.6
702.759	63.95
702.944	64.14
703.129	64.61
703.314	65.19
703.499	65.7
703.684	66.16
703.87	66.53
704.055	66.94
704.24	67.12
704.425	67.25
704.61	67.78
704.795	68.24
704.98	68.8
705.165	69.19
705.35	69.56
705.535	69.62
705.72	69.94
705.905	69.73
706.09	69.87
706.275	70.39
706.459	70.41
706.644	70.43
706.829	70.89
707.014	71.21
707.199	71.5
707.384	71.84
707.568	72.25
707.753	72.49
707.938	72.45
708.123	72.4
708.307	72.66
708.492	73.17
708.677	73.24
708.861	73.56
709.046	73.81
709.231	73.89
709.415	73.88
709.6	74.12
709.784	74.73
709.969	75.33
710.153	75.85
710.338	75.77
710.522	76.02
710.707	76.1
710.891	76.34
711.076	76.34
711.26	76.91
711.445	76.87
711.629	76.72
711.813	76.67
711.998	77.38
712.182	77.4
712.366	77.59
712.551	78.22
712.735	78.54
712.919	78.29
713.103	78.31
713.288	78.49
713.472	78.28
713.656	78.28
713.84	78.32
714.024	78.66
714.208	78.96
714.393	78.98
714.577	78.66
714.761	78.64
714.945	78.82
715.129	79.02
715.313	79.38
715.497	79.44
715.681	79.75
715.865	79.58
716.049	79.57
716.233	79.6
716.417	79.61
716.601	79.65
716.785	79.84
716.968	79.65
717.152	79.9
717.336	80.87
717.52	81.04
717.704	81.24
717.888	81.63
718.071	81.63
718.255	81.23
718.439	81.43
718.622	81.73
718.806	81.93
718.99	81.79
719.174	82.17
719.357	82.58
719.541	82.35
719.724	82.26
719.908	82.52
720.092	82.29
720.275	82.12
720.459	81.98
720.642	82.38
720.826	82.66
721.009	82.37
721.193	82.22
721.376	82.4
721.559	82.02
721.743	82.07
721.926	82.67
722.11	82.64
722.293	83.11
722.476	83.3
722.66	83.32
722.843	83.11
723.026	83.2
723.21	82.47
723.393	82.67
723.576	82.82
723.759	82.76
723.942	82.9
724.126	83.71
724.309	83.62
724.492	83.83
724.675	84.25
724.858	84.61
725.041	84.18
725.224	84.39
725.407	84.09
725.59	84.21
725.774	84.15
725.957	84.21
726.14	84.25
726.322	84.6
726.505	84.67
726.688	85.05
726.871	85.64
727.054	86.06
727.237	85.99
727.42	86.1
727.603	86.1
727.786	85.9
727.968	85.65
728.151	85.53
728.334	85.37
728.517	85.05
728.699	85.23
728.882	85.53
729.065	85.76
729.248	86.32
729.43	86.64
729.613	86.64
729.796	87
729.978	87
730.161	86.82
730.343	86.52
730.526	86.47
730.708	85.38
730.891	85.42
731.073	85.04
731.256	85.61
731.438	86
731.621	86.9
731.803	87.39
731.986	87.81
732.168	87.91
732.35	87.42
732.533	87.39
732.715	87.24
732.898	87.78
733.08	87.68
733.262	88.46
733.444	89.11
733.627	89.17
733.809	89.44
733.991	89.14
734.173	88.96
734.355	87.42
734.538	87.85
734.72	87.24
734.902	87.08
735.084	87.23
735.266	87.97
735.448	88
735.63	88.36
735.812	89.24
735.994	88.55
736.176	88.62
736.358	88.79
736.54	88.21
736.722	88.32
736.904	88.67
737.086	88.76
737.268	88.27
737.45	88.56
737.632	88.45
737.814	88.6
737.995	88.24
738.177	87.63
738.359	87.72
738.541	86.62
738.723	87.08
738.904	87.81
739.086	89.25
739.268	89.56
739.449	90.69
739.631	90.08
739.813	89.3
739.994	88.7
740.176	88.04
740.358	88.55
740.539	88.77
740.721	88.82
740.902	88.39
741.084	88.84
741.265	88.61
741.447	88.61
741.628	89.11
741.81	89.16
741.991	89.67
742.172	89.42
742.354	89.73
742.535	90.36
742.717	90.85
742.898	91.01
743.079	90.9
743.261	90.89
743.442	90.27
743.623	89.9
743.804	89.63
743.986	89.23
744.167	89.38
744.348	90.1
744.529	90.58
744.71	89.37
744.891	90.44
745.073	90.59
745.254	90.12
745.435	89.84
745.616	90.2
745.797	89.78
745.978	89.48
746.159	89.73
746.34	89.1
746.521	88.96
746.702	88.14
746.883	87.81
747.064	87.31
747.245	88.08
747.426	87.96
747.606	87.78
747.787	88.76
747.968	88.86
748.149	88.44
748.33	89.32
748.51	90.42
748.691	89.37
748.872	88.87
749.053	89.42
749.233	89.53
749.414	88.78
749.595	89.46
749.775	90.91
749.956	89.69
750.137	89.44
750.317	89.82
750.498	89.26
750.678	88.42
750.859	89.94
751.04	90.79
751.22	91.54
751.4	91.94
751.581	92.67
751.761	92.22
751.942	92.26
752.122	91.81
752.303	91.53
752.483	91.25
752.663	91.37
752.844	91.12
753.024	91.32
753.204	91.34
753.385	91.63
753.565	90.51
753.745	90.36
753.925	90.39
754.106	90.89
754.286	90.65
754.466	91.03
754.646	90.45
754.826	90.29
755.006	89.03
755.187	88.41
755.367	88.81
755.547	88.25
755.727	87.3
755.907	87.82
756.087	87.18
756.267	88.11
756.447	88.88
756.627	89.65
756.807	88.36
756.987	89.84
757.167	87.92
757.346	88.22
757.526	87.14
757.706	89.63
757.886	88.88
758.066	89.3
758.246	89
758.425	88.77
758.605	88.13
758.785	86.99
758.965	88.24
759.144	87.93
759.324	88.91
759.504	89.19
759.683	89.78
759.863	88.6
760.043	88.1
760.222	87.28
760.402	86.38
760.581	86.84
760.761	87.13
760.94	87.52
761.12	88.68
761.299	89.02
761.479	89.21
761.658	88.97
761.838	89.08
762.017	88.38
762.197	86.12
762.376	85.29
762.555	84.91
762.735	83.88
762.914	84.53
763.093	86.32
763.273	86.02
763.452	86.4
763.631	88.28
763.81	87.61
763.99	87.67
764.169	88.07
764.348	87.52
764.527	86.17
764.706	84.98
764.885	84.89
765.064	84.21
765.243	83.66
765.423	85.13
765.602	85.78
765.781	84.58
765.96	84.92
766.139	86.36
766.318	85.36
766.497	85.02
766.676	87.82
766.854	88.96
767.033	89.18
767.212	89.12
767.391	89.43
767.57	87.03
767.749	85.85
767.928	84.11
768.106	82.66
768.285	81.93
768.464	82.4
768.643	83.26
768.821	84.23
769	85.45
769.179	86.32
769.357	85.49
769.536	85.24
769.715	85
769.893	85.91
770.072	86.41
770.25	87.45
770.429	87.35
770.607	87.35
770.786	85.2
770.964	84.59
771.143	83.21
771.321	82.82
771.5	83.43
771.678	85.46
771.857	85.42
772.035	85.5
772.213	85.6
772.392	84.5
772.57	85.15
772.748	86.56
772.927	87.63
773.105	88.92
773.283	90.32
773.461	88.91
773.64	86.76
773.818	87.54
773.996	86.01
774.174	83.83
774.352	81.29
774.531	82.13
774.709	82.64
774.887	81.4
775.065	82.58
775.243	84.18
775.421	83.41
775.599	81.45
775.777	82.26
775.955	81.39
776.133	81.92
776.311	84.12
776.489	84.06
776.667	83.52
776.844	85.6
777.022	85.61
777.2	84.64
777.378	84.67
777.556	86.39
777.734	84.53
777.911	82.85
778.089	83.77
778.267	83.9
778.445	83.06
778.622	83.45
778.8	84.89
778.978	82.04
779.155	82.32
779.333	83.25
779.511	82.97
779.688	82.26
779.866	84.52
780.043	83.87
780.221	82.21
780.398	82.52
780.576	84.25
780.753	80.06
780.931	82.59
781.108	84.54
781.286	84.56
781.463	83.74
781.64	84.07
781.818	80.97
781.995	79.33
782.172	79.8
782.35	78.87
782.527	80.12
782.704	80.04
782.882	80.66
783.059	78.77
783.236	80.33
783.413	81.94
783.59	83.75
783.768	82.62
783.945	81.13
784.122	80.41
784.299	80.64
784.476	79
784.653	81.28
784.83	84.93
785.007	83.33
785.184	82.49
785.361	81.95
785.538	80.4
785.715	79.65
785.892	82.52
786.069	82.14
786.246	83.61
786.423	82.93
786.6	83.19
786.776	82.96
786.953	84.27
787.13	84.4
787.307	83.85
787.484	83.14
787.66	81.22
787.837	81.16
788.014	83.07
788.191	82.57
788.367	81.2
788.544	80.88
788.721	79.77
788.897	75.53
789.074	73.44
789.25	77.1
789.427	78.15
789.603	80.11
789.78	79.9
789.956	84.19
790.133	81.2
790.309	83.27
790.486	82.05
790.662	85.41
790.839	84.04
791.015	82.56
791.192	78.51
791.368	78.38
791.544	76.86
791.721	77.18
791.897	76.99
792.073	76.73
792.249	77.34
792.426	78.94
792.602	80.17
792.778	80.8
792.954	85.74
793.13	83.33
793.307	80.15
793.483	80.52
793.659	82.94
793.835	82.05
794.011	81.7
794.187	82.76
794.363	79.08
794.539	80.88
794.715	77.31
794.891	80.55
795.067	80.09
795.243	81.93
795.419	77.96
795.595	79.13
795.771	76.33
795.947	79.24
796.122	77.54
796.298	78.99
796.474	78.46
796.65	79.73
796.826	78.52
797.001	76.08
797.177	73.46
797.353	71.83
797.529	72.33
797.704	71.46
797.88	79.76
798.056	84.51
798.231	88.31
798.407	91.46
798.582	91.09
798.758	88.75
798.934	88.49
799.109	84.37
799.285	78.3
799.46	79.8
799.636	81.79
799.811	80.35
799.986	81.21
800.162	83.59
800.337	87.8
800.513	83
800.688	80.53
800.863	83.19
801.039	85.06
801.214	81.95
801.389	83.7
801.565	84.79
801.74	79.57
801.915	79.08
802.09	76.53
802.265	75.56
802.441	70.81
802.616	75.12
802.791	75.56
802.966	74.97
803.141	75.45
803.316	76.54
803.491	80.4
803.666	78.61
803.841	74.27
804.016	76.36
804.191	80.55
804.366	74.46
804.541	70
804.716	75.09
804.891	75.54
805.066	74.19
805.241	72.96
805.416	74.67
805.591	69.45
805.765	66.73
805.94	73.01
806.115	72.76
806.29	78.14
806.464	86.31
806.639	83.78
806.814	77.41
806.989	79.89
807.163	75.67
807.338	75.2
807.512	76.5
807.687	77.78
807.862	78.05
808.036	82.94
808.211	81
808.385	81.41
808.56	83.91
808.734	74.83
808.909	68.23
809.083	69.92
809.258	67.28
809.432	63.8
809.606	66.18
809.781	69.23
809.955	70.45
810.13	74.71
810.304	73.83
810.478	76.43
810.652	76.31
810.827	75.7
811.001	72.13
811.175	76.41
811.349	79.85
811.524	80.79
811.698	76.18
811.872	81.23
812.046	82.29
812.22	88.43
812.394	88.04
812.568	94.74
812.742	84.27
812.916	82.2
813.09	75.83
813.264	74.77
813.438	67.33
813.612	78.82
813.786	78.55
813.96	84.33
814.134	81.4
814.308	82.22
814.482	72.82
814.656	70.92
814.83	65.89
815.003	69.25
815.177	74.64
815.351	71.21
815.525	72.4
815.698	73.13
815.872	76.07
816.046	72.28
816.219	76.31
816.393	84.09
816.567	87.02
816.74	81.51
816.914	87.38
817.088	91.83
817.261	79.67
817.435	75.53
817.608	76
817.782	66.99
817.955	62.69
818.129	72.92
818.302	81.6
818.475	77.05
818.649	85.34
818.822	85.38
818.996	79.47
819.169	77.8
819.342	83.55
819.516	77.69
819.689	78.6
819.862	71.2
820.035	68.91
820.209	64.25
820.382	68.29
820.555	66.6
820.728	70.21
820.901	66.19
821.075	63.52
821.248	60.97
821.421	65.16
821.594	65.1
821.767	60.52
821.94	60.85
822.113	62.49
822.286	63.52
822.459	52.91
822.632	55.16
822.805	54.92
822.978	61.03
823.151	57.18
823.324	69.79
823.496	70.24
823.669	78.11
823.842	73.05
824.015	71.32
824.188	69.95
824.361	74.77
824.533	68.32
824.706	65.76
824.879	64.58
825.051	67.45
825.224	68.59
825.397	69.26
825.569	67.19
825.742	78.15
825.915	76.5
826.087	71.96
826.26	82.27
826.432	76.7
826.605	72.57
826.777	76.42
826.95	79.66
827.122	64.23
827.295	59.41
827.467	58.07
827.64	52.54
827.812	56.58
827.984	70.2
828.157	79.9
828.329	83.49
828.501	76.84
828.674	68.59
828.846	61.19
829.018	66.32
829.19	57.19
829.363	59.81
829.535	58.09
829.707	62.86
829.879	60.5
830.051	59.19
830.223	48.24
830.395	60.65
830.568	51.85
830.74	58.24
830.912	61.11
831.084	77.06
831.256	60.22
831.428	52.41
831.6	50.47
831.772	60.71
831.943	57.75
832.115	71.35
832.287	87.44
832.459	69.96
832.631	62.97
832.803	68.22
832.975	67.9
833.146	68.44
833.318	74.17
833.49	75.81
833.662	66.01
833.833	57.49
834.005	47.92
834.177	55.96
834.348	52.82
834.52	60.45
834.692	49.79
834.863	52.35
835.035	56.77
835.206	51.72
835.378	43.71
835.549	57.37
835.721	57.86
835.892	58.19
836.064	66.27
836.235	71.77
836.407	73.16
836.578	67.87
836.749	67.37
836.921	62.19
837.092	55.86
837.264	57.05
837.435	61.12
837.606	66.6
837.777	74.74
837.949	79.17
838.12	64.71
838.291	61.22
838.462	43.5
838.633	33.65
838.805	30.11
838.976	38.55
839.147	44.89
839.318	53.78
839.489	57.11
839.66	61.85
839.831	66.08
840.002	60.51
840.173	58.87
840.344	70.99
840.515	68.46
840.686	46.02
840.857	55.87
841.028	53.56
841.199	38.26
841.369	54.12
841.54	67.55
841.711	73.83
841.882	77.51
842.053	76.71
842.223	64
842.394	65.85
842.565	54.13
842.736	49.36
842.906	58.12
843.077	61.71
843.248	61.36
843.418	68.47
843.589	69.87
843.759	64.62
843.93	72.59
844.101	76.16
844.271	68.76
844.442	65.58
844.612	59.4
844.783	53.72
844.953	50.87
845.123	55.11
845.294	73.59
845.464	91.17
845.635	98.67
845.805	85.82
845.975	75.42
846.146	51.01
846.316	38.84
846.486	30.65
846.656	43.42
846.827	44.23
846.997	40.01
847.167	47.73
847.337	60.94
847.507	53.89
847.677	48.01
847.848	63.99
848.018	63.52
848.188	54.9
848.358	54.65
848.528	68.9
848.698	53.09
848.868	52.1
849.038	42.45
849.208	51.38
849.378	53.96
849.548	52.96
849.718	57.88
849.887	67.78
850.057	64.99
850.227	61.87
850.397	88.64
850.567	80.44
850.737	66.04
850.906	58.91
851.076	63.62
851.246	62.37
851.415	69.8
851.585	72.77
851.755	73.86
851.924	54.96
852.094	38.41
852.264	34.71
852.433	47.57
852.603	30.86
852.772	38.55
852.942	37.72
853.111	39.05
853.281	36.54
853.45	53.16
853.62	60.33
853.789	73.46
853.959	94.63
854.128	87.29
854.297	90.94
854.467	84.58
854.636	62.01
854.805	67.09
854.975	59.2
855.144	41.34
855.313	41.57
855.482	54.88
855.652	23.82
855.821	25.55
855.99	42.45
856.159	51.12
856.328	45.5
856.497	36.81
856.667	54.06
856.836	42.46
857.005	15.51
857.174	23.88
857.343	45.51
857.512	26.65
857.681	17.99
857.85	47.37
858.019	25.49
858.188	-12.73
858.356	-36.82
858.525	-19.95
858.694	-48.54
858.863	13.07
859.032	30.02
859.201	39.95
859.369	84.36
859.538	89.67
859.707	79.03
859.876	82.45
860.044	78.46
860.213	57.15
860.382	35.97
860.55	30.8
860.719	-6.13
860.888	24.75
861.056	23.82
861.225	24.93
861.393	49.91
861.562	72.72
861.73	49.55
861.899	43.73
862.067	57.81
862.236	35.83
862.404	40.48
862.572	41.26
862.741	58.9
862.909	51.63
863.078	45.46
863.246	46.77
863.414	38.25
863.582	8.96
863.751	12.19
863.919	48.22
864.087	67.03
864.255	105.13
864.424	143.01
864.592	146.49
864.76	166.78
864.928	260.33
865.096	154.64
865.264	139.53
865.432	144.94
865.6	93.74
865.768	53.19
865.936	52
866.104	54.48
866.272	53.88
866.44	16.95
866.608	27.12
866.776	16.33
866.944	21.67
867.112	25.33
867.28	42.61
867.448	4.87
867.615	29.95
867.783	49.92
867.951	56.04
868.119	76.19
868.286	60.82
868.454	50.27
868.622	39.66
868.789	27.69
868.957	22.21
869.125	18.02
869.292	3.81
869.46	12.45
869.627	36.93
869.795	31.52
869.963	41.91
870.13	57.23
870.298	46.55
870.465	49.05
870.632	52.04
870.8	66.26
870.967	54.27
871.135	43.71
871.302	26.76
871.469	7.98
871.637	-13.43
871.804	-55.52
871.971	18.54
872.139	42.25
872.306	35.22
872.473	39.73
872.64	48.97
872.807	51.48
872.975	50.7
873.142	51.67
873.309	46.69
873.476	48.76
873.643	81.18
873.81	61.28
873.977	73.52
874.144	48.35
874.311	27.37
874.478	13.78
874.645	13.34
874.812	-3.1
874.979	30.94
875.146	51.62
875.313	85.71
875.48	88.55
875.647	93.09
875.813	86.25
875.98	81.6
876.147	84.94
876.314	79.36
876.481	56.59
876.647	70.67
876.814	61.01
876.981	51.05
877.147	56.56
877.314	57.99
877.481	62.94
877.647	70.07
877.814	38.77
877.98	26.82
878.147	41.44
878.314	53.24
878.48	58.28
878.647	63.75
878.813	75.62
878.979	60.53
879.146	21.34
879.312	31.3
879.479	43.89
879.645	33.85
879.811	61.61
879.978	97.96
880.144	50.43
880.31	57.29
880.477	68.87
880.643	63.15
880.809	44.18
880.975	84.03
881.142	75.17
881.308	66.41
881.474	38.55
881.64	53.06
881.806	39.33
881.972	43.97
882.138	46.47
882.304	73.59
882.47	20.3
882.636	126.04
882.802	-51.12
882.968	-250.21
883.134	-28.45
883.3	68.34
883.466	56.4
883.632	65.54
883.798	89.36
883.964	76.77
884.129	47.08
884.295	9.62
884.461	6.59
884.627	-16.31
884.793	-10.89
884.958	5.83
885.124	24.18
885.29	49.54
885.455	59.18
885.621	5.61
885.787	21.29
885.952	23.02
886.118	3.01
886.283	46.9
886.449	49.32
886.614	51.11
886.78	42.22
886.945	58.55
887.111	40.23
887.276	35.18
887.442	32.12
887.607	29.99
887.773	11.6
887.938	12.43
888.103	11.34
888.269	30.75
888.434	16.13
888.599	32.04
888.764	64.52
888.93	77.18
889.095	52.83
889.26	98.17
889.425	72.05
889.59	41.05
889.756	13.92
889.921	12.15
890.086	10.95
890.251	6.29
890.416	6.9
890.581	31.83
890.746	51.89
890.911	63.63
891.076	51.43
891.241	20.02
891.406	37.34
891.571	47.26
891.736	69.39
891.901	61.12
892.065	108.15
892.23	73.2
892.395	84.53
892.56	87.18
892.725	108.65
892.889	137.66
893.054	157.39
893.219	109.04
893.384	95.82
893.548	107.69
893.713	89.89
893.878	89.25
