Data from Ofra_PS_Phys_6CX18_Reflection_2.txt Node
Date: Tue Jul 20 20:41:10 EDT 2021
User: USUARIO
Spectrometer: FLMT01687
Trigger mode: 0
Integration Time (sec): 1.042999E0
Scans to average: 2
Electric dark correction enabled: true
Nonlinearity correction enabled: false
Boxcar width: 2
XAxis mode: Wavelengths
Number of Pixels in Spectrum: 3648
>>>>>Begin Spectral Data<<<<<
179.494	-22.07
179.716	-38.22
179.937	-5.68
180.158	6.83
180.38	50.52
180.601	57.61
180.823	108.63
181.044	100.73
181.265	-316.48
181.486	17.48
181.708	-23.44
181.929	31.07
182.15	57.76
182.372	-23.05
182.593	97.01
182.814	15.39
183.035	40.25
183.257	18.49
183.478	-137.4
183.699	-199.9
183.92	-31.27
184.141	-66.56
184.363	-31.16
184.584	26.78
184.805	47.79
185.026	55.18
185.247	48.25
185.468	53.92
185.689	60.66
185.91	33.67
186.132	-1.57
186.353	-0.91
186.574	-31.53
186.795	-23.2
187.016	25.48
187.237	32.73
187.458	31.29
187.679	58.1
187.9	36.8
188.121	37.46
188.342	38.27
188.563	36.23
188.784	8.49
189.005	39.05
189.226	32.83
189.447	55.35
189.667	61.26
189.888	78.54
190.109	69.48
190.33	81.5
190.551	82.6
190.772	81.97
190.993	46.73
191.214	52.33
191.434	46.96
191.655	14.04
191.876	24.94
192.097	28.32
192.318	22.47
192.538	25.05
192.759	35.24
192.98	24.5
193.201	31.26
193.421	42.79
193.642	52.29
193.863	61.43
194.083	65.13
194.304	65.74
194.525	51.42
194.745	53.17
194.966	32.66
195.187	31.97
195.407	15.78
195.628	-11.56
195.848	-19.92
196.069	24.63
196.29	23.82
196.51	23.81
196.731	34.4
196.951	36.76
197.172	17.51
197.392	34.27
197.613	38.45
197.833	45.63
198.054	39.74
198.274	51.17
198.495	47.09
198.715	26.1
198.936	18.81
199.156	26.87
199.377	42.68
199.597	33.87
199.817	41.64
200.038	28.2
200.258	42.21
200.479	25.67
200.699	27.23
200.919	29.09
201.14	68.71
201.36	42.47
201.58	120.66
201.801	129.98
202.021	89.5
202.241	86.74
202.461	106.05
202.682	86.15
202.902	84.87
203.122	128.13
203.342	116.21
203.563	97.7
203.783	85.31
204.003	63.85
204.223	51.97
204.443	36.58
204.663	46.09
204.884	56.84
205.104	48.56
205.324	43.47
205.544	53.97
205.764	45.31
205.984	43.35
206.204	45.87
206.424	55.21
206.644	67.39
206.864	62.48
207.084	67.57
207.304	71.56
207.525	64.68
207.745	74.03
207.964	52.47
208.184	28.75
208.404	24.93
208.624	38.93
208.844	27.79
209.064	34.16
209.284	43.89
209.504	37.43
209.724	38.18
209.944	36.92
210.164	45.93
210.384	66.53
210.604	67.61
210.823	74.82
211.043	58.16
211.263	51.26
211.483	44.79
211.703	44.65
211.922	32.89
212.142	48.41
212.362	75.7
212.582	44.09
212.801	54.43
213.021	32.4
213.241	21.94
213.461	-9.45
213.68	-25.69
213.9	-42.61
214.12	-44.07
214.339	-47.32
214.559	0.88
214.779	19.53
214.998	44.94
215.218	46.71
215.438	42.54
215.657	49.68
215.877	50.91
216.096	46.31
216.316	46.95
216.535	45.05
216.755	37.35
216.974	41.26
217.194	25.84
217.413	56.19
217.633	77.25
217.852	57.32
218.072	65.03
218.291	37.5
218.511	24.79
218.73	14.49
218.95	27.08
219.169	18.66
219.389	31.86
219.608	30.58
219.827	59.46
220.047	47.76
220.266	40.37
220.485	63.36
220.705	47.19
220.924	23.38
221.143	42.41
221.363	24.51
221.582	27.52
221.801	66.59
222.021	70.06
222.24	51.36
222.459	64.3
222.678	42.14
222.897	40.35
223.117	53.37
223.336	93.42
223.555	107.51
223.774	115.29
223.993	100.06
224.213	83.34
224.432	57
224.651	49.28
224.87	39.81
225.089	-1.11
225.308	3.8
225.527	18.79
225.746	9.17
225.965	37.27
226.184	46.78
226.404	31.85
226.623	31.98
226.842	59.19
227.061	55.49
227.28	54.88
227.499	46.27
227.718	42.7
227.936	36.05
228.155	31.19
228.374	32.75
228.593	43.91
228.812	40.95
229.031	29.93
229.25	25.34
229.469	18.77
229.688	7.34
229.907	3.85
230.125	3.75
230.344	18.33
230.563	34.06
230.782	24.63
231.001	35.24
231.22	36.8
231.438	18.12
231.657	-0.82
231.876	23.05
232.095	7.56
232.313	6.04
232.532	2.25
232.751	28.36
232.969	42.83
233.188	66.89
233.407	74.71
233.625	66.89
233.844	50.3
234.063	32.99
234.281	25
234.5	20.71
234.719	22.6
234.937	30.37
235.156	25.78
235.374	39.54
235.593	47.75
235.811	35.77
236.03	39.94
236.249	60.61
236.467	46.2
236.686	45
236.904	49.99
237.123	46.72
237.341	49.89
237.559	62.15
237.778	47.3
237.996	31.43
238.215	39.74
238.433	33.86
238.652	19.86
238.87	14.72
239.088	46.26
239.307	29.73
239.525	13.37
239.743	9.04
239.962	34.52
240.18	19.18
240.398	21.15
240.617	25.11
240.835	34.13
241.053	25.8
241.271	35.43
241.49	32.88
241.708	43.91
241.926	39.33
242.144	53.29
242.363	40.79
242.581	51.41
242.799	36.87
243.017	43.95
243.235	39.47
243.453	34.7
243.672	35.22
243.89	44.01
244.108	44.25
244.326	28.32
244.544	27.06
244.762	25.85
244.98	20.19
245.198	19.55
245.416	21.56
245.634	25.33
245.852	23.79
246.07	30.32
246.288	29.27
246.506	28.14
246.724	22.37
246.942	13.67
247.16	12.01
247.378	22.32
247.596	46.21
247.814	57.85
248.032	59.67
248.25	64.43
248.468	63.14
248.685	49.16
248.903	38.83
249.121	60.31
249.339	50.43
249.557	37.27
249.775	31.46
249.992	34.53
250.21	29.75
250.428	17.96
250.646	12.9
250.863	0.9
251.081	-32.46
251.299	-47
251.517	-24.46
251.734	-18.14
251.952	-18.32
252.17	-1.02
252.387	28.79
252.605	31.14
252.823	49.22
253.04	53.42
253.258	61.98
253.475	47.37
253.693	48.27
253.911	39
254.128	-5.09
254.346	31.85
254.563	28.28
254.781	11.34
254.998	28.03
255.216	40.74
255.433	-9.24
255.651	12.03
255.868	8.05
256.086	3.83
256.303	11.29
256.521	6.72
256.738	-2.58
256.956	-5.49
257.173	-11.07
257.39	28.11
257.608	40.83
257.825	58.66
258.043	62.78
258.26	53.56
258.477	52.77
258.695	46.72
258.912	42.71
259.129	58.78
259.346	73.23
259.564	77.29
259.781	71.59
259.998	80.46
260.216	63.51
260.433	49.15
260.65	45.66
260.867	65.77
261.084	62.27
261.302	62.14
261.519	53.2
261.736	52.96
261.953	26.95
262.17	19.53
262.387	32.77
262.604	36.09
262.822	37.98
263.039	51.92
263.256	55.82
263.473	56.72
263.69	68.84
263.907	77.81
264.124	65.95
264.341	76.65
264.558	62.22
264.775	52.45
264.992	22.38
265.209	42.67
265.426	30.76
265.643	14.28
265.86	27.9
266.077	22.6
266.294	22.89
266.51	33.3
266.727	53.4
266.944	61.69
267.161	71
267.378	72.05
267.595	61.73
267.812	39.68
268.028	17.01
268.245	20.95
268.462	25.76
268.679	26.32
268.896	30.65
269.112	30.78
269.329	23.6
269.546	31.44
269.763	33.9
269.979	34.46
270.196	48.32
270.413	47.2
270.629	19.41
270.846	13.94
271.063	18.79
271.279	2.75
271.496	9.85
271.712	20.88
271.929	29.91
272.146	30.52
272.362	38.84
272.579	44.11
272.795	50.07
273.012	34.43
273.228	38.49
273.445	34.32
273.661	26.52
273.878	33.37
274.094	47.16
274.311	42.58
274.527	47.69
274.744	41.87
274.96	36.48
275.177	47.13
275.393	44.83
275.609	10.1
275.826	18.1
276.042	17.5
276.259	-16.39
276.475	-0.56
276.691	23.5
276.908	29.56
277.124	27.05
277.34	43.14
277.557	39.07
277.773	49.15
277.989	46.02
278.205	59.45
278.422	45.11
278.638	51.79
278.854	52.34
279.07	43.73
279.286	45.93
279.503	55.64
279.719	42.45
279.935	48.48
280.151	51.18
280.367	29.3
280.583	13.76
280.799	23.73
281.016	5.62
281.232	-4.09
281.448	24.32
281.664	29.29
281.88	7.52
282.096	5.01
282.312	1.58
282.528	3.27
282.744	30.88
282.96	49.44
283.176	37.66
283.392	32.62
283.608	29.2
283.824	17.7
284.04	22.13
284.256	26.84
284.471	49.46
284.687	61.39
284.903	62.21
285.119	56.32
285.335	77.3
285.551	66.94
285.767	49
285.982	56.29
286.198	61.68
286.414	55.97
286.63	46.36
286.846	46.65
287.061	39.76
287.277	30.17
287.493	30
287.709	8.76
287.924	11.52
288.14	7.91
288.356	16.83
288.571	9.92
288.787	28.19
289.003	28.26
289.218	33.13
289.434	22.17
289.65	35.07
289.865	35.6
290.081	46.91
290.296	45.53
290.512	48.9
290.727	36.35
290.943	23.27
291.159	7.21
291.374	27.42
291.59	27.53
291.805	23.91
292.021	45.63
292.236	55.47
292.451	42.04
292.667	40.66
292.882	36.94
293.098	34.02
293.313	31.18
293.529	36.57
293.744	47.8
293.959	70.6
294.175	70.15
294.39	63.7
294.605	51.1
294.821	50.18
295.036	27.57
295.251	23.71
295.467	23.91
295.682	21.86
295.897	10.73
296.112	15.71
296.328	7.62
296.543	18.86
296.758	18.99
296.973	31.04
297.188	42.39
297.404	47.35
297.619	46.8
297.834	47.84
298.049	41.07
298.264	29.29
298.479	21.29
298.694	28.68
298.909	20.56
299.125	17.32
299.34	-0.28
299.555	13.98
299.77	17.63
299.985	26.1
300.2	18.4
300.415	36.73
300.63	44.42
300.845	28.65
301.06	36.65
301.275	46.4
301.49	44.94
301.704	56.73
301.919	75.55
302.134	66.08
302.349	57.1
302.564	51.89
302.779	36.69
302.994	21.29
303.209	23.61
303.423	38.57
303.638	49.59
303.853	43.59
304.068	48.03
304.283	55.24
304.497	38.24
304.712	21.06
304.927	18.6
305.142	15.49
305.356	-3.18
305.571	5.19
305.786	16.94
306	33.51
306.215	26.38
306.43	35.09
306.644	48.01
306.859	38.74
307.074	23.79
307.288	32.56
307.503	34.81
307.717	28.94
307.932	50.88
308.147	45.22
308.361	48.42
308.576	45.05
308.79	42.09
309.005	9.81
309.219	17.37
309.434	14.9
309.648	32.23
309.863	23.69
310.077	42.99
310.292	40.27
310.506	30.32
310.72	24.5
310.935	30.95
311.149	14.75
311.364	29.7
311.578	47.2
311.792	24.56
312.007	16.54
312.221	24.6
312.435	16.62
312.649	10.75
312.864	42.46
313.078	47.6
313.292	48.44
313.507	48.02
313.721	41.99
313.935	23.99
314.149	34.03
314.363	30.24
314.578	27.76
314.792	33.16
315.006	40.19
315.22	27.03
315.434	8.48
315.648	19.25
315.862	11.95
316.077	9.45
316.291	42.15
316.505	62.1
316.719	59.69
316.933	58.5
317.147	58.97
317.361	48.06
317.575	50.19
317.789	34.22
318.003	18.04
318.217	21.23
318.431	24.55
318.645	22.33
318.859	25.04
319.073	26.38
319.287	21.82
319.5	23.99
319.714	16.28
319.928	28.12
320.142	32.1
320.356	43.02
320.57	43.12
320.784	50.98
320.997	47.82
321.211	50.53
321.425	46.26
321.639	45.81
321.853	47.84
322.066	54.59
322.28	52.78
322.494	51.23
322.707	39.83
322.921	40.95
323.135	31.19
323.349	25.15
323.562	16.17
323.776	23.62
323.989	30.74
324.203	20.39
324.417	30.27
324.63	45.93
324.844	49.25
325.057	50.89
325.271	60.94
325.485	40.59
325.698	31.01
325.912	48.02
326.125	28.1
326.339	22.53
326.552	35.33
326.766	27.99
326.979	16.59
327.193	34.91
327.406	41.53
327.619	41.25
327.833	45.41
328.046	43.36
328.26	18.32
328.473	26.73
328.686	18.63
328.9	26.24
329.113	26.65
329.326	51.78
329.54	57.3
329.753	51.57
329.966	44.09
330.179	27.71
330.393	24.93
330.606	23.68
330.819	23.49
331.032	31.7
331.246	57.19
331.459	67.08
331.672	65.53
331.885	73.68
332.098	64.93
332.311	55
332.525	41.97
332.738	53.88
332.951	39.54
333.164	32.79
333.377	46.55
333.59	44.26
333.803	23.66
334.016	35.87
334.229	33.02
334.442	22.75
334.655	6.53
334.868	12.23
335.081	-4.64
335.294	11.39
335.507	18.44
335.72	31.78
335.933	32.25
336.146	44.02
336.359	28.49
336.572	20.82
336.785	18.27
336.997	18.29
337.21	17.54
337.423	46.37
337.636	45.7
337.849	30.05
338.062	44.31
338.274	47.73
338.487	36.58
338.7	37.5
338.913	35.05
339.125	22.98
339.338	10.15
339.551	-1.86
339.763	3.44
339.976	7.82
340.189	6.23
340.402	18.99
340.614	34.09
340.827	32.21
341.039	48.73
341.252	35.4
341.465	51.37
341.677	33.6
341.89	21.6
342.102	30.3
342.315	49.79
342.527	51.67
342.74	50.46
342.952	64.94
343.165	43.71
343.377	43.99
343.59	30.1
343.802	38.25
344.015	30.85
344.227	35.11
344.44	25.68
344.652	25.29
344.864	14.05
345.077	-3.06
345.289	1.86
345.502	3.98
345.714	-25.7
345.926	-32.39
346.139	-4.81
346.351	2.07
346.563	13.13
346.775	30.71
346.988	24.16
347.2	28.56
347.412	34.59
347.624	33.83
347.837	31.15
348.049	50.5
348.261	57.54
348.473	22.78
348.685	30.25
348.897	37.27
349.11	32.14
349.322	26.36
349.534	35.25
349.746	24.82
349.958	17.81
350.17	12.52
350.382	15.11
350.594	22.97
350.806	34.87
351.018	46.11
351.23	51.3
351.442	51.37
351.654	41.89
351.866	36.64
352.078	28.49
352.29	33.17
352.502	24.65
352.714	34.16
352.926	35.47
353.138	32.01
353.35	18.67
353.561	18.63
353.773	19.08
353.985	25.48
354.197	28.37
354.409	36.36
354.621	37.57
354.832	27.61
355.044	26.85
355.256	24.89
355.468	15.14
355.679	19.74
355.891	16.21
356.103	11.87
356.314	17.42
356.526	34.22
356.738	37.6
356.949	47.53
357.161	54.73
357.373	63.4
357.584	56.7
357.796	52.01
358.008	44.62
358.219	36.48
358.431	25.4
358.642	17.74
358.854	16.37
359.065	20.46
359.277	11.09
359.488	22.3
359.7	42.64
359.911	41.85
360.123	23.57
360.334	26.66
360.546	36.34
360.757	34.16
360.969	34.12
361.18	51.02
361.391	51.34
361.603	48.78
361.814	37.55
362.025	30.1
362.237	14.23
362.448	16.67
362.659	-1.53
362.871	10.36
363.082	15.11
363.293	24.83
363.504	18.03
363.716	22.06
363.927	18.47
364.138	19.27
364.349	15.17
364.56	15.95
364.772	24.29
364.983	20.16
365.194	21.4
365.405	25.46
365.616	27.53
365.827	20.28
366.038	22.61
366.25	12.41
366.461	20.91
366.672	12.38
366.883	-1.21
367.094	0.23
367.305	6.23
367.516	0.24
367.727	14.08
367.938	28.91
368.149	33.82
368.36	41.34
368.571	33.5
368.781	26.96
368.992	23.9
369.203	7.7
369.414	7.92
369.625	-1.58
369.836	4.69
370.047	3.31
370.258	12.02
370.468	6.27
370.679	3.75
370.89	6.04
371.101	13.36
371.312	18.79
371.522	12.84
371.733	22.86
371.944	15.45
372.155	19.97
372.365	23.88
372.576	33.83
372.787	38.7
372.997	36.55
373.208	30.13
373.419	22
373.629	7.15
373.84	5.21
374.05	14.47
374.261	21.42
374.472	28.24
374.682	39.62
374.893	34.8
375.103	21.95
375.314	25.4
375.524	25.18
375.735	15.62
375.945	10.93
376.156	24.09
376.366	15.49
376.577	6.2
376.787	12.56
376.997	15.37
377.208	10.31
377.418	11.34
377.629	16.73
377.839	17.41
378.049	22.06
378.26	24.36
378.47	17.81
378.68	18.32
378.89	14.99
379.101	4.78
379.311	11.46
379.521	23.44
379.732	13.73
379.942	20.79
380.152	20.36
380.362	12.03
380.572	18.81
380.783	15.31
380.993	12.8
381.203	13.38
381.413	6.21
381.623	-4.43
381.833	11.51
382.043	13.02
382.253	18.64
382.463	30.38
382.674	34.28
382.884	22.35
383.094	20.23
383.304	24.24
383.514	23.05
383.724	27.88
383.934	32.66
384.144	39.6
384.353	35.66
384.563	26.11
384.773	21.4
384.983	24
385.193	17.08
385.403	14.91
385.613	26.16
385.823	19.62
386.033	13.75
386.242	10.34
386.452	5.29
386.662	5.47
386.872	11
387.082	6.39
387.291	11.81
387.501	17.52
387.711	18.38
387.921	17.91
388.13	23.18
388.34	18.77
388.55	17.14
388.759	11.03
388.969	5.56
389.179	7.01
389.388	4.55
389.598	6.87
389.807	10.17
390.017	11.8
390.227	7.75
390.436	15.34
390.646	12.5
390.855	13.64
391.065	12.72
391.274	12.46
391.484	10.36
391.693	11.84
391.903	7.5
392.112	6.64
392.322	6.1
392.531	4.78
392.74	3.7
392.95	3.98
393.159	6.02
393.369	7.99
393.578	8.51
393.787	9.26
393.997	10.76
394.206	9.73
394.415	8
394.625	8.13
394.834	6.59
395.043	6.12
395.252	7.15
395.462	6.72
395.671	5.35
395.88	7.19
396.089	5.77
396.298	4.36
396.508	3.94
396.717	3.93
396.926	2.82
397.135	2.8
397.344	2.69
397.553	3.21
397.762	3.58
397.971	3.14
398.181	2.79
398.39	3.69
398.599	4.07
398.808	3.62
399.017	4.81
399.226	5.7
399.435	5.48
399.644	5.84
399.853	6.02
400.062	4.96
400.27	4.78
400.479	4.64
400.688	4.34
400.897	4.26
401.106	4.19
401.315	4.02
401.524	3.71
401.733	3.16
401.941	3.12
402.15	3.39
402.359	3.38
402.568	3.74
402.777	3.89
402.985	3.64
403.194	3.67
403.403	3.66
403.612	3.35
403.82	3.32
404.029	3.47
404.238	3.39
404.446	3.42
404.655	3.38
404.864	3.76
405.072	3.77
405.281	3.9
405.489	3.9
405.698	4.09
405.906	3.89
406.115	4.07
406.324	3.85
406.532	3.82
406.741	3.67
406.949	3.65
407.158	3.61
407.366	3.73
407.574	3.74
407.783	3.73
407.991	3.82
408.2	3.87
408.408	3.84
408.617	3.67
408.825	3.84
409.033	3.89
409.242	3.83
409.45	3.85
409.658	3.9
409.867	3.73
410.075	3.59
410.283	3.41
410.491	3.27
410.7	3.41
410.908	3.39
411.116	3.53
411.324	3.71
411.533	3.73
411.741	3.7
411.949	3.89
412.157	3.68
412.365	3.82
412.573	3.97
412.781	3.9
412.99	3.82
413.198	3.96
413.406	3.73
413.614	3.74
413.822	3.67
414.03	3.64
414.238	3.59
414.446	3.56
414.654	3.61
414.862	3.64
415.07	3.63
415.278	3.63
415.486	3.52
415.694	3.45
415.902	3.54
416.109	3.46
416.317	3.51
416.525	3.62
416.733	3.53
416.941	3.53
417.149	3.55
417.357	3.5
417.564	3.54
417.772	3.7
417.98	3.68
418.188	3.55
418.395	3.42
418.603	3.36
418.811	3.33
419.019	3.17
419.226	3.46
419.434	3.62
419.642	3.49
419.849	3.31
420.057	3.31
420.265	3.27
420.472	3.16
420.68	3.26
420.887	3.44
421.095	3.45
421.302	3.2
421.51	3.19
421.717	3.24
421.925	3.31
422.132	3.36
422.34	3.47
422.547	3.4
422.755	3.42
422.962	3.26
423.17	3.14
423.377	3.17
423.585	3.25
423.792	3.11
423.999	3.12
424.207	3.13
424.414	3.21
424.621	3.18
424.829	3.13
425.036	3.1
425.243	3.22
425.451	3.21
425.658	3.15
425.865	3.28
426.072	3.29
426.28	3.26
426.487	3.24
426.694	3.36
426.901	3.28
427.108	3.29
427.315	3.18
427.523	3.18
427.73	3
427.937	2.99
428.144	2.96
428.351	3.11
428.558	3.1
428.765	3.1
428.972	3.19
429.179	3.05
429.386	3.1
429.593	3.19
429.8	3.26
430.007	3.33
430.214	3.49
430.421	3.46
430.628	3.4
430.835	3.46
431.042	3.41
431.249	3.33
431.456	3.21
431.662	3.15
431.869	3.26
432.076	3.32
432.283	3.33
432.49	3.28
432.697	3.19
432.903	3.04
433.11	2.99
433.317	3.04
433.524	3.18
433.73	3.16
433.937	3.21
434.144	3.1
434.35	3.2
434.557	3.11
434.764	3.14
434.97	3.08
435.177	3.26
435.384	3.12
435.59	3.36
435.797	3.45
436.003	3.56
436.21	3.52
436.416	3.43
436.623	3.31
436.829	3.28
437.036	3.1
437.242	3.18
437.449	3.36
437.655	3.32
437.862	3.32
438.068	3.5
438.275	3.46
438.481	3.26
438.687	3.22
438.894	3.32
439.1	3.16
439.307	3.17
439.513	3.37
439.719	3.41
439.926	3.36
440.132	3.41
440.338	3.28
440.544	3.15
440.751	3.13
440.957	3.12
441.163	3.14
441.369	3.26
441.575	3.32
441.782	3.39
441.988	3.38
442.194	3.38
442.4	3.34
442.606	3.36
442.812	3.37
443.018	3.3
443.224	3.29
443.431	3.33
443.637	3.3
443.843	3.28
444.049	3.37
444.255	3.43
444.461	3.4
444.667	3.47
444.873	3.47
445.079	3.46
445.284	3.41
445.49	3.47
445.696	3.45
445.902	3.48
446.108	3.53
446.314	3.57
446.52	3.53
446.726	3.53
446.931	3.59
447.137	3.48
447.343	3.54
447.549	3.51
447.755	3.49
447.96	3.44
448.166	3.48
448.372	3.44
448.578	3.51
448.783	3.47
448.989	3.4
449.195	3.45
449.4	3.52
449.606	3.43
449.812	3.43
450.017	3.53
450.223	3.46
450.428	3.4
450.634	3.43
450.84	3.48
451.045	3.43
451.251	3.52
451.456	3.49
451.662	3.55
451.867	3.63
452.073	3.66
452.278	3.62
452.483	3.65
452.689	3.61
452.894	3.57
453.1	3.53
453.305	3.55
453.51	3.64
453.716	3.65
453.921	3.65
454.127	3.7
454.332	3.73
454.537	3.65
454.742	3.67
454.948	3.59
455.153	3.65
455.358	3.69
455.563	3.72
455.769	3.68
455.974	3.73
456.179	3.58
456.384	3.43
456.589	3.46
456.795	3.5
457	3.51
457.205	3.6
457.41	3.66
457.615	3.67
457.82	3.72
458.025	3.71
458.23	3.68
458.435	3.67
458.64	3.55
458.845	3.47
459.05	3.43
459.255	3.49
459.46	3.52
459.665	3.67
459.87	3.73
460.075	3.84
460.28	3.83
460.485	3.82
460.69	3.79
460.895	3.78
461.099	3.76
461.304	3.74
461.509	3.72
461.714	3.72
461.919	3.78
462.123	3.85
462.328	3.93
462.533	4.07
462.738	4.09
462.942	4.02
463.147	3.94
463.352	3.89
463.556	3.85
463.761	3.8
463.966	3.85
464.17	3.88
464.375	3.96
464.58	3.94
464.784	4.01
464.989	3.95
465.193	4.02
465.398	3.96
465.602	4.01
465.807	4.01
466.011	4.12
466.216	4.01
466.42	4
466.625	4.01
466.829	3.96
467.034	3.97
467.238	4.03
467.443	4.09
467.647	4.04
467.851	3.98
468.056	3.93
468.26	3.98
468.464	3.92
468.669	3.94
468.873	4.04
469.077	4.03
469.282	4
469.486	3.99
469.69	4.02
469.894	3.98
470.099	4.07
470.303	4.14
470.507	4.29
470.711	4.27
470.915	4.34
471.119	4.36
471.324	4.3
471.528	4.16
471.732	4.22
471.936	4.2
472.14	4.15
472.344	4.23
472.548	4.33
472.752	4.37
472.956	4.38
473.16	4.47
473.364	4.41
473.568	4.38
473.772	4.38
473.976	4.5
474.18	4.44
474.384	4.45
474.588	4.46
474.792	4.45
474.995	4.39
475.199	4.45
475.403	4.48
475.607	4.52
475.811	4.47
476.015	4.45
476.218	4.4
476.422	4.34
476.626	4.31
476.83	4.35
477.033	4.41
477.237	4.46
477.441	4.48
477.644	4.47
477.848	4.42
478.052	4.37
478.255	4.25
478.459	4.22
478.663	4.3
478.866	4.36
479.07	4.35
479.273	4.5
479.477	4.67
479.681	4.62
479.884	4.56
480.088	4.61
480.291	4.58
480.495	4.53
480.698	4.52
480.901	4.62
481.105	4.6
481.308	4.52
481.512	4.51
481.715	4.57
481.919	4.57
482.122	4.6
482.325	4.66
482.529	4.65
482.732	4.67
482.935	4.68
483.138	4.68
483.342	4.66
483.545	4.64
483.748	4.55
483.952	4.58
484.155	4.6
484.358	4.62
484.561	4.65
484.764	4.68
484.967	4.63
485.171	4.63
485.374	4.71
485.577	4.69
485.78	4.73
485.983	4.79
486.186	4.73
486.389	4.72
486.592	4.71
486.795	4.69
486.998	4.61
487.201	4.66
487.404	4.64
487.607	4.68
487.81	4.67
488.013	4.79
488.216	4.73
488.419	4.73
488.622	4.72
488.825	4.68
489.028	4.65
489.231	4.7
489.433	4.71
489.636	4.68
489.839	4.68
490.042	4.61
490.245	4.62
490.447	4.58
490.65	4.64
490.853	4.66
491.056	4.67
491.258	4.61
491.461	4.63
491.664	4.6
491.866	4.55
492.069	4.61
492.272	4.67
492.474	4.65
492.677	4.61
492.879	4.64
493.082	4.67
493.285	4.63
493.487	4.62
493.69	4.64
493.892	4.63
494.095	4.56
494.297	4.6
494.5	4.71
494.702	4.72
494.905	4.7
495.107	4.66
495.309	4.66
495.512	4.6
495.714	4.58
495.917	4.63
496.119	4.7
496.321	4.68
496.524	4.64
496.726	4.68
496.928	4.61
497.13	4.59
497.333	4.6
497.535	4.65
497.737	4.67
497.939	4.75
498.142	4.8
498.344	4.79
498.546	4.81
498.748	4.8
498.95	4.82
499.152	4.77
499.355	4.79
499.557	4.78
499.759	4.81
499.961	4.83
500.163	4.85
500.365	4.87
500.567	4.83
500.769	4.83
500.971	4.79
501.173	4.79
501.375	4.79
501.577	4.82
501.779	4.81
501.981	4.82
502.183	4.81
502.385	4.8
502.587	4.77
502.788	4.83
502.99	4.83
503.192	4.85
503.394	4.88
503.596	4.92
503.798	4.89
503.999	4.9
504.201	4.91
504.403	4.91
504.605	4.92
504.806	4.97
505.008	4.95
505.21	4.94
505.411	4.95
505.613	4.92
505.815	4.93
506.016	4.99
506.218	4.98
506.42	4.94
506.621	4.97
506.823	4.98
507.024	4.91
507.226	4.96
507.427	5.01
507.629	5
507.83	5.04
508.032	5.1
508.233	5.16
508.435	5.18
508.636	5.23
508.838	5.17
509.039	5.16
509.24	5.1
509.442	5.04
509.643	5.05
509.845	5.04
510.046	5.05
510.247	5
510.448	5.07
510.65	5.05
510.851	5.03
511.052	5.05
511.254	5.15
511.455	5.11
511.656	5.08
511.857	5.12
512.058	5.12
512.26	5.08
512.461	5.16
512.662	5.22
512.863	5.2
513.064	5.19
513.265	5.27
513.466	5.29
513.667	5.31
513.868	5.29
514.069	5.31
514.27	5.2
514.471	5.16
514.672	5.13
514.873	5.14
515.074	5.13
515.275	5.17
515.476	5.11
515.677	5.1
515.878	5.15
516.079	5.2
516.28	5.22
516.481	5.29
516.682	5.36
516.882	5.38
517.083	5.34
517.284	5.42
517.485	5.4
517.686	5.39
517.886	5.44
518.087	5.46
518.288	5.41
518.488	5.41
518.689	5.4
518.89	5.38
519.091	5.32
519.291	5.34
519.492	5.37
519.692	5.4
519.893	5.41
520.094	5.47
520.294	5.48
520.495	5.44
520.695	5.43
520.896	5.45
521.096	5.48
521.297	5.49
521.497	5.57
521.698	5.53
521.898	5.5
522.099	5.5
522.299	5.49
522.499	5.45
522.7	5.51
522.9	5.56
523.101	5.54
523.301	5.55
523.501	5.56
523.702	5.52
523.902	5.51
524.102	5.54
524.302	5.56
524.503	5.56
524.703	5.6
524.903	5.61
525.103	5.61
525.304	5.61
525.504	5.64
525.704	5.63
525.904	5.65
526.104	5.65
526.304	5.67
526.504	5.68
526.705	5.69
526.905	5.65
527.105	5.68
527.305	5.68
527.505	5.63
527.705	5.66
527.905	5.68
528.105	5.66
528.305	5.67
528.505	5.72
528.705	5.71
528.905	5.74
529.105	5.73
529.304	5.78
529.504	5.77
529.704	5.77
529.904	5.8
530.104	5.84
530.304	5.8
530.503	5.8
530.703	5.81
530.903	5.79
531.103	5.83
531.303	5.87
531.502	5.93
531.702	5.95
531.902	5.98
532.101	5.94
532.301	5.96
532.501	5.96
532.7	6.03
532.9	6.01
533.1	6.01
533.299	5.98
533.499	5.99
533.698	5.93
533.898	5.97
534.097	6.03
534.297	6.01
534.496	6
534.696	6.06
534.895	6.03
535.095	6.05
535.294	6.06
535.494	6.08
535.693	6.09
535.892	6.12
536.092	6.12
536.291	6.19
536.491	6.21
536.69	6.22
536.889	6.22
537.088	6.26
537.288	6.29
537.487	6.31
537.686	6.32
537.886	6.4
538.085	6.35
538.284	6.39
538.483	6.42
538.682	6.44
538.882	6.41
539.081	6.5
539.28	6.44
539.479	6.43
539.678	6.48
539.877	6.48
540.076	6.52
540.275	6.62
540.474	6.61
540.673	6.57
540.872	6.61
541.071	6.61
541.27	6.64
541.469	6.72
541.668	6.78
541.867	6.86
542.066	6.85
542.265	6.88
542.464	6.9
542.663	6.9
542.862	6.92
543.06	6.98
543.259	6.99
543.458	7
543.657	7.07
543.856	7.09
544.054	7.04
544.253	7.05
544.452	7.13
544.651	7.09
544.849	7.13
545.048	7.24
545.247	7.23
545.445	7.23
545.644	7.28
545.843	7.33
546.041	7.3
546.24	7.33
546.438	7.38
546.637	7.45
546.836	7.49
547.034	7.58
547.233	7.65
547.431	7.7
547.63	7.74
547.828	7.77
548.027	7.78
548.225	7.89
548.423	7.94
548.622	7.96
548.82	7.98
549.019	8.06
549.217	8.01
549.415	8.02
549.614	8.11
549.812	8.17
550.01	8.21
550.209	8.33
550.407	8.41
550.605	8.36
550.803	8.35
551.002	8.4
551.2	8.45
551.398	8.52
551.596	8.66
551.794	8.75
551.993	8.81
552.191	8.9
552.389	8.95
552.587	8.98
552.785	9.04
552.983	9.11
553.181	9.15
553.379	9.18
553.577	9.33
553.775	9.44
553.973	9.51
554.171	9.53
554.369	9.58
554.567	9.58
554.765	9.58
554.963	9.67
555.161	9.8
555.359	9.93
555.557	10.03
555.755	10.17
555.952	10.25
556.15	10.31
556.348	10.35
556.546	10.45
556.744	10.55
556.941	10.63
557.139	10.74
557.337	10.83
557.535	10.87
557.732	10.91
557.93	10.97
558.128	11.04
558.325	11.18
558.523	11.31
558.721	11.38
558.918	11.46
559.116	11.62
559.313	11.69
559.511	11.73
559.708	11.88
559.906	11.96
560.104	11.96
560.301	12.05
560.498	12.21
560.696	12.27
560.893	12.38
561.091	12.51
561.288	12.68
561.486	12.77
561.683	12.89
561.88	12.94
562.078	13.03
562.275	13.11
562.473	13.15
562.67	13.24
562.867	13.35
563.064	13.49
563.262	13.49
563.459	13.65
563.656	13.74
563.853	13.84
564.051	13.91
564.248	13.99
564.445	14.06
564.642	14.14
564.839	14.24
565.036	14.39
565.234	14.48
565.431	14.58
565.628	14.73
565.825	14.81
566.022	14.86
566.219	14.96
566.416	15.02
566.613	15.04
566.81	15.19
567.007	15.34
567.204	15.46
567.401	15.55
567.598	15.7
567.795	15.74
567.991	15.77
568.188	15.9
568.385	16.02
568.582	16.09
568.779	16.2
568.976	16.25
569.172	16.32
569.369	16.39
569.566	16.43
569.763	16.59
569.96	16.65
570.156	16.7
570.353	16.77
570.55	16.92
570.746	16.81
570.943	16.91
571.14	16.94
571.336	16.97
571.533	16.97
571.729	17.08
571.926	17.14
572.123	17.15
572.319	17.2
572.516	17.24
572.712	17.28
572.909	17.33
573.105	17.48
573.302	17.51
573.498	17.54
573.695	17.67
573.891	17.62
574.087	17.58
574.284	17.63
574.48	17.64
574.677	17.6
574.873	17.68
575.069	17.67
575.266	17.69
575.462	17.71
575.658	17.76
575.854	17.83
576.051	17.85
576.247	17.93
576.443	18.04
576.639	18.07
576.835	18.08
577.032	18.17
577.228	18.15
577.424	18.09
577.62	18.06
577.816	18.04
578.012	18.04
578.208	18.01
578.404	18.08
578.6	18.08
578.796	18.05
578.993	18.04
579.189	17.99
579.384	17.91
579.58	17.93
579.776	18.05
579.972	18.03
580.168	18.09
580.364	18.18
580.56	18.19
580.756	18.08
580.952	18.1
581.148	18.09
581.343	18.03
581.539	18.01
581.735	18.09
581.931	18.07
582.127	18.07
582.322	18.07
582.518	18.11
582.714	18.1
582.909	18.08
583.105	18.11
583.301	18.09
583.496	18.02
583.692	17.97
583.888	17.98
584.083	17.9
584.279	17.93
584.474	17.89
584.67	17.85
584.866	17.8
585.061	17.75
585.257	17.74
585.452	17.77
585.648	17.76
585.843	17.73
586.039	17.86
586.234	17.93
586.429	17.93
586.625	18.02
586.82	18.08
587.015	18.03
587.211	17.9
587.406	17.98
587.601	17.98
587.797	18.02
587.992	18.06
588.187	18.1
588.383	18.15
588.578	18.12
588.773	18.09
588.968	18.1
589.163	18.15
589.359	18.12
589.554	18.15
589.749	18.22
589.944	18.21
590.139	18.23
590.334	18.29
590.529	18.33
590.724	18.32
590.919	18.38
591.114	18.47
591.309	18.44
591.504	18.45
591.699	18.45
591.894	18.45
592.089	18.48
592.284	18.46
592.479	18.52
592.674	18.63
592.869	18.72
593.064	18.69
593.259	18.8
593.454	18.84
593.648	18.78
593.843	18.92
594.038	19.02
594.233	19.06
594.428	19.17
594.622	19.38
594.817	19.31
595.012	19.33
595.206	19.38
595.401	19.48
595.596	19.51
595.79	19.63
595.985	19.69
596.18	19.75
596.374	19.91
596.569	19.94
596.763	20.12
596.958	20.27
597.153	20.41
597.347	20.38
597.542	20.44
597.736	20.43
597.931	20.44
598.125	20.53
598.319	20.5
598.514	20.62
598.708	20.65
598.903	20.69
599.097	20.7
599.291	20.84
599.486	20.86
599.68	20.89
599.874	20.94
600.069	21.06
600.263	21.14
600.457	21.18
600.651	21.2
600.846	21.29
601.04	21.22
601.234	21.2
601.428	21.29
601.622	21.34
601.817	21.35
602.011	21.37
602.205	21.41
602.399	21.31
602.593	21.38
602.787	21.4
602.981	21.49
603.175	21.54
603.369	21.6
603.563	21.52
603.757	21.55
603.951	21.43
604.145	21.34
604.339	21.36
604.533	21.4
604.727	21.31
604.921	21.36
605.115	21.42
605.309	21.33
605.502	21.36
605.696	21.42
605.89	21.31
606.084	21.26
606.278	21.24
606.471	21.16
606.665	21.09
606.859	21.1
607.053	21.03
607.246	21.01
607.44	20.96
607.634	20.9
607.827	20.86
608.021	20.7
608.214	20.64
608.408	20.59
608.602	20.55
608.795	20.51
608.989	20.58
609.182	20.45
609.376	20.29
609.569	20.17
609.763	20.03
609.956	19.86
610.15	19.84
610.343	19.82
610.537	19.78
610.73	19.75
610.923	19.7
611.117	19.57
611.31	19.55
611.504	19.48
611.697	19.37
611.89	19.33
612.083	19.35
612.277	19.21
612.47	19.17
612.663	19.16
612.856	19.05
613.05	18.92
613.243	18.84
613.436	18.66
613.629	18.6
613.822	18.59
614.015	18.58
614.209	18.51
614.402	18.46
614.595	18.35
614.788	18.23
614.981	18.12
615.174	18.09
615.367	18.05
615.56	18.01
615.753	17.95
615.946	17.96
616.139	17.84
616.332	17.81
616.525	17.75
616.718	17.68
616.911	17.55
617.103	17.53
617.296	17.44
617.489	17.4
617.682	17.38
617.875	17.36
618.067	17.3
618.26	17.31
618.453	17.22
618.646	17.18
618.838	17.16
619.031	17.12
619.224	17.06
619.417	17.07
619.609	16.99
619.802	16.9
619.994	16.87
620.187	16.76
620.38	16.67
620.572	16.66
620.765	16.65
620.957	16.65
621.15	16.63
621.342	16.65
621.535	16.59
621.727	16.56
621.92	16.48
622.112	16.51
622.305	16.48
622.497	16.52
622.69	16.45
622.882	16.41
623.074	16.33
623.267	16.29
623.459	16.29
623.651	16.29
623.844	16.35
624.036	16.4
624.228	16.34
624.42	16.29
624.613	16.29
624.805	16.19
624.997	16.11
625.189	16.06
625.381	15.95
625.574	15.93
625.766	15.87
625.958	15.78
626.15	15.81
626.342	15.85
626.534	15.8
626.726	15.87
626.918	15.92
627.11	15.88
627.302	15.8
627.494	15.76
627.686	15.7
627.878	15.69
628.07	15.66
628.262	15.54
628.454	15.51
628.646	15.41
628.838	15.34
629.029	15.32
629.221	15.39
629.413	15.32
629.605	15.36
629.797	15.31
629.989	15.28
630.18	15.25
630.372	15.2
630.564	15.09
630.755	15.09
630.947	15.11
631.139	15.01
631.33	15.05
631.522	15.09
631.714	15.02
631.905	14.91
632.097	14.88
632.289	14.8
632.48	14.74
632.672	14.73
632.863	14.72
633.055	14.79
633.246	14.72
633.438	14.72
633.629	14.77
633.821	14.74
634.012	14.69
634.203	14.71
634.395	14.64
634.586	14.53
634.777	14.56
634.969	14.54
635.16	14.54
635.351	14.55
635.543	14.54
635.734	14.49
635.925	14.44
636.117	14.38
636.308	14.45
636.499	14.42
636.69	14.41
636.881	14.46
637.073	14.5
637.264	14.43
637.455	14.44
637.646	14.41
637.837	14.3
638.028	14.28
638.219	14.28
638.41	14.28
638.601	14.27
638.792	14.33
638.983	14.31
639.174	14.29
639.365	14.34
639.556	14.38
639.747	14.34
639.938	14.39
640.129	14.33
640.32	14.25
640.511	14.24
640.701	14.24
640.892	14.17
641.083	14.13
641.274	14.14
641.465	14.03
641.655	13.99
641.846	14.03
642.037	14
642.228	13.92
642.418	13.99
642.609	13.91
642.8	13.81
642.99	13.81
643.181	13.87
643.372	13.82
643.562	13.87
643.753	13.9
643.943	13.94
644.134	13.88
644.324	13.78
644.515	13.74
644.705	13.66
644.896	13.59
645.086	13.5
645.277	13.53
645.467	13.52
645.658	13.47
645.848	13.42
646.038	13.34
646.229	13.42
646.419	13.36
646.61	13.36
646.8	13.38
646.99	13.45
647.18	13.33
647.371	13.31
647.561	13.34
647.751	13.27
647.941	13.19
648.132	13.14
648.322	13.16
648.512	13.1
648.702	13.19
648.892	13.14
649.082	13.24
649.272	13.24
649.462	13.26
649.653	13.16
649.843	13.25
650.033	13.13
650.223	13.09
650.413	13.08
650.603	13.13
650.793	13.01
650.983	13.01
651.172	12.94
651.362	12.8
651.552	12.69
651.742	12.65
651.932	12.6
652.122	12.58
652.312	12.54
652.502	12.49
652.691	12.44
652.881	12.35
653.071	12.25
653.261	12.15
653.45	12.06
653.64	12.02
653.83	11.97
654.019	11.86
654.209	11.77
654.399	11.73
654.588	11.63
654.778	11.48
654.968	11.37
655.157	11.33
655.347	11.19
655.536	11.06
655.726	10.94
655.915	10.87
656.105	10.76
656.294	10.65
656.484	10.53
656.673	10.44
656.863	10.36
657.052	10.25
657.241	10.14
657.431	10.03
657.62	9.94
657.809	9.69
657.999	9.55
658.188	9.43
658.377	9.27
658.567	9.12
658.756	8.99
658.945	8.93
659.134	8.81
659.324	8.66
659.513	8.52
659.702	8.41
659.891	8.3
660.08	8.15
660.269	8.07
660.458	7.95
660.648	7.92
660.837	7.74
661.026	7.63
661.215	7.51
661.404	7.42
661.593	7.27
661.782	7.13
661.971	7.01
662.16	6.93
662.349	6.73
662.538	6.6
662.726	6.51
662.915	6.44
663.104	6.34
663.293	6.28
663.482	6.28
663.671	6.23
663.86	6.09
664.048	6.03
664.237	6
664.426	5.9
664.615	5.82
664.803	5.73
664.992	5.66
665.181	5.62
665.369	5.62
665.558	5.58
665.747	5.62
665.935	5.68
666.124	5.75
666.312	5.69
666.501	5.61
666.69	5.58
666.878	5.52
667.067	5.36
667.255	5.43
667.444	5.5
667.632	5.48
667.82	5.4
668.009	5.53
668.197	5.39
668.386	5.38
668.574	5.38
668.762	5.39
668.951	5.37
669.139	5.43
669.327	5.5
669.516	5.46
669.704	5.48
669.892	5.38
670.08	5.4
670.269	5.4
670.457	5.47
670.645	5.6
670.833	5.6
671.021	5.57
671.21	5.53
671.398	5.43
671.586	5.38
671.774	5.51
671.962	5.58
672.15	5.65
672.338	5.84
672.526	5.93
672.714	5.97
672.902	5.95
673.09	5.92
673.278	5.98
673.466	6
673.654	6.05
673.842	6.11
674.03	6.24
674.218	6.21
674.405	6.32
674.593	6.3
674.781	6.39
674.969	6.38
675.157	6.42
675.344	6.31
675.532	6.44
675.72	6.54
675.908	6.62
676.095	6.77
676.283	6.85
676.471	6.89
676.658	6.92
676.846	6.97
677.033	6.99
677.221	7.05
677.409	7.03
677.596	6.96
677.784	7.01
677.971	7.08
678.159	7.13
678.346	7.34
678.534	7.53
678.721	7.56
678.909	7.61
679.096	7.79
679.283	7.8
679.471	7.84
679.658	7.93
679.846	7.86
680.033	7.86
680.22	7.93
680.408	7.96
680.595	8.04
680.782	8.25
680.969	8.32
681.157	8.34
681.344	8.39
681.531	8.44
681.718	8.49
681.905	8.52
682.093	8.66
682.28	8.94
682.467	9.04
682.654	9.18
682.841	9.37
683.028	9.45
683.215	9.51
683.402	9.67
683.589	9.87
683.776	10.03
683.963	10.26
684.15	10.42
684.337	10.62
684.524	10.77
684.711	10.92
684.898	11.01
685.085	11.09
685.271	11.28
685.458	11.46
685.645	11.74
685.832	11.9
686.019	12.15
686.205	12.31
686.392	12.56
686.579	12.92
686.766	13.33
686.952	13.62
687.139	14.19
687.326	14.58
687.512	14.76
687.699	15.05
687.886	15.49
688.072	15.65
688.259	15.85
688.445	16.15
688.632	16.61
688.818	17.07
689.005	17.48
689.191	17.96
689.378	18.48
689.564	18.9
689.751	19.23
689.937	19.63
690.124	20.16
690.31	20.64
690.496	21.12
690.683	21.76
690.869	22.34
691.055	22.95
691.242	23.51
691.428	24.08
691.614	24.7
691.8	25.45
691.987	26.1
692.173	26.84
692.359	27.42
692.545	28.07
692.731	28.62
692.918	29.09
693.104	29.71
693.29	30.54
693.476	31.17
693.662	31.71
693.848	32.39
694.034	32.85
694.22	33.47
694.406	34.14
694.592	34.74
694.778	35.56
694.964	36.4
695.15	36.94
695.336	37.59
695.522	38.48
695.708	39.16
695.894	39.59
696.08	40.44
696.265	41.04
696.451	41.73
696.637	42.15
696.823	42.97
697.009	43.57
697.194	44.33
697.38	44.97
697.566	45.64
697.751	46.26
697.937	47.03
698.123	47.59
698.308	48.32
698.494	49.06
698.68	49.89
698.865	50.24
699.051	50.69
699.236	50.99
699.422	51.61
699.607	51.81
699.793	52.42
699.978	53.08
700.164	53.75
700.349	54.02
700.535	54.87
700.72	55.53
700.906	56.13
701.091	56.79
701.276	57.29
701.462	57.84
701.647	58.31
701.832	58.87
702.018	59.38
702.203	59.74
702.388	60.02
702.573	60.46
702.759	60.59
702.944	60.96
703.129	61.52
703.314	62
703.499	62.59
703.684	63.23
703.87	63.56
704.055	63.95
704.24	63.99
704.425	63.94
704.61	64.12
704.795	64.3
704.98	64.94
705.165	65.79
705.35	66.4
705.535	66.66
705.72	67.41
705.905	67.57
706.09	67.92
706.275	68.4
706.459	68.98
706.644	69.09
706.829	69.63
707.014	69.85
707.199	69.84
707.384	70.01
707.568	70.21
707.753	70.63
707.938	71.01
708.123	71.33
708.307	71.81
708.492	72.31
708.677	72.26
708.861	72.24
709.046	72.66
709.231	72.78
709.415	72.61
709.6	73
709.784	73.29
709.969	73.25
710.153	73.48
710.338	73.92
710.522	74.32
710.707	74.46
710.891	75.06
711.076	75.16
711.26	75.57
711.445	75.43
711.629	75.71
711.813	75.55
711.998	75.99
712.182	76.07
712.366	76.07
712.551	76.11
712.735	76.56
712.919	76.46
713.103	76.31
713.288	76.79
713.472	76.63
713.656	76.62
713.84	76.71
714.024	76.98
714.208	77.08
714.393	77.82
714.577	78.02
714.761	78.42
714.945	78.64
715.129	78.44
715.313	78.73
715.497	78.69
715.681	78.52
715.865	78.52
716.049	79.27
716.233	79.37
716.417	79.8
716.601	80.23
716.785	80.47
716.968	80.38
717.152	80.19
717.336	79.99
717.52	80.16
717.704	80.86
717.888	81.12
718.071	81.32
718.255	81.48
718.439	81.55
718.622	81.02
718.806	81.01
718.99	81
719.174	81.54
719.357	81.41
719.541	81.63
719.724	81.71
719.908	82.06
720.092	81.66
720.275	81.84
720.459	82.19
720.642	82.3
720.826	81.97
721.009	82.37
721.193	82.5
721.376	82.62
721.559	82.64
721.743	82.72
721.926	82.77
722.11	83.03
722.293	82.96
722.476	82.76
722.66	82.97
722.843	82.96
723.026	82.98
723.21	82.91
723.393	83.21
723.576	83.5
723.759	83.34
723.942	83.45
724.126	83.5
724.309	84.33
724.492	84.14
724.675	84.85
724.858	85.03
725.041	84.74
725.224	84.78
725.407	85.31
725.59	85.11
725.774	85.27
725.957	85.79
726.14	85.38
726.322	85.19
726.505	85.02
726.688	85.09
726.871	85.25
727.054	84.91
727.237	85.42
727.42	85.91
727.603	85.84
727.786	85.65
727.968	86.53
728.151	86.56
728.334	86.51
728.517	86.96
728.699	86.96
728.882	86.45
729.065	86.67
729.248	87.27
729.43	87.01
729.613	87.02
729.796	88.12
729.978	87.69
730.161	87.54
730.343	87.58
730.526	88.12
730.708	87.3
730.891	87.62
731.073	87.29
731.256	87.58
731.438	88
731.621	87.79
731.803	88.36
731.986	89.23
732.168	89.04
732.35	88.2
732.533	88.23
732.715	87.45
732.898	87.56
733.08	88.14
733.262	89.65
733.444	90.56
733.627	91.34
733.809	90.72
733.991	90.28
734.173	90.2
734.355	89.36
734.538	89.07
734.72	89.88
734.902	90.03
735.084	89.72
735.266	90.43
735.448	90.8
735.63	91.24
735.812	91.78
735.994	92.47
736.176	92.32
736.358	92.86
736.54	92.19
736.722	92.06
736.904	91.21
737.086	91.88
737.268	91.59
737.45	91.29
737.632	91.09
737.814	91.23
737.995	91.24
738.177	91.25
738.359	91.7
738.541	91.45
738.723	92.55
738.904	92.45
739.086	92.44
739.268	92.37
739.449	93.22
739.631	92.18
739.813	92.22
739.994	92.8
740.176	93.09
740.358	93.06
740.539	94.06
740.721	93.8
740.902	93.71
741.084	94.3
741.265	94.97
741.447	94.03
741.628	94.5
741.81	94.68
741.991	94.8
742.172	93.59
742.354	93.94
742.535	94.39
742.717	93.95
742.898	93.77
743.079	94.82
743.261	95.08
743.442	94.49
743.623	94.48
743.804	93.67
743.986	92.91
744.167	92.84
744.348	92.63
744.529	92.33
744.71	92.38
744.891	93.15
745.073	93.94
745.254	93.87
745.435	94.29
745.616	93.95
745.797	93.52
745.978	92.68
746.159	92.58
746.34	92.58
746.521	93.01
746.702	93.96
746.883	93.4
747.064	94.51
747.245	94.51
747.426	93.56
747.606	92.4
747.787	93
747.968	93.07
748.149	93.09
748.33	93.98
748.51	94.38
748.691	94.81
748.872	94.54
749.053	93.87
749.233	93.87
749.414	93.21
749.595	91.87
749.775	91.56
749.956	91.58
750.137	91.62
750.317	91.78
750.498	91.95
750.678	92.58
750.859	93.3
751.04	94.22
751.22	94.51
751.4	95.92
751.581	95.08
751.761	93.78
751.942	92.46
752.122	92.09
752.303	91.34
752.483	91.53
752.663	92.66
752.844	94.9
753.024	95.26
753.204	94.93
753.385	95.23
753.565	95.22
753.745	94.63
753.925	94.56
754.106	94.76
754.286	93.61
754.466	93.22
754.646	90.95
754.826	90.16
755.006	90.01
755.187	91.25
755.367	91.55
755.547	91.81
755.727	92.68
755.907	92.76
756.087	92.74
756.267	92.03
756.447	92.5
756.627	92.22
756.807	91.01
756.987	89.81
757.167	91.74
757.346	91.83
757.526	92.03
757.706	94.09
757.886	93.46
758.066	90.85
758.246	89.79
758.425	89.28
758.605	89.2
758.785	91.82
758.965	92.83
759.144	93.53
759.324	93.7
759.504	93.04
759.683	90.74
759.863	91.33
760.043	91.18
760.222	91.83
760.402	91.53
760.581	92.47
760.761	92.39
760.94	92.22
761.12	93.33
761.299	94.2
761.479	93.79
761.658	92.74
761.838	93.81
762.017	92.6
762.197	92.9
762.376	93.76
762.555	94.79
762.735	94.71
762.914	95.18
763.093	95.02
763.273	94.01
763.452	93.33
763.631	93.67
763.81	94.03
763.99	93.44
764.169	93.35
764.348	93.66
764.527	92.69
764.706	92.4
764.885	93.09
765.064	92.98
765.243	92.39
765.423	93.45
765.602	90.62
765.781	88.6
765.96	87.41
766.139	89.02
766.318	87.77
766.497	90.01
766.676	92.14
766.854	94.28
767.033	93.71
767.212	93.88
767.391	93.61
767.57	92.29
767.749	91.32
767.928	90.29
768.106	89.88
768.285	88.53
768.464	87.78
768.643	87.54
768.821	89.03
769	89.08
769.179	89.03
769.357	90.35
769.536	91.54
769.715	91.48
769.893	93.16
770.072	93.56
770.25	92.81
770.429	90.92
770.607	91.02
770.786	89.57
770.964	89.99
771.143	90.21
771.321	90.88
771.5	89.76
771.678	90.19
771.857	91.83
772.035	91.15
772.213	91.17
772.392	90.25
772.57	89.84
772.748	88.84
772.927	88.8
773.105	88.56
773.283	89.44
773.461	88.84
773.64	88.87
773.818	89.66
773.996	90.96
774.174	90.45
774.352	89.42
774.531	88.4
774.709	88.57
774.887	87.61
775.065	87.56
775.243	90.17
775.421	91.21
775.599	90.4
775.777	90.95
775.955	91.57
776.133	90.32
776.311	90.73
776.489	92.16
776.667	91.72
776.844	91.78
777.022	91.69
777.2	91.27
777.378	89.4
777.556	89.35
777.734	87.68
777.911	88.52
778.089	87.21
778.267	89.27
778.445	91.29
778.622	92.87
778.8	93.59
778.978	95.09
779.155	93.24
779.333	90.71
779.511	90.41
779.688	90.1
779.866	90.95
780.043	90.69
780.221	90.34
780.398	88.25
780.576	89.46
780.753	85.56
780.931	85.84
781.108	85.9
781.286	87.78
781.463	86.7
781.64	91.07
781.818	90.24
781.995	92.52
782.172	93.28
782.35	91.14
782.527	88.92
782.704	88.36
782.882	85.89
783.059	83.9
783.236	86.15
783.413	84.63
783.59	85.42
783.768	88.46
783.945	89.8
784.122	87.56
784.299	87.89
784.476	87.81
784.653	85.32
784.83	85.05
785.007	87.25
785.184	88.13
785.361	90.02
785.538	90.85
785.715	93.05
785.892	91.14
786.069	92
786.246	90.25
786.423	89.41
786.6	87.34
786.776	85.57
786.953	83.45
787.13	84.99
787.307	86.51
787.484	84.92
787.66	88.74
787.837	91.9
788.014	93.2
788.191	91.7
788.367	92.42
788.544	90.71
788.721	86.55
788.897	83.66
789.074	84.06
789.25	83.18
789.427	83.04
789.603	87.73
789.78	86.85
789.956	88.17
790.133	89.78
790.309	90.12
790.486	90.64
790.662	92.22
790.839	90.71
791.015	90.72
791.192	91.06
791.368	88.98
791.544	86.74
791.721	87.65
791.897	89.4
792.073	89.26
792.249	90.73
792.426	88.24
792.602	90.08
792.778	86.53
792.954	82.62
793.13	80.88
793.307	85.74
793.483	82.65
793.659	85.11
793.835	88.79
794.011	87.11
794.187	87.16
794.363	89.17
794.539	88.43
794.715	87.58
794.891	85.15
795.067	82.98
795.243	82.66
795.419	83.87
795.595	83.53
795.771	85.47
795.947	87.68
796.122	86.72
796.298	89.11
796.474	86.58
796.65	87.24
796.826	85.14
797.001	83.85
797.177	78.26
797.353	82.72
797.529	84.21
797.704	83.6
797.88	85.25
798.056	87.49
798.231	86.78
798.407	88.09
798.582	94.96
798.758	96.72
798.934	97
799.109	93.07
799.285	91.32
799.46	86
799.636	80.45
799.811	81.56
799.986	85.58
800.162	84.77
800.337	85.16
800.513	91.81
800.688	87.05
800.863	83.19
801.039	83.57
801.214	82.86
801.389	82.19
801.565	81.98
801.74	82.69
801.915	84.56
802.09	86.43
802.265	87.21
802.441	89.03
802.616	91.23
802.791	89.45
802.966	91.11
803.141	86.08
803.316	83.18
803.491	81.33
803.666	79.97
803.841	76.33
804.016	75.69
804.191	76.69
804.366	78
804.541	79.44
804.716	79.18
804.891	80.42
805.066	81.7
805.241	79.35
805.416	79.3
805.591	83.92
805.765	87.6
805.94	87.01
806.115	89.07
806.29	93.65
806.464	92.2
806.639	85.82
806.814	84.52
806.989	87.23
807.163	83.08
807.338	80.24
807.512	91
807.687	96.78
807.862	88.8
808.036	91.99
808.211	94.32
808.385	90.09
808.56	88.08
808.734	80.57
808.909	75.92
809.083	77.86
809.258	74.95
809.432	75.24
809.606	88.15
809.781	92.1
809.955	92.88
810.13	90.92
810.304	92.74
810.478	88.89
810.652	91.55
810.827	87.92
811.001	85.33
811.175	77.87
811.349	82.54
811.524	78.79
811.698	84.22
811.872	89.37
812.046	96.16
812.22	90.81
812.394	94.3
812.568	94.79
812.742	97.88
812.916	87.53
813.09	92.37
813.264	95.25
813.438	84.5
813.612	81.81
813.786	84.28
813.96	85.12
814.134	81.88
814.308	88.96
814.482	84.85
814.656	88.49
814.83	83.51
815.003	82.14
815.177	80.75
815.351	77.32
815.525	77.94
815.698	85.06
815.872	83.27
816.046	80.53
816.219	95.04
816.393	96.52
816.567	94.37
816.74	93.38
816.914	97.87
817.088	92.56
817.261	91.82
817.435	85.74
817.608	85.04
817.782	86.3
817.955	80.86
818.129	74.67
818.302	82.44
818.475	94.05
818.649	95.2
818.822	106.92
818.996	122.66
819.169	110.65
819.342	98.76
819.516	99.33
819.689	92.07
819.862	79.89
820.035	83.1
820.209	83.67
820.382	82.97
820.555	81.32
820.728	87.64
820.901	81.24
821.075	69.89
821.248	67.3
821.421	63.79
821.594	64.55
821.767	60.5
821.94	72.89
822.113	71.59
822.286	75.91
822.459	78.5
822.632	92.22
822.805	101.61
822.978	100.59
823.151	101.46
823.324	96.9
823.496	92.94
823.669	75.2
823.842	72.16
824.015	70.71
824.188	72.13
824.361	81.5
824.533	88.34
824.706	97.8
824.879	84.93
825.051	88.35
825.224	82.84
825.397	91.31
825.569	86.85
825.742	100.67
825.915	97.32
826.087	99.77
826.26	88.53
826.432	89.99
826.605	80.08
826.777	82.74
826.95	79.06
827.122	80.72
827.295	75.47
827.467	79.95
827.64	74.95
827.812	73.79
827.984	72.76
828.157	80.88
828.329	73.6
828.501	73.68
828.674	71.71
828.846	74.79
829.018	80.82
829.19	86.79
829.363	93.38
829.535	83.85
829.707	85.62
829.879	81.74
830.051	71.92
830.223	85.78
830.395	122.92
830.568	108.03
830.74	100.8
830.912	103.29
831.084	85.12
831.256	84.66
831.428	86.3
831.6	82.45
831.772	79.07
831.943	89.47
832.115	83.88
832.287	88.39
832.459	98.51
832.631	99.91
832.803	102.76
832.975	93.54
833.146	86.37
833.318	83.1
833.49	98.08
833.662	89.16
833.833	104.14
834.005	112.83
834.177	125.67
834.348	92.32
834.52	97.93
834.692	111.64
834.863	86.26
835.035	86.31
835.206	100.21
835.378	92.89
835.549	80.69
835.721	93.38
835.892	85.6
836.064	82.02
836.235	84.81
836.407	73.87
836.578	85.19
836.749	82.28
836.921	98.82
837.092	109.54
837.264	126.23
837.435	108.98
837.606	109.7
837.777	94.84
837.949	78.4
838.12	84.22
838.291	75.74
838.462	104.48
838.633	130.7
838.805	131.89
838.976	114.44
839.147	97.28
839.318	87.59
839.489	82.04
839.66	80.07
839.831	82.29
840.002	87.01
840.173	71
840.344	47.53
840.515	40.7
840.686	26.74
840.857	33.09
841.028	34.83
841.199	41.79
841.369	94.64
841.54	72.78
841.711	94.94
841.882	82.52
842.053	81.01
842.223	55.9
842.394	87.75
842.565	77.26
842.736	80.1
842.906	85.6
843.077	92.86
843.248	84.72
843.418	77.91
843.589	104.41
843.759	93.41
843.93	110.21
844.101	111.75
844.271	111.31
844.442	75.25
844.612	73.17
844.783	77.56
844.953	59.41
845.123	54.23
845.294	92.6
845.464	93.08
845.635	65.65
845.805	77.85
845.975	92.94
846.146	78.39
846.316	85.2
846.486	98.83
846.656	93.6
846.827	91.94
846.997	90.33
847.167	82.42
847.337	84.43
847.507	83.9
847.677	87.99
847.848	92.79
848.018	139.41
848.188	123.26
848.358	118.01
848.528	85.84
848.698	86.19
848.868	62.19
849.038	65.91
849.208	70.21
849.378	73.35
849.548	81.9
849.718	71.03
849.887	79.89
850.057	83.31
850.227	84.82
850.397	63.26
850.567	69.59
850.737	72.26
850.906	58.46
851.076	71.29
851.246	114.78
851.415	113.77
851.585	119.46
851.755	240.89
851.924	168.45
852.094	125.42
852.264	109.37
852.433	88.17
852.603	86.25
852.772	97.76
852.942	98.6
853.111	91.04
853.281	114.39
853.45	79.34
853.62	60.83
853.789	63.38
853.959	55.69
854.128	32.36
854.297	39.15
854.467	41.07
854.636	23.36
854.805	54.03
854.975	65.67
855.144	98.86
855.313	104.31
855.482	107.67
855.652	109.76
855.821	76.22
855.99	33.76
856.159	13.97
856.328	30.23
856.497	21.42
856.667	48.27
856.836	95.79
857.005	109.85
857.174	120.39
857.343	106.01
857.512	99.29
857.681	92.85
857.85	84.85
858.019	77.4
858.188	66.35
858.356	47.24
858.525	43.25
858.694	28.94
858.863	44.73
859.032	58.09
859.201	83.78
859.369	99.7
859.538	168.26
859.707	143.74
859.876	153.36
860.044	126.34
860.213	114.45
860.382	66.56
860.55	86.15
860.719	93.68
860.888	104.74
861.056	130.5
861.225	145.67
861.393	149.64
861.562	198.85
861.73	223.97
861.899	141.54
862.067	135.61
862.236	116.51
862.404	95.98
862.572	61.05
862.741	64.77
862.909	56.04
863.078	51.8
863.246	42.93
863.414	64.75
863.582	90.75
863.751	88.21
863.919	92.37
864.087	133.57
864.255	136.09
864.424	140.84
864.592	157.38
864.76	247.13
864.928	108.85
865.096	109.26
865.264	103.58
865.432	48.6
865.6	45.91
865.768	89.92
865.936	47.06
866.104	38.34
866.272	69.32
866.44	54.74
866.608	57.94
866.776	76.03
866.944	88.3
867.112	88.63
867.28	97.54
867.448	59.6
867.615	13.75
867.783	15.78
867.951	21.96
868.119	22.68
868.286	51.76
868.454	107.89
868.622	109.63
868.789	152.05
868.957	219.29
869.125	248.35
869.292	129.24
869.46	136.5
869.627	108.24
869.795	75.29
869.963	34.81
870.13	86.45
870.298	97.29
870.465	80.99
870.632	72.13
870.8	75.63
870.967	92.03
871.135	74.45
871.302	76.37
871.469	82.15
871.637	141.98
871.804	126.97
871.971	128.99
872.139	118.03
872.306	77.55
872.473	19.51
872.64	24.39
872.807	22.88
872.975	44.79
873.142	58.56
873.309	74.26
873.476	29.79
873.643	24.24
873.81	11.59
873.977	59.46
874.144	99.76
874.311	89.62
874.478	144.44
874.645	145.9
874.812	127.2
874.979	101.64
875.146	139.87
875.313	108.9
875.48	81.07
875.647	44.13
875.813	55.91
875.98	45.46
876.147	45.16
876.314	51.89
876.481	79.51
876.647	59.65
876.814	66.45
876.981	90.21
877.147	112.29
877.314	122.34
877.481	198.44
877.647	235.66
877.814	124.46
877.98	114.91
878.147	89.85
878.314	55.07
878.48	39.74
878.647	96.94
878.813	69.77
878.979	85.83
879.146	99.23
879.312	84.53
879.479	66.74
879.645	72.63
879.811	64.15
879.978	58.75
880.144	84.38
880.31	89.69
880.477	99.53
880.643	110.01
880.809	73.02
880.975	55.04
881.142	62.11
881.308	67.63
881.474	65.88
881.64	95.32
881.806	116.65
881.972	161.98
882.138	271.87
882.304	162.1
882.47	96.41
882.636	108.55
882.802	105.46
882.968	72.23
883.134	60.01
883.3	70
883.466	58.64
883.632	34.82
883.798	13.76
883.964	57.41
884.129	52.85
884.295	67.92
884.461	139
884.627	183.15
884.793	98.47
884.958	152.97
885.124	152.5
885.29	148.23
885.455	108.37
885.621	142.11
885.787	102.81
885.952	49.58
886.118	40.27
886.283	45.65
886.449	14.56
886.614	76.93
886.78	84.75
886.945	87.83
887.111	93.08
887.276	58.28
887.442	49.7
887.607	47.39
887.773	50.46
887.938	25.71
888.103	52.82
888.269	66.49
888.434	86.38
888.599	105.85
888.764	80.61
888.93	112.09
889.095	111.32
889.26	89.44
889.425	45.91
889.59	62.71
889.756	44.61
889.921	38.94
890.086	64.75
890.251	36.08
890.416	94.98
890.581	93.59
890.746	57.49
890.911	-203.03
891.076	46.14
891.241	244.11
891.406	102.88
891.571	153.16
891.736	63.2
891.901	117.71
892.065	106.17
892.23	110.01
892.395	35.32
892.56	262.77
892.725	94.66
892.889	65.69
893.054	58.13
893.219	74.89
893.384	63.88
893.548	43.33
893.713	44.75
893.878	37.45
