Data from Ofra_PS_Phys_OCX4_Reflection_3.txt Node
Date: Tue Jul 20 17:53:51 EDT 2021
User: USUARIO
Spectrometer: FLMT01687
Trigger mode: 0
Integration Time (sec): 1.042999E0
Scans to average: 2
Electric dark correction enabled: true
Nonlinearity correction enabled: false
Boxcar width: 2
XAxis mode: Wavelengths
Number of Pixels in Spectrum: 3648
>>>>>Begin Spectral Data<<<<<
179.494	-13.1
179.716	-40.84
179.937	-40.16
180.158	-225.27
180.38	-263.52
180.601	-95.87
180.823	39.42
181.044	-86.34
181.265	-222.67
181.486	-25.46
181.708	33.12
181.929	-20.23
182.15	33.04
182.372	-17.25
182.593	-1.54
182.814	-9.55
183.035	10.36
183.257	40.02
183.478	46.18
183.699	47.67
183.92	53.49
184.141	41.99
184.363	33.15
184.584	45.13
184.805	53.35
185.026	57.37
185.247	79.23
185.468	62.16
185.689	40.41
185.91	39.29
186.132	40.98
186.353	9.05
186.574	51.25
186.795	83.65
187.016	79.99
187.237	79.91
187.458	87.61
187.679	54.12
187.9	13.96
188.121	15.36
188.342	-159.65
188.563	-40.17
188.784	29.3
189.005	60.04
189.226	83.19
189.447	81.18
189.667	69.87
189.888	78.01
190.109	70.49
190.33	24.74
190.551	68.12
190.772	75.25
190.993	50.61
191.214	48.73
191.434	53.36
191.655	35.72
191.876	29.05
192.097	29.71
192.318	19.35
192.538	29.28
192.759	10.25
192.98	12.88
193.201	22.26
193.421	21.17
193.642	39.08
193.863	47
194.083	55.95
194.304	17.99
194.525	12.76
194.745	15.34
194.966	16.43
195.187	14.92
195.407	23.36
195.628	37.77
195.848	9.79
196.069	25.43
196.29	24.56
196.51	38.29
196.731	21.03
196.951	55.28
197.172	33.25
197.392	33.34
197.613	42.33
197.833	48.53
198.054	6.32
198.274	25
198.495	37.81
198.715	40.37
198.936	30.15
199.156	22.89
199.377	18.62
199.597	1.78
199.817	-12.37
200.038	9.41
200.258	21.31
200.479	20.68
200.699	50.58
200.919	51.59
201.14	48.62
201.36	59.49
201.58	39.07
201.801	6.45
202.021	34.8
202.241	-13.51
202.461	-50.79
202.682	16.55
202.902	25.95
203.122	15.24
203.342	39.27
203.563	54.93
203.783	90.19
204.003	62.59
204.223	60.99
204.443	69.67
204.663	12.6
204.884	5.01
205.104	45.88
205.324	69.3
205.544	51.3
205.764	65.81
205.984	50.45
206.204	35.37
206.424	9.74
206.644	7.06
206.864	-5.93
207.084	14.01
207.304	35.77
207.525	26.74
207.745	34.54
207.964	31.95
208.184	39.12
208.404	22.97
208.624	34.76
208.844	47.52
209.064	54.12
209.284	47.02
209.504	41.7
209.724	41.12
209.944	39.17
210.164	18.97
210.384	49.25
210.604	77.5
210.823	78.95
211.043	37.13
211.263	52.22
211.483	41.16
211.703	36.59
211.922	24.08
212.142	44.13
212.362	51.37
212.582	41.01
212.801	6.18
213.021	23.89
213.241	-36.84
213.461	9.23
213.68	2.88
213.9	14.41
214.12	12.83
214.339	22.7
214.559	-10.67
214.779	57.94
214.998	76.79
215.218	74.8
215.438	78.17
215.657	81.22
215.877	62.21
216.096	76.96
216.316	55.23
216.535	55.25
216.755	58.74
216.974	57.31
217.194	28.78
217.413	46.34
217.633	46.12
217.852	29.87
218.072	29.31
218.291	35.64
218.511	19.35
218.73	-28.79
218.95	-38.66
219.169	-26.9
219.389	-37.35
219.608	-36.65
219.827	11
220.047	14.89
220.266	19.66
220.485	6.38
220.705	25.67
220.924	23.47
221.143	29.14
221.363	37.39
221.582	44.43
221.801	35.93
222.021	61.69
222.24	51.69
222.459	37.38
222.678	62.55
222.897	70.69
223.117	72.02
223.336	75.36
223.555	66.81
223.774	68.63
223.993	65.3
224.213	60.67
224.432	56.79
224.651	46.44
224.87	37.71
225.089	18.16
225.308	-0.6
225.527	12.49
225.746	19.36
225.965	25.23
226.184	48.54
226.404	57.55
226.623	29.49
226.842	24.89
227.061	22.59
227.28	-2.18
227.499	-0.5
227.718	8.14
227.936	0.94
228.155	-0.02
228.374	4.05
228.593	-8.96
228.812	2.51
229.031	23.54
229.25	16.73
229.469	18.35
229.688	47.68
229.907	35.32
230.125	43.11
230.344	35.61
230.563	48.38
230.782	36.27
231.001	40.47
231.22	33.78
231.438	44.25
231.657	40.01
231.876	35.9
232.095	29.45
232.313	29.94
232.532	32.64
232.751	20.97
232.969	22.1
233.188	23.92
233.407	16.51
233.625	19.52
233.844	45.1
234.063	44.44
234.281	62.05
234.5	70.86
234.719	61.21
234.937	57.43
235.156	65.74
235.374	33.18
235.593	31.27
235.811	38.07
236.03	-8.6
236.249	-62.96
236.467	24.81
236.686	32.63
236.904	27.79
237.123	44.68
237.341	44.72
237.559	43.52
237.778	32.45
237.996	28.17
238.215	26.54
238.433	23.88
238.652	2.52
238.87	-10.66
239.088	-12.57
239.307	-4.09
239.525	-6.64
239.743	-4.93
239.962	1.34
240.18	7
240.398	-3.02
240.617	7.36
240.835	11.98
241.053	21.99
241.271	44.96
241.49	31.92
241.708	28.79
241.926	28.04
242.144	27.13
242.363	-9.01
242.581	3.31
242.799	2.99
243.017	7.47
243.235	-3.34
243.453	0.37
243.672	8.22
243.89	7.47
244.108	17.59
244.326	20.18
244.544	22.06
244.762	20.31
244.98	22.73
245.198	13.52
245.416	19.78
245.634	17.85
245.852	21.89
246.07	29.97
246.288	20.83
246.506	37.84
246.724	57.02
246.942	49.28
247.16	67.52
247.378	80.22
247.596	83.55
247.814	62.89
248.032	39.69
248.25	15.78
248.468	-9.14
248.685	-6.45
248.903	19.63
249.121	41.88
249.339	44.5
249.557	66.49
249.775	66.7
249.992	45.88
250.21	28.24
250.428	-18.52
250.646	-32.18
250.863	-2.26
251.081	-13.31
251.299	-54.58
251.517	-20.82
251.734	-27.27
251.952	-93.4
252.17	-18.38
252.387	23.09
252.605	11.24
252.823	22.9
253.04	34.26
253.258	23.09
253.475	25.5
253.693	41.48
253.911	41.15
254.128	49.7
254.346	53.88
254.563	48.77
254.781	37.37
254.998	23.08
255.216	18.78
255.433	-3.54
255.651	-2.94
255.868	6.76
256.086	21.16
256.303	1.16
256.521	12
256.738	5.57
256.956	9.32
257.173	0.96
257.39	18.54
257.608	10.74
257.825	47.06
258.043	39.11
258.26	43.41
258.477	51.78
258.695	48.34
258.912	29.99
259.129	34.08
259.346	34.42
259.564	27.94
259.781	31.66
259.998	30.76
260.216	30.12
260.433	20.04
260.65	25.1
260.867	45.09
261.084	50.93
261.302	40.18
261.519	54.87
261.736	27.7
261.953	21.48
262.17	8.08
262.387	16.52
262.604	-16.13
262.822	0.42
263.039	-38.66
263.256	-45.5
263.473	-42.89
263.69	-37.93
263.907	4.73
264.124	20.04
264.341	55.11
264.558	70.22
264.775	84.4
264.992	72.38
265.209	42.72
265.426	12.59
265.643	2.9
265.86	2.97
266.077	8.01
266.294	31.43
266.51	47.94
266.727	46.21
266.944	56.39
267.161	44.13
267.378	30.41
267.595	21.52
267.812	13.99
268.028	0.65
268.245	-1.07
268.462	2.04
268.679	-4.09
268.896	19.87
269.112	37.97
269.329	36.06
269.546	33.78
269.763	53.04
269.979	40.55
270.196	21.44
270.413	35.31
270.629	18.35
270.846	14.32
271.063	-1.82
271.279	0.79
271.496	-22
271.712	-7.42
271.929	-4.99
272.146	5.69
272.362	16.09
272.579	30.01
272.795	20.69
273.012	24.48
273.228	35.24
273.445	28.63
273.661	11.91
273.878	11.18
274.094	7.9
274.311	9.2
274.527	2.37
274.744	21.16
274.96	36.89
275.177	31.66
275.393	11.28
275.609	30.31
275.826	34.51
276.042	19.65
276.259	35.27
276.475	44.5
276.691	50.45
276.908	40.56
277.124	44.68
277.34	28.97
277.557	30.45
277.773	15.84
277.989	18.07
278.205	3.36
278.422	22.67
278.638	41.88
278.854	42.25
279.07	47.93
279.286	44.92
279.503	38.69
279.719	32.1
279.935	23.7
280.151	29.15
280.367	26.33
280.583	15.03
280.799	13.36
281.016	17.26
281.232	21.12
281.448	13.65
281.664	22.49
281.88	27.97
282.096	45.08
282.312	57.14
282.528	61.27
282.744	63.09
282.96	35.02
283.176	33.38
283.392	26.56
283.608	16.09
283.824	12.62
284.04	19.04
284.256	18.9
284.471	2.99
284.687	46.78
284.903	43.27
285.119	47.68
285.335	19.91
285.551	44.08
285.767	14.85
285.982	27.02
286.198	40.75
286.414	61.75
286.63	40.82
286.846	39.43
287.061	44.4
287.277	46.25
287.493	26
287.709	49.9
287.924	59.17
288.14	54.43
288.356	62.18
288.571	84.78
288.787	70.23
289.003	54.26
289.218	54.92
289.434	48.9
289.65	35.12
289.865	23.02
290.081	35.16
290.296	30.93
290.512	14.16
290.727	17.12
290.943	15.04
291.159	8.18
291.374	-28.33
291.59	-2.51
291.805	-36.66
292.021	-40.18
292.236	-12.1
292.451	7.38
292.667	5.02
292.882	25.23
293.098	40.87
293.313	43.34
293.529	48.73
293.744	44.09
293.959	30.79
294.175	8.36
294.39	-13.44
294.605	-10.21
294.821	-18.54
295.036	-17.59
295.251	8.14
295.467	-2.08
295.682	0.99
295.897	19.89
296.112	21.84
296.328	17.55
296.543	31.92
296.758	24.05
296.973	23.47
297.188	16.87
297.404	10.21
297.619	-3.31
297.834	-3.04
298.049	-5.09
298.264	14.64
298.479	-1.89
298.694	-0.52
298.909	-22.92
299.125	-16.89
299.34	-39.63
299.555	11.42
299.77	7.09
299.985	14.97
300.2	-7.95
300.415	0.27
300.63	-40.64
300.845	-10.88
301.06	3.58
301.275	1.45
301.49	-12.08
301.704	2.38
301.919	-1.49
302.134	-41.95
302.349	-11.71
302.564	-6.81
302.779	10.4
302.994	18.93
303.209	39.4
303.423	32.59
303.638	34.58
303.853	29.11
304.068	23.06
304.283	6.38
304.497	11.29
304.712	11.86
304.927	17.9
305.142	3.82
305.356	13.89
305.571	11.86
305.786	5.73
306	2.36
306.215	26.88
306.43	24.18
306.644	39.12
306.859	49.81
307.074	42.02
307.288	38.01
307.503	41.48
307.717	35.12
307.932	30.23
308.147	22.57
308.361	21.68
308.576	10.24
308.79	2.49
309.005	-10.07
309.219	-10.35
309.434	-11.42
309.648	-19.43
309.863	-25.61
310.077	7.62
310.292	12.6
310.506	-0.23
310.72	12.82
310.935	12.35
311.149	19.45
311.364	30.37
311.578	36.28
311.792	46.08
312.007	51.64
312.221	34.36
312.435	25.69
312.649	-0.22
312.864	10.15
313.078	7.73
313.292	26.35
313.507	25.68
313.721	42.3
313.935	52.72
314.149	72.49
314.363	49.27
314.578	50.2
314.792	37.61
315.006	22.49
315.22	20.69
315.434	27.12
315.648	19.5
315.862	19.91
316.077	17.03
316.291	18.83
316.505	9.42
316.719	13.66
316.933	29.5
317.147	22.34
317.361	18.72
317.575	29.08
317.789	23.67
318.003	23.63
318.217	31.01
318.431	34.23
318.645	28.96
318.859	45.94
319.073	63.96
319.287	44.59
319.5	41.02
319.714	46.54
319.928	48.71
320.142	36.37
320.356	55.31
320.57	57.21
320.784	42.62
320.997	37.43
321.211	26.84
321.425	30.9
321.639	19.17
321.853	33.48
322.066	28.08
322.28	57.63
322.494	52.45
322.707	59.79
322.921	54.2
323.135	47.49
323.349	16.74
323.562	-3.66
323.776	-17.18
323.989	-10.23
324.203	-6.58
324.417	-7.46
324.63	-5.27
324.844	16.5
325.057	11.05
325.271	-9.47
325.485	-14.94
325.698	-26.23
325.912	-13.92
326.125	-30.88
326.339	-10.61
326.552	5.71
326.766	17.79
326.979	2.75
327.193	12.14
327.406	9.68
327.619	21.15
327.833	27.67
328.046	13.2
328.26	15.14
328.473	21.7
328.686	-19.8
328.9	-26.22
329.113	12.94
329.326	22.48
329.54	23.04
329.753	30.44
329.966	23.83
330.179	23.08
330.393	18.46
330.606	11
330.819	5.17
331.032	20.81
331.246	11.23
331.459	0.2
331.672	14.9
331.885	7.44
332.098	-4.6
332.311	0.96
332.525	-3.21
332.738	-50.29
332.951	-13.06
333.164	10.36
333.377	-0.68
333.59	22.77
333.803	42.53
334.016	41.3
334.229	25.63
334.442	22.37
334.655	10.39
334.868	21.62
335.081	22.36
335.294	32.54
335.507	42.76
335.72	42.98
335.933	12.36
336.146	24.72
336.359	29.59
336.572	7.3
336.785	22.45
336.997	40.93
337.21	34.61
337.423	19.36
337.636	5.95
337.849	-20.31
338.062	-16.09
338.274	-14.41
338.487	-15.13
338.7	-18.49
338.913	7.66
339.125	11.02
339.338	2.09
339.551	8.87
339.763	26.14
339.976	23.59
340.189	26.09
340.402	36.15
340.614	24.77
340.827	30.77
341.039	24.49
341.252	22.76
341.465	16.48
341.677	50.39
341.89	40.78
342.102	51.93
342.315	41.43
342.527	10.68
342.74	7.3
342.952	10.24
343.165	10.09
343.377	30.55
343.59	45.98
343.802	57.35
344.015	59.51
344.227	46.08
344.44	28.69
344.652	38.2
344.864	16.96
345.077	22.58
345.289	40.69
345.502	39.54
345.714	24.4
345.926	26.79
346.139	14.12
346.351	4.35
346.563	24.24
346.775	38.09
346.988	48.78
347.2	21.11
347.412	23.53
347.624	-0.2
347.837	-5.79
348.049	-15.4
348.261	-7.79
348.473	0.39
348.685	16.88
348.897	19.28
349.11	18.97
349.322	24.81
349.534	30.56
349.746	39.4
349.958	43.94
350.17	42.24
350.382	45.03
350.594	21.93
350.806	7.26
351.018	8.21
351.23	-1.16
351.442	3.13
351.654	17.42
351.866	22.86
352.078	14.48
352.29	8.4
352.502	7.86
352.714	1.35
352.926	-38.33
353.138	-29.14
353.35	-7.87
353.561	-6.98
353.773	6.96
353.985	26.42
354.197	21.8
354.409	33.86
354.621	28.31
354.832	10.82
355.044	13.14
355.256	18.49
355.468	3.66
355.679	14.84
355.891	38.23
356.103	43.74
356.314	44.68
356.526	47.89
356.738	38.88
356.949	23.02
357.161	30.82
357.373	19.59
357.584	12.05
357.796	15.79
358.008	12.91
358.219	9.31
358.431	12.48
358.642	17.61
358.854	21.48
359.065	17.28
359.277	9.34
359.488	15.92
359.7	14.7
359.911	10.71
360.123	25.17
360.334	32.58
360.546	11.43
360.757	3.52
360.969	2.99
361.18	10.66
361.391	19.94
361.603	33.24
361.814	40.01
362.025	34.59
362.237	32.75
362.448	18.48
362.659	19.68
362.871	18.07
363.082	19.31
363.293	8.58
363.504	11.4
363.716	13.96
363.927	-9.19
364.138	-22.1
364.349	-12.67
364.56	-11.61
364.772	-9.32
364.983	29.17
365.194	47.62
365.405	24.13
365.616	19.62
365.827	14.88
366.038	4.68
366.25	7.88
366.461	29.37
366.672	45.02
366.883	39.65
367.094	32.93
367.305	12.42
367.516	6.54
367.727	-1.81
367.938	3.85
368.149	9.89
368.36	17.96
368.571	27.6
368.781	32.84
368.992	39.66
369.203	42.17
369.414	36.32
369.625	38.7
369.836	21.82
370.047	11.68
370.258	4.73
370.468	8.45
370.679	-1.67
370.89	2.01
371.101	1.4
371.312	4.06
371.522	12.26
371.733	17.56
371.944	26.98
372.155	38.2
372.365	27.19
372.576	14.12
372.787	7.32
372.997	-5.66
373.208	-23.29
373.419	-3.44
373.629	-7.72
373.84	-7.18
374.05	-7.36
374.261	-0.66
374.472	-4.53
374.682	12.91
374.893	13.34
375.103	13.48
375.314	10.16
375.524	5.76
375.735	6.6
375.945	10.56
376.156	11.79
376.366	16.03
376.577	33.06
376.787	30.51
376.997	25.91
377.208	27.94
377.418	24.97
377.629	19.01
377.839	16.15
378.049	24.47
378.26	28.87
378.47	30.47
378.68	20.14
378.89	11.64
379.101	-2.3
379.311	-11.67
379.521	-10.02
379.732	5.69
379.942	16.28
380.152	22.69
380.362	26.9
380.572	22.74
380.783	14.36
380.993	16.08
381.203	16.96
381.413	1.3
381.623	2.27
381.833	-0.01
382.043	-15.27
382.253	-25.58
382.463	-18.6
382.674	-25.16
382.884	-18.78
383.094	-8.21
383.304	-4.01
383.514	4.47
383.724	11.64
383.934	7.47
384.144	3.97
384.353	10.91
384.563	-0.96
384.773	-8.16
384.983	-2.64
385.193	1.76
385.403	-0.69
385.613	14.54
385.823	18.1
386.033	9.72
386.242	7.72
386.452	3.28
386.662	-0.8
386.872	4.12
387.082	8.16
387.291	7.3
387.501	8.93
387.711	7.88
387.921	7.24
388.13	5.28
388.34	9.44
388.55	8.6
388.759	7.22
388.969	7.57
389.179	9.87
389.388	8.3
389.598	10.08
389.807	10.14
390.017	8.36
390.227	6.79
390.436	2.48
390.646	-0.75
390.855	2.86
391.065	4.13
391.274	6.84
391.484	7.82
391.693	10.49
391.903	8.81
392.112	6.52
392.322	3.69
392.531	3.77
392.74	1.44
392.95	0.39
393.159	1.01
393.369	1.83
393.578	-0.46
393.787	-0.02
393.997	1.76
394.206	1.66
394.415	3.1
394.625	6.58
394.834	6.71
395.043	7.27
395.252	8.5
395.462	7.71
395.671	6.45
395.88	6.07
396.089	4.5
396.298	3.59
396.508	3.61
396.717	4.62
396.926	5.49
397.135	5.3
397.344	4.4
397.553	4.43
397.762	3.75
397.971	2.96
398.181	2.69
398.39	3.15
398.599	2.7
398.808	2.23
399.017	3.01
399.226	3.9
399.435	3.63
399.644	3.47
399.853	4.15
400.062	3.61
400.27	3.32
400.479	3.97
400.688	4.27
400.897	3.97
401.106	4.14
401.315	4.08
401.524	3.9
401.733	3.95
401.941	3.91
402.15	3.87
402.359	3.9
402.568	3.74
402.777	3.8
402.985	3.44
403.194	3.46
403.403	3.52
403.612	3.53
403.82	3.27
404.029	3.7
404.238	3.64
404.446	3.56
404.655	3.65
404.864	3.63
405.072	3.4
405.281	3.59
405.489	3.48
405.698	3.52
405.906	3.43
406.115	3.51
406.324	3.36
406.532	3.29
406.741	3.16
406.949	3.25
407.158	3.37
407.366	3.29
407.574	3.2
407.783	3.15
407.991	3.18
408.2	3.12
408.408	2.99
408.617	3.19
408.825	3.1
409.033	3.1
409.242	3.11
409.45	3.29
409.658	3.29
409.867	3.5
410.075	3.38
410.283	3.26
410.491	3.07
410.7	2.95
410.908	2.82
411.116	2.82
411.324	2.87
411.533	3.07
411.741	3.2
411.949	3.24
412.157	3.32
412.365	3.31
412.573	3.2
412.781	3.19
412.99	3.09
413.198	3.06
413.406	3.06
413.614	3.1
413.822	3.06
414.03	3.09
414.238	3.04
414.446	2.93
414.654	3.02
414.862	3.06
415.07	3.07
415.278	3.11
415.486	3.18
415.694	3.04
415.902	3
416.109	2.85
416.317	2.98
416.525	2.92
416.733	2.87
416.941	2.84
417.149	2.97
417.357	2.79
417.564	2.78
417.772	2.83
417.98	2.8
418.188	2.78
418.395	2.75
418.603	2.85
418.811	2.87
419.019	2.76
419.226	2.9
419.434	2.93
419.642	2.97
419.849	3
420.057	3.13
420.265	2.93
420.472	3.03
420.68	2.97
420.887	2.87
421.095	2.79
421.302	2.85
421.51	2.79
421.717	2.76
421.925	2.77
422.132	2.8
422.34	2.85
422.547	2.79
422.755	2.73
422.962	2.65
423.17	2.68
423.377	2.48
423.585	2.48
423.792	2.46
423.999	2.47
424.207	2.37
424.414	2.43
424.621	2.56
424.829	2.54
425.036	2.57
425.243	2.65
425.451	2.77
425.658	2.47
425.865	2.61
426.072	2.43
426.28	2.52
426.487	2.39
426.694	2.58
426.901	2.67
427.108	2.98
427.315	3.02
427.523	3.13
427.73	3.25
427.937	3
428.144	2.81
428.351	2.65
428.558	2.52
428.765	2.31
428.972	2.36
429.179	2.4
429.386	2.33
429.593	2.23
429.8	2.24
430.007	2.18
430.214	2.12
430.421	2.1
430.628	2.27
430.835	2.34
431.042	2.35
431.249	2.48
431.456	2.53
431.662	2.61
431.869	2.57
432.076	2.56
432.283	2.52
432.49	2.54
432.697	2.46
432.903	2.39
433.11	2.46
433.317	2.53
433.524	2.7
433.73	2.58
433.937	2.71
434.144	2.62
434.35	2.51
434.557	2.27
434.764	2.33
434.97	2.25
435.177	2.39
435.384	2.46
435.59	2.56
435.797	2.76
436.003	2.76
436.21	2.74
436.416	2.72
436.623	2.63
436.829	2.58
437.036	2.64
437.242	2.65
437.449	2.57
437.655	2.64
437.862	2.5
438.068	2.42
438.275	2.46
438.481	2.57
438.687	2.59
438.894	2.69
439.1	2.92
439.307	2.89
439.513	2.87
439.719	2.85
439.926	2.84
440.132	2.84
440.338	2.82
440.544	2.86
440.751	2.89
440.957	2.9
441.163	2.8
441.369	2.86
441.575	2.86
441.782	2.83
441.988	2.82
442.194	2.82
442.4	2.68
442.606	2.55
442.812	2.53
443.018	2.66
443.224	2.65
443.431	2.79
443.637	2.96
443.843	3.05
444.049	2.95
444.255	2.89
444.461	2.96
444.667	2.89
444.873	2.94
445.079	2.94
445.284	2.97
445.49	2.82
445.696	2.79
445.902	2.7
446.108	2.64
446.314	2.58
446.52	2.68
446.726	2.8
446.931	2.77
447.137	2.83
447.343	2.93
447.549	2.99
447.755	2.86
447.96	2.95
448.166	2.97
448.372	3.03
448.578	2.98
448.783	3.09
448.989	3.05
449.195	3.03
449.4	3.01
449.606	2.97
449.812	2.92
450.017	2.94
450.223	2.9
450.428	2.89
450.634	2.85
450.84	2.91
451.045	3
451.251	3.03
451.456	3.07
451.662	3.1
451.867	3.13
452.073	3.05
452.278	3.07
452.483	3.02
452.689	2.99
452.894	2.86
453.1	2.87
453.305	2.96
453.51	2.97
453.716	3.02
453.921	2.96
454.127	2.96
454.332	2.84
454.537	2.75
454.742	2.74
454.948	2.8
455.153	2.79
455.358	2.79
455.563	2.9
455.769	2.83
455.974	2.89
456.179	2.84
456.384	2.85
456.589	2.86
456.795	2.91
457	2.89
457.205	2.85
457.41	2.83
457.615	2.83
457.82	2.9
458.025	2.86
458.23	2.82
458.435	2.86
458.64	2.77
458.845	2.74
459.05	2.76
459.255	2.93
459.46	2.92
459.665	2.96
459.87	3.01
460.075	3.06
460.28	2.99
460.485	3.02
460.69	2.99
460.895	2.89
461.099	2.82
461.304	2.89
461.509	2.93
461.714	2.99
461.919	3.03
462.123	3.02
462.328	3.01
462.533	3.07
462.738	3.09
462.942	3.15
463.147	3.19
463.352	3.26
463.556	3.21
463.761	3.17
463.966	3.13
464.17	3.25
464.375	3.15
464.58	3.09
464.784	3.19
464.989	3.18
465.193	3.18
465.398	3.22
465.602	3.27
465.807	3.13
466.011	3.08
466.216	3.06
466.42	3.03
466.625	3.04
466.829	3.14
467.034	3.25
467.238	3.24
467.443	3.25
467.647	3.16
467.851	3.1
468.056	3.04
468.26	3.04
468.464	3.13
468.669	3.18
468.873	3.22
469.077	3.24
469.282	3.19
469.486	3.19
469.69	3.29
469.894	3.32
470.099	3.39
470.303	3.48
470.507	3.53
470.711	3.42
470.915	3.39
471.119	3.36
471.324	3.43
471.528	3.39
471.732	3.49
471.936	3.55
472.14	3.62
472.344	3.57
472.548	3.57
472.752	3.61
472.956	3.62
473.16	3.62
473.364	3.61
473.568	3.59
473.772	3.52
473.976	3.48
474.18	3.43
474.384	3.47
474.588	3.47
474.792	3.45
474.995	3.51
475.199	3.72
475.403	3.68
475.607	3.71
475.811	3.8
476.015	3.74
476.218	3.59
476.422	3.59
476.626	3.65
476.83	3.7
477.033	3.75
477.237	3.76
477.441	3.76
477.644	3.74
477.848	3.72
478.052	3.75
478.255	3.76
478.459	3.79
478.663	3.79
478.866	3.81
479.07	3.78
479.273	3.83
479.477	3.84
479.681	3.88
479.884	3.88
480.088	3.89
480.291	3.91
480.495	3.91
480.698	3.91
480.901	3.84
481.105	3.89
481.308	3.87
481.512	3.91
481.715	3.9
481.919	4
482.122	3.94
482.325	3.97
482.529	3.97
482.732	3.98
482.935	3.99
483.138	3.94
483.342	3.94
483.545	4
483.748	4.02
483.952	4.03
484.155	4.17
484.358	4.21
484.561	4.15
484.764	4.11
484.967	4.13
485.171	4.14
485.374	4.1
485.577	4.16
485.78	4.21
485.983	4.17
486.186	4.09
486.389	4.08
486.592	4.01
486.795	4.04
486.998	4.02
487.201	4.07
487.404	4.15
487.607	4.27
487.81	4.24
488.013	4.31
488.216	4.32
488.419	4.24
488.622	4.14
488.825	4.12
489.028	4.14
489.231	4.09
489.433	4.07
489.636	4.11
489.839	4.16
490.042	4.09
490.245	4.16
490.447	4.25
490.65	4.26
490.853	4.2
491.056	4.18
491.258	4.16
491.461	4.11
491.664	4.13
491.866	4.16
492.069	4.26
492.272	4.33
492.474	4.35
492.677	4.36
492.879	4.34
493.082	4.35
493.285	4.37
493.487	4.33
493.69	4.35
493.892	4.39
494.095	4.39
494.297	4.31
494.5	4.37
494.702	4.38
494.905	4.42
495.107	4.45
495.309	4.56
495.512	4.61
495.714	4.65
495.917	4.7
496.119	4.7
496.321	4.66
496.524	4.72
496.726	4.67
496.928	4.66
497.13	4.65
497.333	4.63
497.535	4.59
497.737	4.7
497.939	4.74
498.142	4.77
498.344	4.83
498.546	4.85
498.748	4.88
498.95	4.91
499.152	4.94
499.355	4.96
499.557	4.98
499.759	4.98
499.961	4.98
500.163	5.02
500.365	5.11
500.567	5.18
500.769	5.17
500.971	5.22
501.173	5.25
501.375	5.19
501.577	5.16
501.779	5.27
501.981	5.27
502.183	5.27
502.385	5.32
502.587	5.36
502.788	5.36
502.99	5.39
503.192	5.36
503.394	5.35
503.596	5.33
503.798	5.38
503.999	5.35
504.201	5.36
504.403	5.35
504.605	5.41
504.806	5.37
505.008	5.41
505.21	5.48
505.411	5.53
505.613	5.48
505.815	5.45
506.016	5.48
506.218	5.48
506.42	5.54
506.621	5.58
506.823	5.62
507.024	5.61
507.226	5.6
507.427	5.59
507.629	5.6
507.83	5.57
508.032	5.55
508.233	5.63
508.435	5.66
508.636	5.69
508.838	5.77
509.039	5.84
509.24	5.84
509.442	5.85
509.643	5.84
509.845	5.82
510.046	5.84
510.247	5.82
510.448	5.8
510.65	5.82
510.851	5.79
511.052	5.79
511.254	5.82
511.455	5.83
511.656	5.87
511.857	5.98
512.058	6
512.26	6.01
512.461	6.07
512.662	6.08
512.863	6.02
513.064	6
513.265	6.06
513.466	6.02
513.667	6.04
513.868	6.09
514.069	6.1
514.27	6.06
514.471	6.05
514.672	6.02
514.873	6.01
515.074	6.01
515.275	5.94
515.476	5.92
515.677	5.91
515.878	5.95
516.079	5.97
516.28	6.06
516.481	6.17
516.682	6.22
516.882	6.22
517.083	6.18
517.284	6.16
517.485	6.08
517.686	6.06
517.886	6.09
518.087	6.17
518.288	6.21
518.488	6.29
518.689	6.34
518.89	6.38
519.091	6.38
519.291	6.36
519.492	6.34
519.692	6.36
519.893	6.36
520.094	6.38
520.294	6.43
520.495	6.49
520.695	6.46
520.896	6.42
521.096	6.44
521.297	6.44
521.497	6.42
521.698	6.43
521.898	6.44
522.099	6.46
522.299	6.42
522.499	6.45
522.7	6.44
522.9	6.47
523.101	6.41
523.301	6.43
523.501	6.43
523.702	6.42
523.902	6.38
524.102	6.47
524.302	6.5
524.503	6.51
524.703	6.53
524.903	6.61
525.103	6.6
525.304	6.66
525.504	6.7
525.704	6.7
525.904	6.72
526.104	6.76
526.304	6.78
526.504	6.76
526.705	6.79
526.905	6.75
527.105	6.72
527.305	6.74
527.505	6.81
527.705	6.83
527.905	6.85
528.105	6.88
528.305	6.82
528.505	6.77
528.705	6.83
528.905	6.88
529.105	6.9
529.304	6.98
529.504	7.07
529.704	7.08
529.904	7.07
530.104	7.05
530.304	7.07
530.503	7.07
530.703	7.05
530.903	7.06
531.103	7.1
531.303	7.09
531.502	7.08
531.702	7.11
531.902	7.09
532.101	7.1
532.301	7.17
532.501	7.17
532.7	7.26
532.9	7.35
533.1	7.38
533.299	7.35
533.499	7.36
533.698	7.31
533.898	7.34
534.097	7.36
534.297	7.42
534.496	7.44
534.696	7.46
534.895	7.46
535.095	7.53
535.294	7.54
535.494	7.53
535.693	7.58
535.892	7.63
536.092	7.59
536.291	7.61
536.491	7.65
536.69	7.7
536.889	7.66
537.088	7.67
537.288	7.67
537.487	7.78
537.686	7.78
537.886	7.82
538.085	7.9
538.284	7.93
538.483	7.94
538.682	7.95
538.882	7.98
539.081	8.01
539.28	8.05
539.479	8.06
539.678	8.07
539.877	8.17
540.076	8.23
540.275	8.29
540.474	8.33
540.673	8.44
540.872	8.38
541.071	8.39
541.27	8.38
541.469	8.39
541.668	8.43
541.867	8.55
542.066	8.61
542.265	8.65
542.464	8.67
542.663	8.71
542.862	8.69
543.06	8.71
543.259	8.82
543.458	8.91
543.657	8.93
543.856	9.02
544.054	9.05
544.253	9.08
544.452	9.13
544.651	9.13
544.849	9.14
545.048	9.2
545.247	9.19
545.445	9.22
545.644	9.3
545.843	9.38
546.041	9.4
546.24	9.46
546.438	9.53
546.637	9.61
546.836	9.71
547.034	9.82
547.233	9.92
547.431	9.92
547.63	9.98
547.828	10
548.027	10.01
548.225	10.02
548.423	10.14
548.622	10.23
548.82	10.27
549.019	10.38
549.217	10.45
549.415	10.53
549.614	10.62
549.812	10.62
550.01	10.65
550.209	10.71
550.407	10.79
550.605	10.79
550.803	10.89
551.002	10.95
551.2	11.01
551.398	11.06
551.596	11.16
551.794	11.31
551.993	11.41
552.191	11.54
552.389	11.65
552.587	11.7
552.785	11.72
552.983	11.86
553.181	11.9
553.379	11.94
553.577	12.04
553.775	12.16
553.973	12.16
554.171	12.24
554.369	12.37
554.567	12.49
554.765	12.55
554.963	12.67
555.161	12.8
555.359	12.82
555.557	12.88
555.755	12.97
555.952	13.1
556.15	13.21
556.348	13.33
556.546	13.49
556.744	13.61
556.941	13.63
557.139	13.71
557.337	13.8
557.535	13.8
557.732	13.91
557.93	14.03
558.128	14.12
558.325	14.28
558.523	14.43
558.721	14.5
558.918	14.6
559.116	14.69
559.313	14.8
559.511	14.96
559.708	15.07
559.906	15.2
560.104	15.39
560.301	15.52
560.498	15.6
560.696	15.75
560.893	15.8
561.091	15.86
561.288	15.92
561.486	16.01
561.683	16.08
561.88	16.3
562.078	16.39
562.275	16.45
562.473	16.57
562.67	16.71
562.867	16.77
563.064	16.93
563.262	17.11
563.459	17.17
563.656	17.32
563.853	17.43
564.051	17.62
564.248	17.68
564.445	17.8
564.642	17.94
564.839	18
565.036	18.06
565.234	18.23
565.431	18.36
565.628	18.39
565.825	18.44
566.022	18.5
566.219	18.54
566.416	18.64
566.613	18.7
566.81	18.94
567.007	18.99
567.204	19.07
567.401	19.16
567.598	19.33
567.795	19.31
567.991	19.38
568.188	19.47
568.385	19.47
568.582	19.54
568.779	19.62
568.976	19.81
569.172	19.95
569.369	20.16
569.566	20.27
569.763	20.41
569.96	20.5
570.156	20.49
570.353	20.49
570.55	20.51
570.746	20.55
570.943	20.53
571.14	20.61
571.336	20.69
571.533	20.73
571.729	20.86
571.926	20.89
572.123	21
572.319	21.05
572.516	21.18
572.712	21.19
572.909	21.32
573.105	21.36
573.302	21.4
573.498	21.36
573.695	21.32
573.891	21.37
574.087	21.36
574.284	21.36
574.48	21.43
574.677	21.5
574.873	21.5
575.069	21.61
575.266	21.67
575.462	21.63
575.658	21.78
575.854	21.83
576.051	21.77
576.247	21.8
576.443	21.93
576.639	21.92
576.835	21.79
577.032	21.77
577.228	21.87
577.424	21.85
577.62	21.83
577.816	21.94
578.012	22
578.208	21.91
578.404	21.87
578.6	21.88
578.796	21.93
578.993	21.97
579.189	21.93
579.384	21.95
579.58	21.95
579.776	21.87
579.972	21.86
580.168	21.93
580.364	21.94
580.56	21.87
580.756	21.93
580.952	21.94
581.148	21.94
581.343	22
581.539	22.04
581.735	22.05
581.931	22.01
582.127	21.96
582.322	21.93
582.518	21.94
582.714	21.94
582.909	21.9
583.105	21.9
583.301	21.86
583.496	21.81
583.692	21.7
583.888	21.75
584.083	21.66
584.279	21.66
584.474	21.67
584.67	21.72
584.866	21.73
585.061	21.82
585.257	21.77
585.452	21.76
585.648	21.73
585.843	21.66
586.039	21.57
586.234	21.49
586.429	21.51
586.625	21.48
586.82	21.42
587.015	21.49
587.211	21.52
587.406	21.43
587.601	21.51
587.797	21.58
587.992	21.61
588.187	21.64
588.383	21.71
588.578	21.68
588.773	21.71
588.968	21.65
589.163	21.67
589.359	21.63
589.554	21.59
589.749	21.52
589.944	21.57
590.139	21.65
590.334	21.7
590.529	21.79
590.724	21.9
590.919	21.96
591.114	21.9
591.309	21.94
591.504	21.94
591.699	21.91
591.894	21.87
592.089	21.95
592.284	21.98
592.479	22.02
592.674	22.07
592.869	22.16
593.064	22.28
593.259	22.41
593.454	22.47
593.648	22.52
593.843	22.57
594.038	22.57
594.233	22.57
594.428	22.63
594.622	22.81
594.817	22.91
595.012	22.97
595.206	23.04
595.401	23.12
595.596	23.12
595.79	23.17
595.985	23.26
596.18	23.38
596.374	23.42
596.569	23.51
596.763	23.64
596.958	23.67
597.153	23.6
597.347	23.75
597.542	23.8
597.736	23.79
597.931	23.95
598.125	24.16
598.319	24.21
598.514	24.25
598.708	24.42
598.903	24.47
599.097	24.47
599.291	24.43
599.486	24.52
599.68	24.54
599.874	24.62
600.069	24.7
600.263	24.85
600.457	24.85
600.651	24.92
600.846	24.95
601.04	25.05
601.234	25.17
601.428	25.28
601.622	25.26
601.817	25.39
602.011	25.32
602.205	25.28
602.399	25.26
602.593	25.29
602.787	25.14
602.981	25.2
603.175	25.26
603.369	25.31
603.563	25.38
603.757	25.44
603.951	25.38
604.145	25.2
604.339	25.16
604.533	25.07
604.727	25.02
604.921	25.05
605.115	25.12
605.309	25.2
605.502	25.18
605.696	25.2
605.89	25.18
606.084	25.15
606.278	25.05
606.471	25.07
606.665	24.98
606.859	24.9
607.053	24.82
607.246	24.69
607.44	24.57
607.634	24.5
607.827	24.44
608.021	24.48
608.214	24.44
608.408	24.38
608.602	24.36
608.795	24.37
608.989	24.22
609.182	24.17
609.376	24.08
609.569	23.96
609.763	23.77
609.956	23.8
610.15	23.72
610.343	23.65
610.537	23.6
610.73	23.54
610.923	23.41
611.117	23.27
611.31	23.18
611.504	23.16
611.697	23.13
611.89	22.94
612.083	22.87
612.277	22.82
612.47	22.67
612.663	22.64
612.856	22.62
613.05	22.6
613.243	22.47
613.436	22.4
613.629	22.24
613.822	22.15
614.015	21.99
614.209	21.98
614.402	21.83
614.595	21.75
614.788	21.72
614.981	21.65
615.174	21.39
615.367	21.38
615.56	21.24
615.753	21.14
615.946	21.09
616.139	21.17
616.332	21.17
616.525	21.13
616.718	21.04
616.911	21.03
617.103	20.87
617.296	20.74
617.489	20.76
617.682	20.7
617.875	20.65
618.067	20.74
618.26	20.66
618.453	20.56
618.646	20.59
618.838	20.53
619.031	20.51
619.224	20.49
619.417	20.46
619.609	20.36
619.802	20.33
619.994	20.16
620.187	20.17
620.38	20.14
620.572	20.03
620.765	19.9
620.957	19.93
621.15	19.8
621.342	19.74
621.535	19.7
621.727	19.72
621.92	19.65
622.112	19.7
622.305	19.7
622.497	19.76
622.69	19.83
622.882	19.84
623.074	19.79
623.267	19.76
623.459	19.71
623.651	19.61
623.844	19.58
624.036	19.56
624.228	19.44
624.42	19.4
624.613	19.39
624.805	19.37
624.997	19.38
625.189	19.48
625.381	19.49
625.574	19.42
625.766	19.34
625.958	19.33
626.15	19.31
626.342	19.26
626.534	19.32
626.726	19.28
626.918	19.18
627.11	19.17
627.302	19.12
627.494	18.99
627.686	19.02
627.878	19.01
628.07	18.9
628.262	18.91
628.454	18.92
628.646	18.87
628.838	18.79
629.029	18.82
629.221	18.75
629.413	18.75
629.605	18.69
629.797	18.7
629.989	18.57
630.18	18.47
630.372	18.36
630.564	18.32
630.755	18.31
630.947	18.34
631.139	18.32
631.33	18.26
631.522	18.21
631.714	18.1
631.905	18.06
632.097	18.04
632.289	18.08
632.48	18.12
632.672	18.13
632.863	18.16
633.055	18.08
633.246	18.1
633.438	17.96
633.629	17.9
633.821	17.78
634.012	17.77
634.203	17.66
634.395	17.69
634.586	17.64
634.777	17.66
634.969	17.67
635.16	17.71
635.351	17.68
635.543	17.71
635.734	17.61
635.925	17.63
636.117	17.53
636.308	17.5
636.499	17.47
636.69	17.64
636.881	17.58
637.073	17.67
637.264	17.71
637.455	17.77
637.646	17.65
637.837	17.7
638.028	17.59
638.219	17.59
638.41	17.5
638.601	17.5
638.792	17.44
638.983	17.54
639.174	17.44
639.365	17.44
639.556	17.35
639.747	17.35
639.938	17.29
640.129	17.27
640.32	17.19
640.511	17.16
640.701	17.1
640.892	17.01
641.083	16.99
641.274	17.01
641.465	17
641.655	16.97
641.846	17.01
642.037	16.92
642.228	16.86
642.418	16.87
642.609	16.84
642.8	16.75
642.99	16.74
643.181	16.7
643.372	16.72
643.562	16.65
643.753	16.63
643.943	16.61
644.134	16.62
644.324	16.54
644.515	16.54
644.705	16.47
644.896	16.49
645.086	16.44
645.277	16.44
645.467	16.43
645.658	16.42
645.848	16.35
646.038	16.38
646.229	16.35
646.419	16.36
646.61	16.4
646.8	16.42
646.99	16.44
647.18	16.41
647.371	16.4
647.561	16.31
647.751	16.36
647.941	16.32
648.132	16.29
648.322	16.22
648.512	16.22
648.702	16.24
648.892	16.19
649.082	16.13
649.272	16.1
649.462	16.06
649.653	16
649.843	15.96
650.033	15.99
650.223	15.98
650.413	15.94
650.603	15.9
650.793	15.81
650.983	15.66
651.172	15.63
651.362	15.55
651.552	15.47
651.742	15.47
651.932	15.44
652.122	15.4
652.312	15.32
652.502	15.22
652.691	15.09
652.881	15.09
653.071	14.98
653.261	14.91
653.45	14.8
653.64	14.77
653.83	14.65
654.019	14.56
654.209	14.38
654.399	14.28
654.588	14.17
654.778	14.01
654.968	13.84
655.157	13.85
655.347	13.79
655.536	13.6
655.726	13.46
655.915	13.4
656.105	13.25
656.294	13.1
656.484	13
656.673	12.95
656.863	12.79
657.052	12.57
657.241	12.33
657.431	12.14
657.62	12
657.809	11.79
657.999	11.7
658.188	11.61
658.377	11.47
658.567	11.2
658.756	11.08
658.945	10.93
659.134	10.72
659.324	10.49
659.513	10.35
659.702	10.29
659.891	10.03
660.08	9.84
660.269	9.74
660.458	9.6
660.648	9.39
660.837	9.33
661.026	9.17
661.215	8.98
661.404	8.81
661.593	8.64
661.782	8.49
661.971	8.4
662.16	8.3
662.349	8.15
662.538	7.98
662.726	7.9
662.915	7.76
663.104	7.67
663.293	7.6
663.482	7.48
663.671	7.24
663.86	7.19
664.048	7.07
664.237	6.98
664.426	6.85
664.615	6.9
664.803	6.73
664.992	6.68
665.181	6.58
665.369	6.57
665.558	6.42
665.747	6.39
665.935	6.36
666.124	6.24
666.312	6.23
666.501	6.19
666.69	6.16
666.878	6.13
667.067	6.09
667.255	5.99
667.444	5.98
667.632	5.88
667.82	5.77
668.009	5.78
668.197	5.79
668.386	5.73
668.574	5.74
668.762	5.71
668.951	5.7
669.139	5.64
669.327	5.62
669.516	5.63
669.704	5.56
669.892	5.64
670.08	5.67
670.269	5.64
670.457	5.67
670.645	5.65
670.833	5.58
671.021	5.6
671.21	5.65
671.398	5.59
671.586	5.65
671.774	5.74
671.962	5.72
672.15	5.79
672.338	5.88
672.526	5.82
672.714	5.78
672.902	5.81
673.09	5.78
673.278	5.73
673.466	5.91
673.654	6.02
673.842	6.06
674.03	6.05
674.218	6.11
674.405	6.14
674.593	6.13
674.781	6.11
674.969	6.3
675.157	6.27
675.344	6.27
675.532	6.33
675.72	6.48
675.908	6.47
676.095	6.56
676.283	6.58
676.471	6.58
676.658	6.58
676.846	6.6
677.033	6.84
677.221	6.96
677.409	7.03
677.596	7.2
677.784	7.41
677.971	7.28
678.159	7.37
678.346	7.39
678.534	7.38
678.721	7.39
678.909	7.56
679.096	7.56
679.283	7.74
679.471	7.68
679.658	7.8
679.846	7.93
680.033	8.1
680.22	8.2
680.408	8.4
680.595	8.45
680.782	8.52
680.969	8.6
681.157	8.71
681.344	8.84
681.531	8.97
681.718	9.03
681.905	9.14
682.093	9.36
682.28	9.51
682.467	9.63
682.654	9.99
682.841	10.22
683.028	10.21
683.215	10.31
683.402	10.63
683.589	10.61
683.776	10.77
683.963	11
684.15	11.2
684.337	11.2
684.524	11.56
684.711	11.9
684.898	12.14
685.085	12.58
685.271	13.03
685.458	13.25
685.645	13.39
685.832	13.74
686.019	13.99
686.205	14.21
686.392	14.53
686.579	14.94
686.766	15.33
686.952	15.7
687.139	15.99
687.326	16.37
687.512	16.84
687.699	17.27
687.886	17.77
688.072	18.24
688.259	18.64
688.445	19.02
688.632	19.43
688.818	19.8
689.005	20.2
689.191	20.89
689.378	21.49
689.564	22.07
689.751	22.82
689.937	23.6
690.124	24.05
690.31	24.69
690.496	25.37
690.683	26
690.869	26.72
691.055	27.46
691.242	28.07
691.428	28.59
691.614	29.11
691.8	29.69
691.987	30.45
692.173	31.11
692.359	32.11
692.545	32.88
692.731	33.53
692.918	34.13
693.104	34.78
693.29	35.22
693.476	36
693.662	36.77
693.848	37.79
694.034	38.64
694.22	39.53
694.406	40.21
694.592	41.12
694.778	41.53
694.964	42.2
695.15	42.9
695.336	43.63
695.522	44.45
695.708	45.27
695.894	46.2
696.08	46.87
696.265	47.8
696.451	48.62
696.637	49.44
696.823	49.92
697.009	51.01
697.194	51.38
697.38	51.91
697.566	52.51
697.751	53.32
697.937	53.69
698.123	54.52
698.308	55.37
698.494	55.9
698.68	56.7
698.865	57.32
699.051	58.02
699.236	58.36
699.422	59.12
699.607	59.73
699.793	60.34
699.978	60.73
700.164	61.27
700.349	62.12
700.535	62.71
700.72	63.36
700.906	63.97
701.091	64.55
701.276	64.74
701.462	65.16
701.647	65.69
701.832	66.2
702.018	66.84
702.203	67.42
702.388	67.74
702.573	68.11
702.759	68.66
702.944	68.86
703.129	68.97
703.314	69.31
703.499	69.35
703.684	69.67
703.87	70
704.055	70.7
704.24	71.21
704.425	71.82
704.61	72.18
704.795	72.63
704.98	72.82
705.165	72.88
705.35	73.29
705.535	73.58
705.72	73.71
705.905	73.99
706.09	74.82
706.275	74.98
706.459	75.12
706.644	75.47
706.829	75.62
707.014	75.78
707.199	76.1
707.384	76.78
707.568	77.01
707.753	77.7
707.938	77.85
708.123	78.32
708.307	78.34
708.492	79.1
708.677	79.18
708.861	79.07
709.046	79.25
709.231	79.57
709.415	79.21
709.6	79.1
709.784	79.48
709.969	79.52
710.153	79.9
710.338	80.49
710.522	80.86
710.707	81.23
710.891	81.41
711.076	81.11
711.26	80.63
711.445	80.63
711.629	81.12
711.813	81.26
711.998	81.68
712.182	81.91
712.366	82.35
712.551	81.77
712.735	81.63
712.919	81.79
713.103	82.23
713.288	82.29
713.472	82.77
713.656	83.25
713.84	83.14
714.024	83.37
714.208	83.62
714.393	83.45
714.577	83.44
714.761	83.37
714.945	83.45
715.129	83.19
715.313	83.58
715.497	84.24
715.681	84.7
715.865	85.07
716.049	85.45
716.233	85.7
716.417	85.46
716.601	85.66
716.785	85.48
716.968	85.55
717.152	85.52
717.336	85.58
717.52	85.25
717.704	85.63
717.888	85.14
718.071	85.2
718.255	85.31
718.439	85.86
718.622	85.26
718.806	85.93
718.99	86.14
719.174	85.99
719.357	85.73
719.541	86.29
719.724	86.49
719.908	86.3
720.092	86.99
720.275	87.18
720.459	87.18
720.642	87.01
720.826	87.57
721.009	87
721.193	86.98
721.376	86.46
721.559	86.23
721.743	85.38
721.926	85.55
722.11	85.45
722.293	86.08
722.476	86.64
722.66	86.82
722.843	87.26
723.026	87.55
723.21	87.45
723.393	87.67
723.576	88.38
723.759	88.14
723.942	88.19
724.126	88
724.309	87.98
724.492	87.97
724.675	87.83
724.858	87.73
725.041	88.04
725.224	88.3
725.407	88.04
725.59	88.56
725.774	89.36
725.957	89.51
726.14	89.24
726.322	88.83
726.505	88.45
726.688	88.52
726.871	88.43
727.054	87.96
727.237	88.86
727.42	89.35
727.603	89.02
727.786	89.04
727.968	89.82
728.151	89.51
728.334	89.16
728.517	89.41
728.699	89.95
728.882	89.85
729.065	89.86
729.248	90.47
729.43	89.92
729.613	89.85
729.796	90.08
729.978	90.36
730.161	89.87
730.343	90.09
730.526	89.75
730.708	89.33
730.891	88.88
731.073	89.39
731.256	89.64
731.438	90.1
731.621	90.33
731.803	91.21
731.986	91.01
732.168	90.75
732.35	91.31
732.533	91
732.715	90.38
732.898	90.44
733.08	90.79
733.262	90.41
733.444	90.82
733.627	91.14
733.809	91.03
733.991	91.21
734.173	91.32
734.355	91.85
734.538	91.37
734.72	91.84
734.902	92
735.084	92.04
735.266	91.69
735.448	92.68
735.63	93.36
735.812	93.41
735.994	93.87
736.176	93.9
736.358	93.87
736.54	93.95
736.722	93.65
736.904	92.75
737.086	92.67
737.268	92.4
737.45	92.12
737.632	93.03
737.814	93.53
737.995	94.01
738.177	94.63
738.359	94.67
738.541	94.45
738.723	94.9
738.904	95.21
739.086	95.19
739.268	94.69
739.449	95.02
739.631	95.98
739.813	94.91
739.994	93.92
740.176	93.63
740.358	92.9
740.539	91.57
740.721	92.18
740.902	92.67
741.084	92.86
741.265	93.8
741.447	94.37
741.628	94.67
741.81	95.64
741.991	95.31
742.172	94.26
742.354	93.72
742.535	93.55
742.717	92.75
742.898	93.57
743.079	93.81
743.261	93.84
743.442	93.17
743.623	92.41
743.804	91.44
743.986	91.4
744.167	90.59
744.348	90.8
744.529	91.63
744.71	92.05
744.891	91.62
745.073	93.21
745.254	93.1
745.435	92.75
745.616	92.76
745.797	92.68
745.978	91.58
746.159	92.54
746.34	91.81
746.521	92.99
746.702	93.5
746.883	93.27
747.064	92.59
747.245	93.02
747.426	91.75
747.606	91.26
747.787	91.94
747.968	92.27
748.149	92.93
748.33	92.96
748.51	92.52
748.691	92.52
748.872	92.88
749.053	93.36
749.233	93.97
749.414	95.52
749.595	95.17
749.775	94.73
749.956	94.49
750.137	94.11
750.317	93.17
750.498	93.39
750.678	93.13
750.859	93.08
751.04	93.19
751.22	94.04
751.4	93.76
751.581	92.83
751.761	93.63
751.942	93.74
752.122	93.48
752.303	92.82
752.483	93.07
752.663	91.26
752.844	90.86
753.024	90.71
753.204	90.89
753.385	90.79
753.565	91.54
753.745	91.25
753.925	90.1
754.106	90.74
754.286	91.62
754.466	91.38
754.646	90.82
754.826	92.36
755.006	92.29
755.187	91.87
755.367	93
755.547	95.01
755.727	94.37
755.907	93.13
756.087	92.49
756.267	92.52
756.447	91.64
756.627	92.35
756.807	92.61
756.987	92.56
757.167	92.1
757.346	92.41
757.526	91.88
757.706	93.47
757.886	93.72
758.066	92.74
758.246	93.24
758.425	92.74
758.605	91.47
758.785	91.12
758.965	91.01
759.144	89.41
759.324	89.58
759.504	89.55
759.683	90.64
759.863	90.88
760.043	92.01
760.222	93.55
760.402	93.77
760.581	94.83
760.761	94.15
760.94	92.61
761.12	92.46
761.299	92.87
761.479	90.7
761.658	91.44
761.838	92.75
762.017	91.65
762.197	92.32
762.376	91.78
762.555	90.88
762.735	89.73
762.914	87.9
763.093	87.57
763.273	88.62
763.452	89.08
763.631	88.91
763.81	89.21
763.99	88.96
764.169	89.28
764.348	88.81
764.527	89.31
764.706	90.53
764.885	89.59
765.064	89.03
765.243	89.88
765.423	88.86
765.602	88.39
765.781	88.4
765.96	89.69
766.139	89.69
766.318	91.3
766.497	91.98
766.676	92.04
766.854	90.11
767.033	90.71
767.212	90.52
767.391	89.75
767.57	90.31
767.749	92
767.928	90.87
768.106	90.26
768.285	89.56
768.464	88.71
768.643	87.09
768.821	88.45
769	88.32
769.179	88.52
769.357	89.64
769.536	91.07
769.715	89.72
769.893	89.96
770.072	90.74
770.25	89.07
770.429	90.41
770.607	91.52
770.786	91.43
770.964	90.4
771.143	92.84
771.321	92.01
771.5	91.26
771.678	90.8
771.857	91.95
772.035	89.88
772.213	88.84
772.392	89.03
772.57	90.01
772.748	91.21
772.927	94.64
773.105	93.4
773.283	91.31
773.461	90.05
773.64	87.17
773.818	84.16
773.996	85.11
774.174	86.94
774.352	88.78
774.531	88.35
774.709	90.27
774.887	90.1
775.065	89.02
775.243	86.38
775.421	88.52
775.599	85.55
775.777	85.19
775.955	85.01
776.133	87.4
776.311	85.26
776.489	86.7
776.667	86.53
776.844	88.78
777.022	86.86
777.2	87.15
777.378	88.14
777.556	88.55
777.734	85.74
777.911	86.68
778.089	87.31
778.267	88.11
778.445	86.18
778.622	84.63
778.8	82.54
778.978	82.23
779.155	78.08
779.333	78.89
779.511	81.24
779.688	80.09
779.866	81.93
780.043	85.52
780.221	83.08
780.398	82.92
780.576	86.61
780.753	83.32
780.931	80.45
781.108	80.16
781.286	78.03
781.463	77.92
781.64	78.65
781.818	82.48
781.995	85.82
782.172	88.83
782.35	89.1
782.527	90.96
782.704	89.06
782.882	90.22
783.059	88.6
783.236	87.57
783.413	87.7
783.59	87.94
783.768	86.6
783.945	89.13
784.122	87.78
784.299	87.26
784.476	86.79
784.653	87.89
784.83	88.11
785.007	91.78
785.184	91.4
785.361	91.07
785.538	86.73
785.715	83.88
785.892	80.38
786.069	78.91
786.246	80.92
786.423	83.34
786.6	87.84
786.776	89.66
786.953	90.23
787.13	86.81
787.307	86.23
787.484	83.13
787.66	79.12
787.837	79.11
788.014	82.2
788.191	83.81
788.367	82.02
788.544	86.11
788.721	89.71
788.897	86.3
789.074	81.6
789.25	80.18
789.427	80.33
789.603	78.48
789.78	80.89
789.956	81.54
790.133	84.4
790.309	81.72
790.486	79.02
790.662	76.98
790.839	79.59
791.015	79.88
791.192	79.89
791.368	82.57
791.544	86.81
791.721	90.35
791.897	91.11
792.073	95.6
792.249	93.99
792.426	92.08
792.602	88.53
792.778	88.65
792.954	86.58
793.13	88.79
793.307	85
793.483	87.22
793.659	83.88
793.835	83.27
794.011	82
794.187	81.21
794.363	79.86
794.539	80.93
794.715	80.15
794.891	78.46
795.067	81.15
795.243	81.78
795.419	82.22
795.595	84.05
795.771	85.51
795.947	84.75
796.122	85.25
796.298	82.11
796.474	86.02
796.65	84.6
796.826	85.01
797.001	82.23
797.177	85.6
797.353	85.1
797.529	85.15
797.704	85.19
797.88	85.4
798.056	85.44
798.231	79.88
798.407	84.34
798.582	83.88
798.758	83.08
798.934	85.61
799.109	88.67
799.285	85.1
799.46	86.81
799.636	87.07
799.811	85.24
799.986	82.25
800.162	83.23
800.337	81.17
800.513	81.45
800.688	78.54
800.863	81.89
801.039	79.71
801.214	82.59
801.389	85.8
801.565	87.05
801.74	84.59
801.915	82.59
802.09	76.94
802.265	73.12
802.441	71.36
802.616	72.74
802.791	74.33
802.966	75.51
803.141	74.44
803.316	77.54
803.491	76.85
803.666	74.93
803.841	76.01
804.016	80.43
804.191	81.01
804.366	80.48
804.541	82.41
804.716	81.21
804.891	82.57
805.066	82.18
805.241	88.01
805.416	86.86
805.591	91.44
805.765	91.78
805.94	90.97
806.115	87.08
806.29	87.25
806.464	90.62
806.639	86.45
806.814	86.76
806.989	87.37
807.163	85.95
807.338	80.22
807.512	81.72
807.687	73.96
807.862	79.2
808.036	88.35
808.211	91.3
808.385	93.12
808.56	98.95
808.734	94.07
808.909	87.06
809.083	85.03
809.258	87.66
809.432	87.79
809.606	84.64
809.781	86.78
809.955	87
810.13	83.11
810.304	77.48
810.478	72.51
810.652	73.18
810.827	71.13
811.001	68.25
811.175	78.09
811.349	84.88
811.524	78.68
811.698	77.79
811.872	86.13
812.046	76.34
812.22	75.54
812.394	87.28
812.568	85.13
812.742	87.36
812.916	83.83
813.09	83.58
813.264	80.73
813.438	86.19
813.612	90.22
813.786	99.21
813.96	108.23
814.134	105.1
814.308	101.41
814.482	88.1
814.656	82.19
814.83	69.06
815.003	74.81
815.177	77.13
815.351	74.74
815.525	72.2
815.698	81.34
815.872	86.45
816.046	84.75
816.219	91.78
816.393	92.66
816.567	90.81
816.74	78.34
816.914	72.56
817.088	71.8
817.261	66.65
817.435	61.72
817.608	63.13
817.782	71.28
817.955	71.64
818.129	79.84
818.302	86.65
818.475	85.67
818.649	74.44
818.822	66.54
818.996	71.82
819.169	67.29
819.342	67.65
819.516	76.9
819.689	75.25
819.862	71.01
820.035	69.25
820.209	67.38
820.382	63.88
820.555	61.48
820.728	54.95
820.901	60.24
821.075	65.52
821.248	60.34
821.421	66.96
821.594	77.34
821.767	88.18
821.94	80.71
822.113	93.6
822.286	98.29
822.459	92.76
822.632	77.72
822.805	83.31
822.978	79.29
823.151	76.29
823.324	70.72
823.496	81.12
823.669	94.13
823.842	92.55
824.015	86.27
824.188	64.2
824.361	52.08
824.533	36.58
824.706	33.19
824.879	48.69
825.051	83.05
825.224	82.73
825.397	78.11
825.569	74.21
825.742	77.83
825.915	82.24
826.087	93.07
826.26	101.35
826.432	108.53
826.605	97.97
826.777	87.72
826.95	82.77
827.122	66.78
827.295	69.14
827.467	67.35
827.64	71.1
827.812	73.08
827.984	84.05
828.157	81.76
828.329	76.85
828.501	73.86
828.674	71.75
828.846	69.03
829.018	68.82
829.19	72.7
829.363	71.78
829.535	82.44
829.707	74.67
829.879	77.15
830.051	81.78
830.223	82.56
830.395	74.41
830.568	80.55
830.74	83.75
830.912	83.34
831.084	76.54
831.256	72.84
831.428	67.23
831.6	63.43
831.772	55.67
831.943	41
832.115	47.31
832.287	43.2
832.459	18.24
832.631	5.14
832.803	44.83
832.975	42.75
833.146	35.55
833.318	50.02
833.49	52.15
833.662	37.02
833.833	35.32
834.005	63.1
834.177	70.04
834.348	80.03
834.52	84.37
834.692	85.75
834.863	82.9
835.035	87.8
835.206	83.17
835.378	88.62
835.549	121.64
835.721	128.27
835.892	123.67
836.064	99.75
836.235	78.64
836.407	73.77
836.578	71.01
836.749	57.14
836.921	60.39
837.092	44.82
837.264	38.16
837.435	49.84
837.606	54.03
837.777	52.56
837.949	59.22
838.12	71.29
838.291	72.94
838.462	100.87
838.633	110.71
838.805	117.34
838.976	87.91
839.147	74.2
839.318	56.36
839.489	56.49
839.66	62.07
839.831	67.46
840.002	61.23
840.173	62.36
840.344	70.4
840.515	58.07
840.686	51.73
840.857	58.77
841.028	71.77
841.199	84.09
841.369	99.54
841.54	100.53
841.711	105.3
841.882	106.74
842.053	102.27
842.223	70.53
842.394	76.48
842.565	103.12
842.736	118.56
842.906	104.67
843.077	100.87
843.248	108.35
843.418	77.07
843.589	17.25
843.759	1.34
843.93	-21.26
844.101	37.98
844.271	32.6
844.442	49.71
844.612	152.14
844.783	237.33
844.953	363.73
845.123	-53075
845.294	191.97
845.464	130.4
845.635	120.72
845.805	94.53
845.975	87.45
846.146	62.12
846.316	47.32
846.486	56.17
846.656	46.95
846.827	52.2
846.997	50.84
847.167	41.7
847.337	40.26
847.507	48.41
847.677	36.27
847.848	64.53
848.018	124.24
848.188	79.61
848.358	117.15
848.528	122.83
848.698	146.36
848.868	133.67
849.038	257.36
849.208	295.04
849.378	222.17
849.548	187.83
849.718	154.34
849.887	153.9
850.057	71.81
850.227	72.28
850.397	76.29
850.567	66.18
850.737	63.44
850.906	67.71
851.076	61
851.246	48.69
851.415	45.35
851.585	45.67
851.755	46.59
851.924	50.03
852.094	29.67
852.264	41.73
852.433	10.34
852.603	36.48
852.772	51.72
852.942	51.94
853.111	52.57
853.281	78.97
853.45	87.58
853.62	75.18
853.789	71.4
853.959	66.62
854.128	54.31
854.297	39.84
854.467	32.53
854.636	41.91
854.805	57.93
854.975	66.79
855.144	58.95
855.313	53.63
855.482	45.25
855.652	30.53
855.821	30.56
855.99	42.57
856.159	42.12
856.328	59.12
856.497	93.87
856.667	101.6
856.836	117.56
857.005	120.05
857.174	131.66
857.343	85.55
857.512	80.33
857.681	37.82
857.85	-216.6
858.019	-46.87
858.188	-19.84
858.356	14.67
858.525	-0.03
858.694	22.78
858.863	10.92
859.032	8.67
859.201	-26.08
859.369	17.32
859.538	28.2
859.707	36.18
859.876	45.07
860.044	60.34
860.213	72.42
860.382	84.35
860.55	75.2
860.719	68.99
860.888	49.88
861.056	34.16
861.225	31.2
861.393	50.2
861.562	48.31
861.73	51.44
861.899	55.4
862.067	57.98
862.236	44.43
862.404	58.28
862.572	47.2
862.741	85.76
862.909	70.87
863.078	73.64
863.246	31.31
863.414	45.11
863.582	33.18
863.751	34.29
863.919	83.66
864.087	388.87
864.255	-883.22
864.424	501.17
864.592	205.15
864.76	96.22
864.928	60.79
865.096	66.86
865.264	61.4
865.432	65.47
865.6	84.34
865.768	70.71
865.936	50.26
866.104	47.74
866.272	24.55
866.44	-6.28
866.608	9.36
866.776	13.29
866.944	4.18
867.112	23.21
867.28	31.15
867.448	61.85
867.615	83.22
867.783	55.79
867.951	43.04
868.119	50.03
868.286	47.38
868.454	19.04
868.622	18.07
868.789	16.26
868.957	68.2
869.125	73.79
869.292	74.9
869.46	91.01
869.627	154.99
869.795	34.93
869.963	218.47
870.13	-63.52
870.298	128.33
870.465	22.52
870.632	69.18
870.8	70.2
870.967	71.25
871.135	48.83
871.302	81.32
871.469	78.31
871.637	83.34
871.804	64.28
871.971	61.1
872.139	47.67
872.306	50.02
872.473	51.37
872.64	56.88
872.807	56.27
872.975	85.22
873.142	95.4
873.309	81.99
873.476	52.66
873.643	85.67
873.81	74.01
873.977	29.71
874.144	15.77
874.311	41.97
874.478	42.2
874.645	60.67
874.812	61.37
874.979	44.75
875.146	39.71
875.313	46.43
875.48	33.75
875.647	26.91
875.813	73.88
875.98	105.77
876.147	97.62
876.314	80.24
876.481	126.74
876.647	102.53
876.814	84.89
876.981	172.07
877.147	15287.5
877.314	35.02
877.481	-298.86
877.647	-1607.95
877.814	100.73
877.98	60.16
878.147	81.75
878.314	138.09
878.48	84.75
878.647	65.48
878.813	68.37
878.979	80.1
879.146	51.68
879.312	48.96
879.479	76.87
879.645	112.63
879.811	69.83
879.978	62.03
880.144	104.33
880.31	84.69
880.477	67.3
880.643	65.59
880.809	77.66
880.975	93.97
881.142	183.11
881.308	1279.55
881.474	-78.89
881.64	38.24
881.806	81.48
881.972	80.02
882.138	-90.07
882.304	152.15
882.47	33.09
882.636	-36.94
882.802	14.59
882.968	71.48
883.134	57.53
883.3	89.78
883.466	117.63
883.632	146.42
883.798	121.23
883.964	118.06
884.129	148.36
884.295	83.35
884.461	84
884.627	60.89
884.793	58.55
884.958	45.34
885.124	31.59
885.29	-50.21
885.455	-178.8
885.621	-61.95
885.787	357.28
885.952	-220.78
886.118	-11.21
886.283	60.99
886.449	45.6
886.614	20.07
886.78	9.69
886.945	20.06
887.111	1.79
887.276	37.36
887.442	70.04
887.607	85.06
887.773	73.14
887.938	94.58
888.103	145.72
888.269	84.7
888.434	114.68
888.599	172.38
888.764	152.81
888.93	117.56
889.095	113.19
889.26	128.3
889.425	109.89
889.59	95.27
889.756	73.3
889.921	73.22
890.086	78.02
890.251	99.36
890.416	56.87
890.581	103.44
890.746	72.25
890.911	38.37
891.076	9.2
891.241	66.03
891.406	62.4
891.571	42.69
891.736	58.84
891.901	59.63
892.065	76.79
892.23	56.9
892.395	83.75
892.56	55.25
892.725	31.54
892.889	4.11
893.054	32.31
893.219	82.31
893.384	193.66
893.548	-542.72
893.713	-751.61
893.878	-145.34
