Data from Ofra_PS_Phys_2GT38_Reflection_3.txt Node
Date: Tue Jul 20 17:50:53 EDT 2021
User: USUARIO
Spectrometer: FLMT01687
Trigger mode: 0
Integration Time (sec): 1.042999E0
Scans to average: 2
Electric dark correction enabled: true
Nonlinearity correction enabled: false
Boxcar width: 2
XAxis mode: Wavelengths
Number of Pixels in Spectrum: 3648
>>>>>Begin Spectral Data<<<<<
179.494	67.54
179.716	110.69
179.937	98.45
180.158	70.38
180.38	286.48
180.601	-281.31
180.823	-151.35
181.044	-255.41
181.265	-883.14
181.486	30.73
181.708	44.74
181.929	87.15
182.15	83.59
182.372	10.92
182.593	19.32
182.814	15.45
183.035	38.75
183.257	24.34
183.478	-3.3
183.699	16.66
183.92	20.99
184.141	18.85
184.363	46.5
184.584	63.16
184.805	87.08
185.026	106.93
185.247	111.31
185.468	109.97
185.689	107.33
185.91	94.67
186.132	89.72
186.353	51.59
186.574	39.09
186.795	51.37
187.016	35.22
187.237	3.61
187.458	12.83
187.679	18.68
187.9	13.24
188.121	-14.07
188.342	-34.97
188.563	29.76
188.784	45.6
189.005	69.29
189.226	65.03
189.447	68.35
189.667	64.44
189.888	55.43
190.109	14.22
190.33	20.44
190.551	-16.89
190.772	5.61
190.993	21.06
191.214	43.76
191.434	40.42
191.655	45.09
191.876	65.59
192.097	54.8
192.318	52.32
192.538	58.43
192.759	44.28
192.98	0.9
193.201	22.48
193.421	17.26
193.642	21.18
193.863	18.54
194.083	48.93
194.304	51.69
194.525	68.18
194.745	46.76
194.966	60.66
195.187	47.13
195.407	41.14
195.628	46.55
195.848	39.78
196.069	58.69
196.29	38.67
196.51	41.43
196.731	39.01
196.951	59.6
197.172	43.39
197.392	68.43
197.613	67.07
197.833	64.72
198.054	42.75
198.274	52.46
198.495	46.69
198.715	52.76
198.936	48.67
199.156	30.86
199.377	6.77
199.597	12.21
199.817	-19.92
200.038	-62.16
200.258	-8.54
200.479	6.4
200.699	-6.39
200.919	15.79
201.14	58.36
201.36	47.37
201.58	44.16
201.801	61.05
202.021	99.95
202.241	29.4
202.461	39.7
202.682	63.78
202.902	6.81
203.122	31.09
203.342	51.45
203.563	57.12
203.783	44.05
204.003	52.84
204.223	18.91
204.443	20.76
204.663	6.12
204.884	48.63
205.104	59.7
205.324	61.9
205.544	49.95
205.764	47.61
205.984	33.44
206.204	22.6
206.424	19.15
206.644	-10.46
206.864	10.75
207.084	-4.77
207.304	5.41
207.525	3.68
207.745	17.47
207.964	-8.53
208.184	34.2
208.404	2.54
208.624	11.46
208.844	26.69
209.064	37.96
209.284	42.48
209.504	64.77
209.724	57.34
209.944	64.23
210.164	64.7
210.384	69.07
210.604	44.43
210.823	52.81
211.043	47.16
211.263	26.01
211.483	11.87
211.703	32.83
211.922	19.01
212.142	17.98
212.362	17.76
212.582	14.53
212.801	9.75
213.021	26.4
213.241	-12.05
213.461	31.14
213.68	21.18
213.9	10.39
214.12	4.86
214.339	-6.72
214.559	-28.04
214.779	-5.01
214.998	2.03
215.218	34.03
215.438	47.3
215.657	37.06
215.877	45.79
216.096	52.47
216.316	31.64
216.535	30.17
216.755	47.66
216.974	31.87
217.194	19.25
217.413	19.32
217.633	25.55
217.852	16.81
218.072	20.53
218.291	19.47
218.511	21.7
218.73	10.05
218.95	10.08
219.169	36.63
219.389	47.67
219.608	35.67
219.827	42.6
220.047	39.41
220.266	29.95
220.485	18.18
220.705	13.79
220.924	-1.72
221.143	-8.16
221.363	-19.29
221.582	-16.38
221.801	22.6
222.021	68.02
222.24	51.2
222.459	56.5
222.678	64.77
222.897	31.87
223.117	20.83
223.336	47.15
223.555	53.53
223.774	50.27
223.993	70.54
224.213	93.32
224.432	95.46
224.651	75.34
224.87	60.64
225.089	23.26
225.308	7.68
225.527	3.36
225.746	11.76
225.965	10.79
226.184	39.24
226.404	39.01
226.623	10.17
226.842	13.47
227.061	22.93
227.28	-5.67
227.499	-8.76
227.718	7.27
227.936	13.34
228.155	26.31
228.374	28.39
228.593	32.93
228.812	40.86
229.031	34.75
229.25	6.96
229.469	21.97
229.688	37.89
229.907	29.31
230.125	35.04
230.344	57.56
230.563	59.38
230.782	35.6
231.001	43.02
231.22	55.51
231.438	46.98
231.657	38.61
231.876	54.98
232.095	58.85
232.313	46.01
232.532	46.16
232.751	43.49
232.969	41.46
233.188	36.36
233.407	26.4
233.625	34.75
233.844	49.68
234.063	57.55
234.281	63.25
234.5	69.01
234.719	56.91
234.937	67.71
235.156	63.45
235.374	32.62
235.593	16.52
235.811	27
236.03	-34.94
236.249	-61.99
236.467	14.75
236.686	34.14
236.904	22.85
237.123	47.67
237.341	58.78
237.559	55.13
237.778	59.68
237.996	46.69
238.215	54.49
238.433	46.78
238.652	43.92
238.87	33.34
239.088	48.7
239.307	39.76
239.525	49.42
239.743	41.65
239.962	41.22
240.18	35.74
240.398	22.13
240.617	1.06
240.835	12.14
241.053	33.14
241.271	27.47
241.49	26.8
241.708	26.29
241.926	26.67
242.144	19.16
242.363	14.89
242.581	13.85
242.799	5.51
243.017	22.55
243.235	16.38
243.453	21.56
243.672	42.71
243.89	49.09
244.108	42.73
244.326	54.59
244.544	54.37
244.762	30.51
244.98	36.72
245.198	43.67
245.416	34.38
245.634	35.48
245.852	50.37
246.07	60.96
246.288	45.99
246.506	47.29
246.724	71.36
246.942	61.17
247.16	42.18
247.378	41.83
247.596	66.56
247.814	35.25
248.032	25.7
248.25	31.49
248.468	34.51
248.685	32.27
248.903	49.95
249.121	69.87
249.339	78.11
249.557	101.78
249.775	118.39
249.992	143.65
250.21	102.32
250.428	94.12
250.646	6.83
250.863	-14.66
251.081	-41.61
251.299	-46.08
251.517	-14.53
251.734	26.64
251.952	50.13
252.17	77.86
252.387	61.14
252.605	55.94
252.823	53.23
253.04	59.36
253.258	58.14
253.475	61.21
253.693	75.41
253.911	63.65
254.128	46.21
254.346	37.51
254.563	50.79
254.781	27.13
254.998	14.24
255.216	20.25
255.433	24.43
255.651	6.36
255.868	13.69
256.086	19.22
256.303	0.7
256.521	-11.37
256.738	-35.78
256.956	-18.75
257.173	-32.85
257.39	-6.5
257.608	3.82
257.825	50.18
258.043	41.74
258.26	58.26
258.477	64.17
258.695	69.33
258.912	57.61
259.129	80.21
259.346	54.99
259.564	41.79
259.781	34.46
259.998	27.46
260.216	10.72
260.433	6.29
260.65	18.96
260.867	24.46
261.084	44.71
261.302	34.49
261.519	62.73
261.736	66.43
261.953	79
262.17	47.27
262.387	30.27
262.604	-13.19
262.822	-10.3
263.039	-61.71
263.256	-35.44
263.473	-22.24
263.69	-14.38
263.907	9.41
264.124	6.46
264.341	19.64
264.558	17.17
264.775	27.92
264.992	22.5
265.209	29.12
265.426	18.02
265.643	41.74
265.86	30.75
266.077	25.57
266.294	23.66
266.51	49.18
266.727	40.03
266.944	55.55
267.161	44.54
267.378	56.03
267.595	40.76
267.812	47.12
268.028	32.46
268.245	48.63
268.462	49.61
268.679	23.97
268.896	15.09
269.112	38.1
269.329	18.81
269.546	-15.89
269.763	3.04
269.979	17.5
270.196	11.72
270.413	30.65
270.629	27.61
270.846	40.63
271.063	33.83
271.279	32.32
271.496	16.31
271.712	34.16
271.929	15.6
272.146	33.92
272.362	30.37
272.579	31.12
272.795	25.19
273.012	14.34
273.228	10.6
273.445	9.14
273.661	17.58
273.878	13.01
274.094	23.26
274.311	18.77
274.527	19.75
274.744	4.99
274.96	19.54
275.177	11.44
275.393	24.07
275.609	22.76
275.826	46.76
276.042	33.59
276.259	52.94
276.475	38.54
276.691	56.44
276.908	46.56
277.124	41.29
277.34	20.53
277.557	23.58
277.773	10.42
277.989	4.49
278.205	-11.8
278.422	-15.98
278.638	1.9
278.854	4.24
279.07	2.41
279.286	12.9
279.503	31.68
279.719	13.79
279.935	12.4
280.151	27.56
280.367	28.83
280.583	7.41
280.799	22.53
281.016	26.44
281.232	41.18
281.448	36.49
281.664	37.01
281.88	34.17
282.096	37.18
282.312	20.52
282.528	29.48
282.744	30.3
282.96	29.92
283.176	35.23
283.392	29.77
283.608	33.47
283.824	43.64
284.04	50.9
284.256	44.57
284.471	51.82
284.687	79.36
284.903	70.89
285.119	63.27
285.335	79.17
285.551	84.22
285.767	36.03
285.982	41.42
286.198	31.16
286.414	38.01
286.63	33.84
286.846	30.15
287.061	24.28
287.277	34.19
287.493	18.16
287.709	42.93
287.924	58.85
288.14	62.42
288.356	56.37
288.571	75.08
288.787	35.57
289.003	18.77
289.218	28.76
289.434	28.04
289.65	10.6
289.865	16.18
290.081	42.13
290.296	47.07
290.512	49.55
290.727	63.63
290.943	62.63
291.159	63.7
291.374	57.87
291.59	41.09
291.805	32.95
292.021	81.43
292.236	71.05
292.451	50.7
292.667	36.7
292.882	46.93
293.098	12.19
293.313	-15.87
293.529	16.23
293.744	30.74
293.959	8.77
294.175	7.58
294.39	0.72
294.605	-16.66
294.821	-28.02
295.036	-10.15
295.251	21.17
295.467	4.86
295.682	0.12
295.897	1.72
296.112	-13.8
296.328	-36.23
296.543	-16.76
296.758	5.84
296.973	2.4
297.188	4.24
297.404	4.58
297.619	0.71
297.834	-47.46
298.049	-35.57
298.264	1.14
298.479	-13.81
298.694	-3.85
298.909	5.57
299.125	26.89
299.34	39.05
299.555	39.15
299.77	36.64
299.985	39.56
300.2	7.75
300.415	-20.9
300.63	-15.9
300.845	11.92
301.06	24.48
301.275	23.36
301.49	25.51
301.704	38.94
301.919	25.35
302.134	4.76
302.349	5.74
302.564	11.68
302.779	12.94
302.994	33.48
303.209	42.4
303.423	46.22
303.638	43.85
303.853	36.89
304.068	35.51
304.283	28.72
304.497	25.46
304.712	27.23
304.927	33.62
305.142	28.02
305.356	23.51
305.571	22.94
305.786	21.34
306	22.06
306.215	21.9
306.43	19.98
306.644	10.43
306.859	20.06
307.074	24.52
307.288	25.48
307.503	32.6
307.717	50.39
307.932	44.51
308.147	29.55
308.361	27.89
308.576	18.91
308.79	21.05
309.005	18.17
309.219	23.52
309.434	17.43
309.648	14.23
309.863	-14.44
310.077	15.57
310.292	25.83
310.506	38.27
310.72	40.72
310.935	60.82
311.149	49.79
311.364	36.25
311.578	35.49
311.792	34.21
312.007	51.58
312.221	52.22
312.435	64.92
312.649	56.05
312.864	32.98
313.078	17.17
313.292	17.94
313.507	8.04
313.721	7.8
313.935	37.55
314.149	24.88
314.363	21.97
314.578	36.54
314.792	21.99
315.006	22.11
315.22	35.6
315.434	38.69
315.648	24.56
315.862	33.41
316.077	18.06
316.291	10.14
316.505	18.57
316.719	5.43
316.933	16.98
317.147	8.4
317.361	10.89
317.575	24.57
317.789	47.66
318.003	51.6
318.217	63.43
318.431	61.68
318.645	32.7
318.859	35.2
319.073	41.94
319.287	25.49
319.5	35.2
319.714	50.05
319.928	59.07
320.142	39.98
320.356	49.25
320.57	42.76
320.784	35.02
320.997	24.69
321.211	35.21
321.425	54.65
321.639	53.15
321.853	64.78
322.066	49.68
322.28	57.93
322.494	44.72
322.707	35.42
322.921	29.49
323.135	23.46
323.349	11.46
323.562	7.39
323.776	11.64
323.989	12.03
324.203	13.22
324.417	11.27
324.63	11.99
324.844	12.16
325.057	31.64
325.271	38.92
325.485	26.14
325.698	12.29
325.912	18.03
326.125	8.76
326.339	9.14
326.552	25.42
326.766	43.06
326.979	37.6
327.193	45.54
327.406	52.73
327.619	52.37
327.833	37.01
328.046	36.36
328.26	7.49
328.473	-7.97
328.686	-18.45
328.9	2.16
329.113	32.21
329.326	50.81
329.54	57.81
329.753	57.8
329.966	51.44
330.179	44.09
330.393	42.47
330.606	27.79
330.819	36.66
331.032	32.82
331.246	30.37
331.459	11.2
331.672	27.05
331.885	15.88
332.098	23.01
332.311	9.5
332.525	19.11
332.738	-2.9
332.951	22.7
333.164	23.02
333.377	8.91
333.59	16.32
333.803	32.37
334.016	32.91
334.229	37.07
334.442	44.98
334.655	38.54
334.868	47.02
335.081	42.73
335.294	43.27
335.507	47.87
335.72	42.16
335.933	12.07
336.146	9.94
336.359	12.45
336.572	18.97
336.785	44.84
336.997	58.64
337.21	58.98
337.423	50.92
337.636	35.33
337.849	24.35
338.062	28.83
338.274	38.35
338.487	49.95
338.7	63.05
338.913	55.28
339.125	54.38
339.338	41.77
339.551	34.46
339.763	35.5
339.976	43.88
340.189	32.46
340.402	34.7
340.614	30.8
340.827	27.85
341.039	24.59
341.252	31.51
341.465	24.2
341.677	33.03
341.89	19.45
342.102	35.65
342.315	21.75
342.527	22.51
342.74	30.51
342.952	45.54
343.165	34.81
343.377	39.99
343.59	36.67
343.802	44.35
344.015	40.73
344.227	33.6
344.44	42.72
344.652	55.51
344.864	23.34
345.077	25.07
345.289	36.69
345.502	17.93
345.714	0.51
345.926	11.23
346.139	-3.95
346.351	-22.88
346.563	-11.16
346.775	9.47
346.988	14.82
347.2	33.74
347.412	28.56
347.624	18.77
347.837	22.26
348.049	30.27
348.261	22.37
348.473	30.43
348.685	30.19
348.897	35.93
349.11	19.8
349.322	29.1
349.534	34.47
349.746	46.24
349.958	45.63
350.17	55.28
350.382	63
350.594	58.91
350.806	38.26
351.018	22.98
351.23	12.52
351.442	8.5
351.654	12.41
351.866	17.39
352.078	18.56
352.29	15.48
352.502	11.95
352.714	14.29
352.926	-2.12
353.138	8.14
353.35	4.41
353.561	-23.59
353.773	-19.11
353.985	-8.36
354.197	-31.87
354.409	-4.77
354.621	20.01
354.832	6.37
355.044	14.81
355.256	18.13
355.468	6.91
355.679	12.71
355.891	30.83
356.103	29.15
356.314	47.49
356.526	46.52
356.738	41.58
356.949	42.33
357.161	55.43
357.373	50.97
357.584	43.57
357.796	30.89
358.008	32.58
358.219	21.69
358.431	4.2
358.642	18.4
358.854	26.37
359.065	17.12
359.277	11.19
359.488	26.5
359.7	13.48
359.911	-1.24
360.123	15.3
360.334	17.14
360.546	1.46
360.757	8.99
360.969	14.95
361.18	12.33
361.391	25.3
361.603	31.92
361.814	30.45
362.025	34.32
362.237	26.89
362.448	14.92
362.659	16.64
362.871	14.29
363.082	11.04
363.293	20.34
363.504	26.02
363.716	11.92
363.927	-0.21
364.138	-5
364.349	-26.98
364.56	-33.22
364.772	-6.08
364.983	10.7
365.194	15.97
365.405	9.19
365.616	4.61
365.827	8.31
366.038	-2.25
366.25	-5.95
366.461	2.31
366.672	11.23
366.883	7.84
367.094	23.13
367.305	23.91
367.516	19.22
367.727	15.98
367.938	17.18
368.149	7.95
368.36	3.74
368.571	13.82
368.781	19.36
368.992	22.24
369.203	25.12
369.414	20.58
369.625	20.33
369.836	4.66
370.047	5.78
370.258	1.89
370.468	5.73
370.679	2.95
370.89	15.08
371.101	14.03
371.312	14.18
371.522	18.02
371.733	11.38
371.944	16.03
372.155	11.26
372.365	10.95
372.576	8.08
372.787	24.88
372.997	13.99
373.208	7.9
373.419	16.73
373.629	9.79
373.84	8.51
374.05	3.13
374.261	21.14
374.472	24.7
374.682	31.29
374.893	26.41
375.103	28.89
375.314	18.22
375.524	14.26
375.735	19.89
375.945	22.89
376.156	26.85
376.366	30.7
376.577	29.29
376.787	21.22
376.997	17.63
377.208	23.55
377.418	15.88
377.629	12.84
377.839	15.98
378.049	18.62
378.26	16.51
378.47	23.18
378.68	25.59
378.89	22.88
379.101	29.06
379.311	20.18
379.521	18.82
379.732	30.62
379.942	34.07
380.152	29.91
380.362	36.2
380.572	33.57
380.783	34.63
380.993	37.41
381.203	31.66
381.413	23.03
381.623	26.13
381.833	12.23
382.043	3.79
382.253	-9.21
382.463	-5.5
382.674	-8.67
382.884	-0.05
383.094	13.12
383.304	19.16
383.514	26.63
383.724	24.46
383.934	15.02
384.144	5.02
384.353	6.84
384.563	2.26
384.773	6.35
384.983	7.01
385.193	7.63
385.403	8.68
385.613	17.66
385.823	20.09
386.033	14.56
386.242	17.68
386.452	15.14
386.662	8.8
386.872	8.69
387.082	16.96
387.291	10.48
387.501	12.47
387.711	12.05
387.921	11.83
388.13	9.61
388.34	18.2
388.55	16.5
388.759	17.37
388.969	13.19
389.179	13.38
389.388	11.4
389.598	11.39
389.807	9.12
390.017	13.41
390.227	14.28
390.436	9.91
390.646	7.06
390.855	10.68
391.065	6.99
391.274	5.79
391.484	5.72
391.693	7.97
391.903	7.99
392.112	7.81
392.322	6.76
392.531	6.48
392.74	5.75
392.95	2.04
393.159	2.19
393.369	2.63
393.578	2.33
393.787	2.31
393.997	5.03
394.206	5.01
394.415	6.66
394.625	10.09
394.834	10.7
395.043	10.2
395.252	11.54
395.462	10.6
395.671	8.24
395.88	8.07
396.089	7.65
396.298	6.53
396.508	6.15
396.717	6.88
396.926	7.07
397.135	7.99
397.344	7.52
397.553	7.63
397.762	6.73
397.971	5.89
398.181	4.86
398.39	4.67
398.599	4.18
398.808	4.34
399.017	4.99
399.226	4.87
399.435	5.46
399.644	5.28
399.853	5.29
400.062	5.24
400.27	5.48
400.479	5.36
400.688	5.79
400.897	5.9
401.106	6.01
401.315	5.77
401.524	5.71
401.733	5.77
401.941	5.59
402.15	5.23
402.359	5.21
402.568	5.06
402.777	5.23
402.985	4.92
403.194	4.91
403.403	4.96
403.612	4.98
403.82	4.41
404.029	4.75
404.238	4.99
404.446	4.78
404.655	4.76
404.864	4.91
405.072	4.76
405.281	4.8
405.489	4.94
405.698	4.96
405.906	4.94
406.115	4.93
406.324	4.73
406.532	4.6
406.741	4.54
406.949	4.53
407.158	4.54
407.366	4.48
407.574	4.4
407.783	4.27
407.991	4.4
408.2	4.4
408.408	4.33
408.617	4.37
408.825	4.41
409.033	4.2
409.242	4.2
409.45	4.22
409.658	4.36
409.867	4.37
410.075	4.39
410.283	4.3
410.491	4.07
410.7	3.8
410.908	3.65
411.116	3.68
411.324	3.68
411.533	3.81
411.741	3.99
411.949	4.14
412.157	4.17
412.365	4.21
412.573	4.3
412.781	4.37
412.99	4.39
413.198	4.39
413.406	4.46
413.614	4.4
413.822	4.29
414.03	4.2
414.238	4.14
414.446	3.97
414.654	4.01
414.862	4.15
415.07	4.14
415.278	4.04
415.486	4.05
415.694	4.05
415.902	3.88
416.109	3.75
416.317	3.93
416.525	3.92
416.733	3.84
416.941	3.87
417.149	4.04
417.357	4.02
417.564	4.06
417.772	4.13
417.98	3.89
418.188	3.86
418.395	3.72
418.603	3.68
418.811	3.61
419.019	3.72
419.226	3.82
419.434	3.74
419.642	3.7
419.849	3.55
420.057	3.51
420.265	3.21
420.472	3.27
420.68	3.28
420.887	3.41
421.095	3.37
421.302	3.54
421.51	3.44
421.717	3.44
421.925	3.3
422.132	3.27
422.34	3.28
422.547	3.26
422.755	3.28
422.962	3.36
423.17	3.53
423.377	3.49
423.585	3.57
423.792	3.56
423.999	3.54
424.207	3.35
424.414	3.24
424.621	3.32
424.829	3.14
425.036	3.14
425.243	3.29
425.451	3.38
425.658	3.12
425.865	3.25
426.072	3.15
426.28	3.08
426.487	2.87
426.694	3.18
426.901	3.3
427.108	3.42
427.315	3.42
427.523	3.62
427.73	3.5
427.937	3.37
428.144	3.45
428.351	3.4
428.558	3.24
428.765	3.05
428.972	3.1
429.179	2.97
429.386	3.15
429.593	3.19
429.8	3.29
430.007	3.27
430.214	3.38
430.421	3.18
430.628	3.33
430.835	3.51
431.042	3.4
431.249	3.57
431.456	3.66
431.662	3.63
431.869	3.63
432.076	3.74
432.283	3.58
432.49	3.68
432.697	3.74
432.903	3.64
433.11	3.64
433.317	3.58
433.524	3.58
433.73	3.48
433.937	3.51
434.144	3.46
434.35	3.59
434.557	3.45
434.764	3.42
434.97	3.34
435.177	3.46
435.384	3.29
435.59	3.33
435.797	3.46
436.003	3.49
436.21	3.43
436.416	3.51
436.623	3.46
436.829	3.47
437.036	3.6
437.242	3.69
437.449	3.67
437.655	3.76
437.862	3.63
438.068	3.46
438.275	3.41
438.481	3.38
438.687	3.37
438.894	3.62
439.1	3.85
439.307	3.79
439.513	3.92
439.719	3.88
439.926	3.76
440.132	3.69
440.338	3.72
440.544	3.66
440.751	3.71
440.957	3.67
441.163	3.66
441.369	3.81
441.575	3.87
441.782	3.92
441.988	4.06
442.194	4.06
442.4	3.97
442.606	3.81
442.812	3.82
443.018	3.68
443.224	3.68
443.431	3.73
443.637	3.9
443.843	3.95
444.049	3.99
444.255	3.92
444.461	3.81
444.667	3.82
444.873	3.77
445.079	3.78
445.284	3.89
445.49	3.95
445.696	3.82
445.902	3.86
446.108	3.84
446.314	3.83
446.52	3.88
446.726	4.08
446.931	4.03
447.137	3.97
447.343	3.87
447.549	3.96
447.755	3.83
447.96	3.85
448.166	4.04
448.372	4.25
448.578	4.21
448.783	4.31
448.989	4.34
449.195	4.22
449.4	4.09
449.606	4.08
449.812	4.05
450.017	4.12
450.223	4.17
450.428	4.25
450.634	4.15
450.84	4.15
451.045	4.1
451.251	4.1
451.456	4.04
451.662	4.08
451.867	4.16
452.073	4.08
452.278	4.06
452.483	4.08
452.689	4.05
452.894	3.98
453.1	4.05
453.305	4.09
453.51	3.98
453.716	4.03
453.921	3.98
454.127	3.94
454.332	3.83
454.537	3.94
454.742	3.93
454.948	4.04
455.153	4.12
455.358	4.23
455.563	4.23
455.769	4.24
455.974	4.17
456.179	4.12
456.384	4.01
456.589	3.99
456.795	4
457	4
457.205	3.97
457.41	4.07
457.615	4.09
457.82	4.05
458.025	4.06
458.23	3.99
458.435	3.89
458.64	3.91
458.845	3.85
459.05	3.83
459.255	4.02
459.46	4.1
459.665	4.07
459.87	4.19
460.075	4.21
460.28	4.1
460.485	4.1
460.69	4.1
460.895	4.1
461.099	4.1
461.304	4.15
461.509	4.2
461.714	4.29
461.919	4.24
462.123	4.23
462.328	4.25
462.533	4.33
462.738	4.3
462.942	4.3
463.147	4.29
463.352	4.29
463.556	4.26
463.761	4.25
463.966	4.29
464.17	4.36
464.375	4.34
464.58	4.23
464.784	4.28
464.989	4.26
465.193	4.26
465.398	4.27
465.602	4.39
465.807	4.32
466.011	4.37
466.216	4.41
466.42	4.45
466.625	4.48
466.829	4.59
467.034	4.55
467.238	4.57
467.443	4.57
467.647	4.51
467.851	4.46
468.056	4.44
468.26	4.45
468.464	4.39
468.669	4.39
468.873	4.34
469.077	4.36
469.282	4.31
469.486	4.31
469.69	4.37
469.894	4.46
470.099	4.62
470.303	4.66
470.507	4.78
470.711	4.7
470.915	4.66
471.119	4.63
471.324	4.62
471.528	4.55
471.732	4.57
471.936	4.56
472.14	4.55
472.344	4.51
472.548	4.62
472.752	4.7
472.956	4.76
473.16	4.8
473.364	4.93
473.568	4.85
473.772	4.85
473.976	4.87
474.18	4.83
474.384	4.84
474.588	4.82
474.792	4.85
474.995	4.85
475.199	4.93
475.403	4.87
475.607	4.93
475.811	4.84
476.015	4.92
476.218	4.88
476.422	4.89
476.626	4.96
476.83	5.05
477.033	5.04
477.237	5.05
477.441	5.07
477.644	5.02
477.848	5.11
478.052	5.08
478.255	5.15
478.459	5.13
478.663	5.19
478.866	5.17
479.07	5.14
479.273	5.13
479.477	5.22
479.681	5.24
479.884	5.21
480.088	5.24
480.291	5.24
480.495	5.16
480.698	5.07
480.901	5.07
481.105	5.09
481.308	5.09
481.512	5.13
481.715	5.16
481.919	5.18
482.122	5.21
482.325	5.27
482.529	5.3
482.732	5.35
482.935	5.32
483.138	5.28
483.342	5.23
483.545	5.2
483.748	5.2
483.952	5.2
484.155	5.27
484.358	5.3
484.561	5.33
484.764	5.28
484.967	5.35
485.171	5.39
485.374	5.41
485.577	5.39
485.78	5.44
485.983	5.48
486.186	5.45
486.389	5.39
486.592	5.36
486.795	5.39
486.998	5.31
487.201	5.29
487.404	5.37
487.607	5.43
487.81	5.43
488.013	5.51
488.216	5.51
488.419	5.52
488.622	5.49
488.825	5.52
489.028	5.52
489.231	5.49
489.433	5.45
489.636	5.47
489.839	5.39
490.042	5.33
490.245	5.34
490.447	5.4
490.65	5.44
490.853	5.45
491.056	5.47
491.258	5.49
491.461	5.45
491.664	5.41
491.866	5.44
492.069	5.47
492.272	5.48
492.474	5.42
492.677	5.41
492.879	5.33
493.082	5.34
493.285	5.38
493.487	5.45
493.69	5.49
493.892	5.58
494.095	5.59
494.297	5.56
494.5	5.53
494.702	5.49
494.905	5.52
495.107	5.51
495.309	5.51
495.512	5.5
495.714	5.55
495.917	5.57
496.119	5.63
496.321	5.68
496.524	5.71
496.726	5.71
496.928	5.66
497.13	5.64
497.333	5.58
497.535	5.64
497.737	5.68
497.939	5.67
498.142	5.7
498.344	5.72
498.546	5.75
498.748	5.79
498.95	5.89
499.152	5.92
499.355	6.01
499.557	5.99
499.759	5.99
499.961	5.97
500.163	5.97
500.365	5.96
500.567	6.06
500.769	6.03
500.971	6.08
501.173	6.13
501.375	6.14
501.577	6.13
501.779	6.2
501.981	6.18
502.183	6.16
502.385	6.2
502.587	6.19
502.788	6.18
502.99	6.2
503.192	6.23
503.394	6.17
503.596	6.22
503.798	6.3
503.999	6.37
504.201	6.41
504.403	6.53
504.605	6.6
504.806	6.6
505.008	6.56
505.21	6.63
505.411	6.58
505.613	6.52
505.815	6.54
506.016	6.62
506.218	6.62
506.42	6.7
506.621	6.68
506.823	6.71
507.024	6.69
507.226	6.74
507.427	6.8
507.629	6.91
507.83	6.92
508.032	6.93
508.233	6.93
508.435	6.93
508.636	6.98
508.838	6.98
509.039	7.09
509.24	7.08
509.442	7.08
509.643	6.99
509.845	7.03
510.046	7
510.247	7.05
510.448	7.05
510.65	7.18
510.851	7.15
511.052	7.22
511.254	7.16
511.455	7.19
511.656	7.11
511.857	7.17
512.058	7.17
512.26	7.25
512.461	7.32
512.662	7.37
512.863	7.37
513.064	7.39
513.265	7.42
513.466	7.38
513.667	7.44
513.868	7.46
514.069	7.44
514.27	7.51
514.471	7.55
514.672	7.51
514.873	7.6
515.074	7.68
515.275	7.57
515.476	7.57
515.677	7.56
515.878	7.57
516.079	7.57
516.28	7.66
516.481	7.72
516.682	7.84
516.882	7.88
517.083	7.81
517.284	7.81
517.485	7.77
517.686	7.7
517.886	7.69
518.087	7.73
518.288	7.77
518.488	7.83
518.689	7.85
518.89	7.89
519.091	7.94
519.291	7.91
519.492	7.94
519.692	7.99
519.893	8.04
520.094	8.08
520.294	8.14
520.495	8.2
520.695	8.25
520.896	8.25
521.096	8.32
521.297	8.31
521.497	8.27
521.698	8.27
521.898	8.23
522.099	8.21
522.299	8.25
522.499	8.26
522.7	8.29
522.9	8.34
523.101	8.33
523.301	8.38
523.501	8.46
523.702	8.52
523.902	8.52
524.102	8.63
524.302	8.63
524.503	8.6
524.703	8.57
524.903	8.63
525.103	8.6
525.304	8.64
525.504	8.69
525.704	8.73
525.904	8.71
526.104	8.72
526.304	8.78
526.504	8.76
526.705	8.74
526.905	8.79
527.105	8.85
527.305	8.84
527.505	8.9
527.705	8.94
527.905	8.99
528.105	8.93
528.305	8.93
528.505	8.91
528.705	8.93
528.905	8.93
529.105	8.95
529.304	9.05
529.504	9.13
529.704	9.18
529.904	9.24
530.104	9.29
530.304	9.28
530.503	9.3
530.703	9.3
530.903	9.28
531.103	9.31
531.303	9.32
531.502	9.33
531.702	9.34
531.902	9.34
532.101	9.39
532.301	9.41
532.501	9.41
532.7	9.41
532.9	9.53
533.1	9.57
533.299	9.61
533.499	9.62
533.698	9.69
533.898	9.69
534.097	9.71
534.297	9.78
534.496	9.88
534.696	9.91
534.895	9.95
535.095	9.98
535.294	9.99
535.494	9.95
535.693	9.98
535.892	10.02
536.092	10.03
536.291	10.02
536.491	10.05
536.69	10.13
536.889	10.16
537.088	10.23
537.288	10.33
537.487	10.42
537.686	10.45
537.886	10.5
538.085	10.52
538.284	10.51
538.483	10.58
538.682	10.6
538.882	10.67
539.081	10.66
539.28	10.74
539.479	10.74
539.678	10.77
539.877	10.82
540.076	10.94
540.275	10.97
540.474	10.97
540.673	11.09
540.872	11.09
541.071	11.08
541.27	11.14
541.469	11.2
541.668	11.22
541.867	11.3
542.066	11.37
542.265	11.45
542.464	11.53
542.663	11.57
542.862	11.65
543.06	11.7
543.259	11.76
543.458	11.8
543.657	11.89
543.856	11.99
544.054	12.04
544.253	12.11
544.452	12.21
544.651	12.23
544.849	12.23
545.048	12.33
545.247	12.39
545.445	12.47
545.644	12.53
545.843	12.58
546.041	12.61
546.24	12.65
546.438	12.69
546.637	12.78
546.836	12.85
547.034	12.97
547.233	13.05
547.431	13.11
547.63	13.19
547.828	13.29
548.027	13.37
548.225	13.46
548.423	13.58
548.622	13.68
548.82	13.71
549.019	13.77
549.217	13.92
549.415	14.03
549.614	14.17
549.812	14.3
550.01	14.41
550.209	14.39
550.407	14.47
550.605	14.48
550.803	14.52
551.002	14.58
551.2	14.73
551.398	14.83
551.596	14.95
551.794	15.1
551.993	15.24
552.191	15.38
552.389	15.46
552.587	15.57
552.785	15.69
552.983	15.84
553.181	15.95
553.379	16.05
553.577	16.19
553.775	16.26
553.973	16.31
554.171	16.34
554.369	16.46
554.567	16.61
554.765	16.74
554.963	16.92
555.161	17.04
555.359	17.16
555.557	17.29
555.755	17.4
555.952	17.5
556.15	17.68
556.348	17.79
556.546	17.88
556.744	18.05
556.941	18.16
557.139	18.3
557.337	18.49
557.535	18.59
557.732	18.74
557.93	18.96
558.128	19.07
558.325	19.13
558.523	19.27
558.721	19.3
558.918	19.42
559.116	19.62
559.313	19.87
559.511	20.08
559.708	20.32
559.906	20.42
560.104	20.57
560.301	20.69
560.498	20.88
560.696	20.97
560.893	21.14
561.091	21.28
561.288	21.52
561.486	21.55
561.683	21.74
561.88	21.95
562.078	22.13
562.275	22.14
562.473	22.35
562.67	22.53
562.867	22.53
563.064	22.64
563.262	22.79
563.459	22.89
563.656	22.96
563.853	23.17
564.051	23.33
564.248	23.46
564.445	23.62
564.642	23.82
564.839	24
565.036	24.13
565.234	24.31
565.431	24.42
565.628	24.53
565.825	24.62
566.022	24.77
566.219	24.8
566.416	24.89
566.613	25.08
566.81	25.27
567.007	25.31
567.204	25.52
567.401	25.67
567.598	25.74
567.795	25.75
567.991	25.84
568.188	25.95
568.385	26
568.582	26.09
568.779	26.17
568.976	26.36
569.172	26.42
569.369	26.61
569.566	26.61
569.763	26.71
569.96	26.78
570.156	26.88
570.353	27
570.55	27.14
570.746	27.23
570.943	27.29
571.14	27.4
571.336	27.36
571.533	27.4
571.729	27.48
571.926	27.54
572.123	27.47
572.319	27.63
572.516	27.72
572.712	27.71
572.909	27.75
573.105	27.88
573.302	27.8
573.498	27.81
573.695	27.84
573.891	27.88
574.087	27.9
574.284	28.04
574.48	28.12
574.677	28.25
574.873	28.32
575.069	28.31
575.266	28.36
575.462	28.36
575.658	28.33
575.854	28.33
576.051	28.35
576.247	28.34
576.443	28.38
576.639	28.46
576.835	28.57
577.032	28.59
577.228	28.55
577.424	28.52
577.62	28.52
577.816	28.46
578.012	28.48
578.208	28.6
578.404	28.69
578.6	28.65
578.796	28.65
578.993	28.66
579.189	28.52
579.384	28.51
579.58	28.51
579.776	28.55
579.972	28.56
580.168	28.6
580.364	28.48
580.56	28.51
580.756	28.42
580.952	28.44
581.148	28.47
581.343	28.53
581.539	28.44
581.735	28.44
581.931	28.35
582.127	28.23
582.322	28.18
582.518	28.24
582.714	28.18
582.909	28.13
583.105	28.17
583.301	28.17
583.496	28.08
583.692	27.94
583.888	27.91
584.083	27.8
584.279	27.87
584.474	27.86
584.67	27.84
584.866	27.85
585.061	27.85
585.257	27.69
585.452	27.79
585.648	27.93
585.843	27.97
586.039	28.04
586.234	28.03
586.429	27.95
586.625	27.89
586.82	27.82
587.015	27.76
587.211	27.78
587.406	27.7
587.601	27.73
587.797	27.75
587.992	27.81
588.187	27.84
588.383	27.89
588.578	27.9
588.773	27.93
588.968	27.93
589.163	27.92
589.359	27.98
589.554	27.93
589.749	27.9
589.944	27.93
590.139	28.03
590.334	28.04
590.529	28.07
590.724	28.15
590.919	28.17
591.114	28.08
591.309	28.07
591.504	28.18
591.699	28.15
591.894	28.17
592.089	28.33
592.284	28.42
592.479	28.39
592.674	28.49
592.869	28.61
593.064	28.73
593.259	28.85
593.454	29
593.648	29.08
593.843	29.23
594.038	29.28
594.233	29.35
594.428	29.36
594.622	29.6
594.817	29.73
595.012	29.76
595.206	29.78
595.401	29.96
595.596	29.87
595.79	29.83
595.985	29.88
596.18	29.92
596.374	29.94
596.569	30.19
596.763	30.27
596.958	30.34
597.153	30.5
597.347	30.61
597.542	30.64
597.736	30.78
597.931	31
598.125	31.05
598.319	31.08
598.514	31.09
598.708	31.17
598.903	31.14
599.097	31.26
599.291	31.37
599.486	31.39
599.68	31.49
599.874	31.67
600.069	31.68
600.263	31.82
600.457	31.84
600.651	31.89
600.846	31.86
601.04	31.96
601.234	32.01
601.428	32.1
601.622	32.02
601.817	32.11
602.011	32.08
602.205	32.05
602.399	32.11
602.593	32.23
602.787	32.09
602.981	32.18
603.175	32.26
603.369	32.3
603.563	32.22
603.757	32.3
603.951	32.21
604.145	32.09
604.339	32.13
604.533	32.18
604.727	32.12
604.921	32.17
605.115	32.13
605.309	32
605.502	31.99
605.696	31.99
605.89	31.94
606.084	32.06
606.278	32.07
606.471	31.92
606.665	31.91
606.859	31.83
607.053	31.62
607.246	31.46
607.44	31.52
607.634	31.45
607.827	31.33
608.021	31.35
608.214	31.31
608.408	31.11
608.602	30.94
608.795	30.88
608.989	30.68
609.182	30.6
609.376	30.62
609.569	30.69
609.763	30.59
609.956	30.61
610.15	30.53
610.343	30.44
610.537	30.23
610.73	30.22
610.923	30.12
611.117	30.02
611.31	29.88
611.504	29.86
611.697	29.61
611.89	29.51
612.083	29.45
612.277	29.35
612.47	29.23
612.663	29.19
612.856	29.03
613.05	28.92
613.243	28.79
613.436	28.63
613.629	28.5
613.822	28.45
614.015	28.33
614.209	28.23
614.402	28.11
614.595	28.12
614.788	28.06
614.981	28.01
615.174	27.86
615.367	27.72
615.56	27.61
615.753	27.49
615.946	27.34
616.139	27.34
616.332	27.33
616.525	27.21
616.718	27.12
616.911	27
617.103	26.94
617.296	26.87
617.489	26.81
617.682	26.74
617.875	26.68
618.067	26.57
618.26	26.46
618.453	26.38
618.646	26.33
618.838	26.3
619.031	26.32
619.224	26.33
619.417	26.21
619.609	26.12
619.802	26.03
619.994	25.93
620.187	25.77
620.38	25.82
620.572	25.79
620.765	25.79
620.957	25.7
621.15	25.71
621.342	25.67
621.535	25.62
621.727	25.63
621.92	25.61
622.112	25.55
622.305	25.57
622.497	25.49
622.69	25.42
622.882	25.43
623.074	25.44
623.267	25.29
623.459	25.26
623.651	25.25
623.844	25.24
624.036	25.21
624.228	25.24
624.42	25.21
624.613	25.17
624.805	25.04
624.997	25.05
625.189	25.02
625.381	25.08
625.574	24.96
625.766	24.96
625.958	24.93
626.15	24.9
626.342	24.86
626.534	24.89
626.726	24.73
626.918	24.57
627.11	24.5
627.302	24.4
627.494	24.21
627.686	24.3
627.878	24.35
628.07	24.24
628.262	24.18
628.454	24.24
628.646	24.19
628.838	24.11
629.029	24.1
629.221	24.03
629.413	24.02
629.605	23.91
629.797	23.92
629.989	23.9
630.18	23.88
630.372	23.8
630.564	23.8
630.755	23.73
630.947	23.64
631.139	23.65
631.33	23.62
631.522	23.58
631.714	23.5
631.905	23.52
632.097	23.41
632.289	23.38
632.48	23.34
632.672	23.28
632.863	23.27
633.055	23.21
633.246	23.21
633.438	23.12
633.629	23.03
633.821	22.96
634.012	22.94
634.203	22.85
634.395	22.93
634.586	23.05
634.777	22.96
634.969	22.97
635.16	22.97
635.351	22.92
635.543	22.89
635.734	22.87
635.925	22.9
636.117	22.87
636.308	22.8
636.499	22.59
636.69	22.6
636.881	22.56
637.073	22.57
637.264	22.62
637.455	22.72
637.646	22.74
637.837	22.75
638.028	22.61
638.219	22.54
638.41	22.52
638.601	22.52
638.792	22.5
638.983	22.54
639.174	22.46
639.365	22.51
639.556	22.39
639.747	22.34
639.938	22.34
640.129	22.36
640.32	22.2
640.511	22.16
640.701	22.14
640.892	22.08
641.083	22.1
641.274	22.18
641.465	22.18
641.655	22.14
641.846	22.1
642.037	21.97
642.228	21.92
642.418	21.95
642.609	21.82
642.8	21.78
642.99	21.79
643.181	21.69
643.372	21.65
643.562	21.69
643.753	21.65
643.943	21.61
644.134	21.58
644.324	21.56
644.515	21.48
644.705	21.47
644.896	21.43
645.086	21.44
645.277	21.38
645.467	21.38
645.658	21.3
645.848	21.31
646.038	21.23
646.229	21.22
646.419	21.2
646.61	21.3
646.8	21.3
646.99	21.25
647.18	21.18
647.371	21.15
647.561	20.94
647.751	20.93
647.941	20.82
648.132	20.73
648.322	20.65
648.512	20.72
648.702	20.65
648.892	20.78
649.082	20.8
649.272	20.75
649.462	20.7
649.653	20.65
649.843	20.59
650.033	20.51
650.223	20.48
650.413	20.45
650.603	20.39
650.793	20.29
650.983	20.28
651.172	20.23
651.362	20.13
651.552	20.1
651.742	20.08
651.932	19.99
652.122	19.95
652.312	19.88
652.502	19.76
652.691	19.7
652.881	19.52
653.071	19.41
653.261	19.28
653.45	19.12
653.64	18.98
653.83	18.92
654.019	18.76
654.209	18.72
654.399	18.64
654.588	18.52
654.778	18.43
654.968	18.44
655.157	18.16
655.347	18.01
655.536	17.77
655.726	17.55
655.915	17.27
656.105	17.1
656.294	16.97
656.484	16.77
656.673	16.67
656.863	16.47
657.052	16.28
657.241	15.94
657.431	15.77
657.62	15.53
657.809	15.3
657.999	15.16
658.188	15
658.377	14.8
658.567	14.64
658.756	14.41
658.945	14.28
659.134	14.09
659.324	13.86
659.513	13.59
659.702	13.47
659.891	13.18
660.08	12.99
660.269	12.84
660.458	12.66
660.648	12.48
660.837	12.31
661.026	12.05
661.215	11.76
661.404	11.57
661.593	11.35
661.782	11.11
661.971	11.01
662.16	10.9
662.349	10.6
662.538	10.46
662.726	10.36
662.915	10.14
663.104	10.01
663.293	10.02
663.482	9.84
663.671	9.64
663.86	9.47
664.048	9.38
664.237	9.13
664.426	9.01
664.615	8.94
664.803	8.93
664.992	8.72
665.181	8.67
665.369	8.59
665.558	8.47
665.747	8.27
665.935	8.25
666.124	8.15
666.312	7.99
666.501	7.91
666.69	7.97
666.878	7.97
667.067	7.91
667.255	7.97
667.444	8.01
667.632	7.91
667.82	7.77
668.009	7.78
668.197	7.67
668.386	7.62
668.574	7.62
668.762	7.62
668.951	7.6
669.139	7.67
669.327	7.59
669.516	7.64
669.704	7.63
669.892	7.6
670.08	7.47
670.269	7.47
670.457	7.39
670.645	7.33
670.833	7.4
671.021	7.51
671.21	7.49
671.398	7.52
671.586	7.56
671.774	7.56
671.962	7.53
672.15	7.61
672.338	7.61
672.526	7.71
672.714	7.74
672.902	7.84
673.09	7.94
673.278	8.02
673.466	8.09
673.654	8.15
673.842	8.17
674.03	8.23
674.218	8.28
674.405	8.32
674.593	8.39
674.781	8.47
674.969	8.51
675.157	8.59
675.344	8.64
675.532	8.69
675.72	8.71
675.908	8.77
676.095	8.84
676.283	8.74
676.471	8.77
676.658	8.91
676.846	9.04
677.033	9.23
677.221	9.4
677.409	9.46
677.596	9.59
677.784	9.55
677.971	9.42
678.159	9.66
678.346	9.83
678.534	9.9
678.721	10.1
678.909	10.27
679.096	10.25
679.283	10.36
679.471	10.37
679.658	10.59
679.846	10.75
680.033	10.99
680.22	11.11
680.408	11.26
680.595	11.27
680.782	11.49
680.969	11.6
681.157	11.79
681.344	11.98
681.531	12.08
681.718	12.05
681.905	12.17
682.093	12.37
682.28	12.52
682.467	12.79
682.654	13.09
682.841	13.46
683.028	13.53
683.215	13.73
683.402	14.05
683.589	14.15
683.776	14.37
683.963	14.65
684.15	14.94
684.337	15.07
684.524	15.68
684.711	15.85
684.898	16.14
685.085	16.58
685.271	17.02
685.458	17.09
685.645	17.46
685.832	17.98
686.019	18.36
686.205	18.71
686.392	19.23
686.579	19.7
686.766	20.15
686.952	20.41
687.139	20.82
687.326	21.32
687.512	21.75
687.699	22.1
687.886	22.81
688.072	23.44
688.259	24.03
688.445	24.64
688.632	25.3
688.818	25.89
689.005	26.46
689.191	27.09
689.378	27.71
689.564	28.3
689.751	28.95
689.937	29.68
690.124	30.28
690.31	30.91
690.496	31.63
690.683	32.35
690.869	33.03
691.055	33.89
691.242	34.74
691.428	35.6
691.614	36.29
691.8	37.16
691.987	38.03
692.173	38.93
692.359	39.57
692.545	40.37
692.731	40.93
692.918	41.4
693.104	41.87
693.29	42.55
693.476	43.45
693.662	44.37
693.848	45.23
694.034	45.98
694.22	46.81
694.406	47.51
694.592	48.42
694.778	49.1
694.964	49.93
695.15	50.84
695.336	51.64
695.522	52.21
695.708	53.1
695.894	53.67
696.08	54.43
696.265	55.03
696.451	55.9
696.637	56.65
696.823	57.68
697.009	58.58
697.194	59.21
697.38	59.78
697.566	60.42
697.751	60.87
697.937	61.15
698.123	62.04
698.308	62.7
698.494	63.32
698.68	64
698.865	64.71
699.051	65.18
699.236	65.76
699.422	66.39
699.607	67.16
699.793	67.68
699.978	68.32
700.164	68.82
700.349	69.42
700.535	69.77
700.72	70.37
700.906	70.7
701.091	71.14
701.276	71.57
701.462	72.13
701.647	72.21
701.832	72.85
702.018	73.57
702.203	73.86
702.388	74.3
702.573	74.95
702.759	75.2
702.944	75.69
703.129	76.02
703.314	76.47
703.499	77.2
703.684	77.48
703.87	77.52
704.055	78.05
704.24	78.28
704.425	78.3
704.61	78.82
704.795	79.17
704.98	79.4
705.165	79.68
705.35	80.14
705.535	80.49
705.72	80.44
705.905	80.52
706.09	80.94
706.275	81.12
706.459	81.01
706.644	81.83
706.829	82.34
707.014	82.68
707.199	82.64
707.384	83.36
707.568	83.45
707.753	83.74
707.938	83.95
708.123	84.35
708.307	84.4
708.492	84.61
708.677	84.74
708.861	84.56
709.046	85.12
709.231	85.38
709.415	85.46
709.6	85.49
709.784	86.37
709.969	86.07
710.153	86.32
710.338	86.43
710.522	86.64
710.707	86.2
710.891	86.29
711.076	86.14
711.26	86.08
711.445	85.96
711.629	86.52
711.813	86.76
711.998	87.5
712.182	87.31
712.366	87.76
712.551	87.69
712.735	87.67
712.919	87.32
713.103	88.01
713.288	87.93
713.472	88.32
713.656	89.23
713.84	89.07
714.024	89.17
714.208	89.57
714.393	89
714.577	88.42
714.761	88.46
714.945	88.61
715.129	88.39
715.313	88.9
715.497	89.8
715.681	90.43
715.865	90.98
716.049	91.22
716.233	91.11
716.417	90.96
716.601	90.65
716.785	90.3
716.968	90.73
717.152	91.18
717.336	91.32
717.52	91.64
717.704	91.87
717.888	91.56
718.071	91.44
718.255	91.48
718.439	91.64
718.622	91.19
718.806	91.58
718.99	92.06
719.174	91.86
719.357	91.87
719.541	92.08
719.724	92.16
719.908	91.84
720.092	91.63
720.275	92.04
720.459	92.35
720.642	92.27
720.826	92.17
721.009	92.64
721.193	92.46
721.376	92.22
721.559	91.71
721.743	91.88
721.926	91.82
722.11	91.33
722.293	91.91
722.476	92.92
722.66	92.83
722.843	92.68
723.026	93.27
723.21	93.06
723.393	93.13
723.576	93.13
723.759	93.05
723.942	93.29
724.126	93.13
724.309	93.04
724.492	92.93
724.675	93.49
724.858	92.98
725.041	93.23
725.224	93.87
725.407	94.24
725.59	94.24
725.774	94.37
725.957	95.33
726.14	94.72
726.322	94.25
726.505	94.43
726.688	94.9
726.871	93.85
727.054	93.9
727.237	95.05
727.42	94.77
727.603	94.38
727.786	94.76
727.968	94.78
728.151	94.12
728.334	94.43
728.517	95.11
728.699	95.1
728.882	95.11
729.065	95.02
729.248	95.57
729.43	94.56
729.613	94.64
729.796	94.46
729.978	95.33
730.161	94.28
730.343	94.88
730.526	95.12
730.708	95.41
730.891	94.74
731.073	95.28
731.256	96.17
731.438	96.37
731.621	96.39
731.803	97.28
731.986	97.28
732.168	96.66
732.35	96.45
732.533	96.11
732.715	95.29
732.898	95.47
733.08	96.16
733.262	96.12
733.444	97.04
733.627	97.53
733.809	97.85
733.991	97.6
734.173	97.47
734.355	97.22
734.538	97.29
734.72	96.44
734.902	95.93
735.084	96.18
735.266	96.52
735.448	96.13
735.63	97.93
735.812	98.46
735.994	99.37
736.176	98.78
736.358	99.9
736.54	99.24
736.722	99.1
736.904	98.37
737.086	98.46
737.268	98.29
737.45	97.17
737.632	97.48
737.814	97.56
737.995	97.88
738.177	97.8
738.359	98.54
738.541	98.11
738.723	98.44
738.904	98.9
739.086	99.07
739.268	99.48
739.449	99.86
739.631	100.13
739.813	99.32
739.994	99.43
740.176	98.76
740.358	99.02
740.539	98.23
740.721	98.57
740.902	98.76
741.084	98.95
741.265	98.17
741.447	98.67
741.628	98.73
741.81	98.44
741.991	98.19
742.172	98.44
742.354	97.91
742.535	98.75
742.717	98.36
742.898	98.98
743.079	99.63
743.261	100.23
743.442	98.26
743.623	97.71
743.804	97.1
743.986	97.38
744.167	96.28
744.348	97.04
744.529	97.02
744.71	97.27
744.891	96.65
745.073	98.01
745.254	97.44
745.435	97.44
745.616	97.42
745.797	97.67
745.978	96.87
746.159	98.59
746.34	98.91
746.521	99.81
746.702	99.06
746.883	100.27
747.064	99.07
747.245	99.12
747.426	97.63
747.606	97.46
747.787	95.96
747.968	96.99
748.149	96.48
748.33	97.35
748.51	98.29
748.691	98.54
748.872	98.56
749.053	98.98
749.233	100.4
749.414	99.74
749.595	100.64
749.775	99.34
749.956	99.27
750.137	97.37
750.317	96.51
750.498	95.81
750.678	96.21
750.859	97.47
751.04	97.11
751.22	99.14
751.4	99
751.581	98.44
751.761	98.29
751.942	98.18
752.122	97.52
752.303	96.3
752.483	96.48
752.663	94.7
752.844	96.37
753.024	96.61
753.204	98.21
753.385	98.41
753.565	99.19
753.745	98.07
753.925	97.34
754.106	97.69
754.286	97.82
754.466	96.85
754.646	96.25
754.826	96.74
755.006	95.37
755.187	94.86
755.367	95.81
755.547	97.09
755.727	96.96
755.907	95.94
756.087	96.32
756.267	96.59
756.447	96.25
756.627	96.55
756.807	97.67
756.987	97.65
757.167	98.18
757.346	97.98
757.526	97.13
757.706	98.19
757.886	98.51
758.066	97.47
758.246	96.73
758.425	96.8
758.605	96.48
758.785	95.85
758.965	96.09
759.144	96
759.324	95.27
759.504	95.14
759.683	94.18
759.863	93.84
760.043	93.95
760.222	95.71
760.402	94.49
760.581	96.62
760.761	96.94
760.94	96.26
761.12	96.51
761.299	98.23
761.479	96.82
761.658	98.27
761.838	99.45
762.017	99.7
762.197	99.09
762.376	99.3
762.555	98.12
762.735	97.88
762.914	93.84
763.093	91.47
763.273	92.06
763.452	92.4
763.631	92.1
763.81	94.5
763.99	95.74
764.169	94.78
764.348	93.91
764.527	95.23
764.706	95.56
764.885	96.96
765.064	98.14
765.243	98.34
765.423	96.63
765.602	95.44
765.781	93.28
765.96	92.4
766.139	90.98
766.318	92.8
766.497	92.4
766.676	93.78
766.854	92.82
767.033	94.63
767.212	91.93
767.391	92.49
767.57	92.68
767.749	92.36
767.928	91.21
768.106	92.07
768.285	92.35
768.464	91.18
768.643	92.46
768.821	93.78
769	94.41
769.179	95.68
769.357	95.94
769.536	96.15
769.715	93.43
769.893	91.99
770.072	90.99
770.25	91.04
770.429	91.68
770.607	92.74
770.786	95.39
770.964	96.12
771.143	97.78
771.321	98.25
771.5	99.16
771.678	97.18
771.857	96.41
772.035	93.9
772.213	91.17
772.392	90.39
772.57	88.39
772.748	88.09
772.927	91.69
773.105	91.74
773.283	92.2
773.461	92.16
773.64	91.62
773.818	90.93
773.996	91.35
774.174	91.63
774.352	96.13
774.531	94.67
774.709	92.63
774.887	90.85
775.065	90.12
775.243	87.52
775.421	90.28
775.599	91.17
775.777	92.59
775.955	91.27
776.133	91.37
776.311	90.03
776.489	91.52
776.667	91.64
776.844	92.03
777.022	90.47
777.2	89.05
777.378	85.59
777.556	85.09
777.734	86.99
777.911	87.75
778.089	88.47
778.267	89.08
778.445	87.96
778.622	84.87
778.8	84.56
778.978	83.75
779.155	84.29
779.333	86.37
779.511	86.08
779.688	86.54
779.866	87.42
780.043	86.82
780.221	85.45
780.398	85.44
780.576	86.02
780.753	85.75
780.931	85.79
781.108	86.02
781.286	86.86
781.463	85.04
781.64	86.8
781.818	88.34
781.995	88.42
782.172	90.29
782.35	92.62
782.527	88.19
782.704	85.52
782.882	86.49
783.059	84.04
783.236	81.82
783.413	86.87
783.59	89.67
783.768	90.38
783.945	94.42
784.122	98.08
784.299	97.07
784.476	95.52
784.653	94.86
784.83	91.45
785.007	90.04
785.184	89.15
785.361	90
785.538	88.67
785.715	90.61
785.892	87.06
786.069	86.59
786.246	87.09
786.423	88.3
786.6	91.28
786.776	94.79
786.953	92.89
787.13	89.37
787.307	90.23
787.484	84.64
787.66	82.5
787.837	81.35
788.014	84.18
788.191	80.67
788.367	79.23
788.544	83.94
788.721	88.86
788.897	82.94
789.074	82.46
789.25	83.92
789.427	82.76
789.603	81.41
789.78	86.68
789.956	85.14
790.133	86.87
790.309	85.22
790.486	85.52
790.662	81.82
790.839	82.24
791.015	82.04
791.192	78.8
791.368	76.95
791.544	76.97
791.721	83.66
791.897	82.71
792.073	89.63
792.249	89.07
792.426	92.88
792.602	85.78
792.778	80.47
792.954	77.91
793.13	79.1
793.307	78.32
793.483	81.13
793.659	86.11
793.835	86.02
794.011	86.92
794.187	84.16
794.363	81.17
794.539	84.1
794.715	84.13
794.891	82.71
795.067	84.7
795.243	90.11
795.419	85.75
795.595	86.12
795.771	85.32
795.947	89.43
796.122	86.37
796.298	85.73
796.474	84.94
796.65	83.62
796.826	79.42
797.001	74.81
797.177	75.1
797.353	77.74
797.529	82.49
797.704	81.23
797.88	85.86
798.056	86.05
798.231	81.3
798.407	76.01
798.582	79.53
798.758	79.01
798.934	81.89
799.109	87.57
799.285	90.26
799.46	92.47
799.636	91.63
799.811	86.22
799.986	83.35
800.162	82.98
800.337	79.44
800.513	80.29
800.688	82.61
800.863	82.06
801.039	83.07
801.214	85.26
801.389	86.87
801.565	85.24
801.74	81.93
801.915	84.36
802.09	77.07
802.265	73.25
802.441	74.85
802.616	81.44
802.791	78.04
802.966	80.33
803.141	80.74
803.316	82.64
803.491	77.42
803.666	73.18
803.841	70.48
804.016	71.74
804.191	74.2
804.366	75.73
804.541	77.57
804.716	80.53
804.891	79.31
805.066	74.82
805.241	79.57
805.416	78.31
805.591	82.1
805.765	83.78
805.94	81.59
806.115	76.21
806.29	71.4
806.464	71.93
806.639	67.32
806.814	68.51
806.989	69.55
807.163	69.99
807.338	65.8
807.512	72.47
807.687	68.23
807.862	65.1
808.036	73.35
808.211	72.49
808.385	73.98
808.56	72.62
808.734	68.36
808.909	64.83
809.083	70.69
809.258	67.76
809.432	73.51
809.606	78.01
809.781	83.34
809.955	80.46
810.13	78.29
810.304	73.55
810.478	75.96
810.652	72.58
810.827	70.12
811.001	70.85
811.175	72.94
811.349	72.61
811.524	75.31
811.698	75.85
811.872	76.01
812.046	77.03
812.22	77.59
812.394	83.38
812.568	84.54
812.742	81.99
812.916	77.04
813.09	76.46
813.264	71.03
813.438	68.45
813.612	79.16
813.786	90.26
813.96	98.88
814.134	91.13
814.308	85.67
814.482	78.67
814.656	72.78
814.83	62.07
815.003	67.88
815.177	76.53
815.351	72.84
815.525	76.04
815.698	78.7
815.872	82.54
816.046	82.02
816.219	87.42
816.393	74.87
816.567	74.29
816.74	77.33
816.914	72.19
817.088	69.69
817.261	76.88
817.435	78.4
817.608	72.18
817.782	69.1
817.955	76.21
818.129	77.59
818.302	75.1
818.475	73.22
818.649	77.53
818.822	64.77
818.996	68.74
819.169	64.7
819.342	64.16
819.516	57.02
819.689	57.85
819.862	57.3
820.035	58.95
820.209	70.3
820.382	86.86
820.555	79.9
820.728	74.03
820.901	72.85
821.075	72.21
821.248	59.29
821.421	65.27
821.594	76.31
821.767	84.26
821.94	75.37
822.113	83.04
822.286	92.39
822.459	85.7
822.632	76.15
822.805	86.55
822.978	86.2
823.151	80.27
823.324	84.33
823.496	91.74
823.669	92.56
823.842	90.94
824.015	86.36
824.188	57.77
824.361	45.34
824.533	41.16
824.706	38.07
824.879	50.53
825.051	74.26
825.224	71.28
825.397	61.28
825.569	56
825.742	55.7
825.915	44.75
826.087	54.21
826.26	68.05
826.432	64.28
826.605	70.67
826.777	82.03
826.95	83.71
827.122	78.61
827.295	83.99
827.467	80.13
827.64	80.12
827.812	65.28
827.984	69.91
828.157	72.39
828.329	70.11
828.501	62.28
828.674	82.26
828.846	73.03
829.018	75.16
829.19	63.76
829.363	67.91
829.535	58.09
829.707	60.96
829.879	64.19
830.051	73.99
830.223	66.08
830.395	72.06
830.568	71.84
830.74	60.43
830.912	59.09
831.084	47.43
831.256	42.83
831.428	48.44
831.6	65.86
831.772	62.09
831.943	74.64
832.115	65.22
832.287	51.08
832.459	31.68
832.631	42.33
832.803	47.34
832.975	44.31
833.146	56.86
833.318	66.37
833.49	57.57
833.662	66.26
833.833	74.77
834.005	70.83
834.177	74.4
834.348	79.69
834.52	86.98
834.692	98.16
834.863	104.31
835.035	94.76
835.206	106.61
835.378	113.18
835.549	120.99
835.721	123.95
835.892	133.2
836.064	109.13
836.235	67.56
836.407	88.26
836.578	76.98
836.749	56.77
836.921	55.98
837.092	59.48
837.264	44.07
837.435	54.98
837.606	72.74
837.777	74.36
837.949	68.64
838.12	72.83
838.291	80.76
838.462	95.5
838.633	97.2
838.805	104.53
838.976	94.94
839.147	69.95
839.318	53.73
839.489	58.05
839.66	61.32
839.831	42.39
840.002	53.92
840.173	55.4
840.344	46.32
840.515	49.94
840.686	76.11
840.857	62.89
841.028	80.23
841.199	73.12
841.369	74.14
841.54	71.85
841.711	88.02
841.882	76.08
842.053	78.88
842.223	59.54
842.394	61.46
842.565	62.82
842.736	71.95
842.906	74.26
843.077	95.17
843.248	118.83
843.418	99.52
843.589	63.35
843.759	28.31
843.93	-38.62
844.101	2.03
844.271	-4.3
844.442	26.31
844.612	74.27
844.783	204.22
844.953	362.91
845.123	-27775
845.294	88.95
845.464	82.29
845.635	105.86
845.805	88.13
845.975	112.03
846.146	114
846.316	83.57
846.486	59.57
846.656	57.78
846.827	54.32
846.997	46.64
847.167	50.05
847.337	69.71
847.507	58.26
847.677	55.2
847.848	70.71
848.018	115.4
848.188	78.73
848.358	127.5
848.528	172.03
848.698	160.06
848.868	141.77
849.038	206.42
849.208	275.88
849.378	183.57
849.548	200.62
849.718	186.12
849.887	195.02
850.057	136.89
850.227	124.94
850.397	96.49
850.567	86.97
850.737	81.77
850.906	79.08
851.076	61.92
851.246	66.83
851.415	61.1
851.585	66.99
851.755	55.25
851.924	76.34
852.094	95.65
852.264	79.07
852.433	26.77
852.603	50.81
852.772	58.37
852.942	47.05
853.111	82.19
853.281	113.08
853.45	97.54
853.62	73.47
853.789	49.7
853.959	31.66
854.128	45.22
854.297	52.92
854.467	54.64
854.636	58
854.805	83.56
854.975	38.21
855.144	38.8
855.313	41.61
855.482	80.16
855.652	63.28
855.821	47.37
855.99	61.59
856.159	68.36
856.328	30.09
856.497	53.84
856.667	91.57
856.836	62.93
857.005	82.19
857.174	82.29
857.343	62.18
857.512	67.69
857.681	75.49
857.85	-182.99
858.019	1.32
858.188	67.39
858.356	56.91
858.525	35.63
858.694	62.91
858.863	58.68
859.032	59.66
859.201	59.98
859.369	172.61
859.538	108.69
859.707	115.36
859.876	50.72
860.044	53.47
860.213	34.84
860.382	72.11
860.55	72.69
860.719	88.59
860.888	65.67
861.056	51.03
861.225	29.85
861.393	51.06
861.562	49.45
861.73	53.78
861.899	47.01
862.067	46.02
862.236	15.75
862.404	27.08
862.572	6.15
862.741	37.2
862.909	110.87
863.078	85.03
863.246	54.78
863.414	28.97
863.582	67.23
863.751	-0.39
863.919	9.36
864.087	266.29
864.255	-462.67
864.424	164.26
864.592	157.55
864.76	112.97
864.928	38.87
865.096	68.26
865.264	74.29
865.432	31.05
865.6	29.72
865.768	55.24
865.936	41.44
866.104	38.34
866.272	52.62
866.44	37.41
866.608	41.86
866.776	52.6
866.944	19.06
867.112	32.45
867.28	41.54
867.448	86.85
867.615	37.67
867.783	66.12
867.951	53.96
868.119	63.82
868.286	40.54
868.454	61.81
868.622	66.85
868.789	53.48
868.957	61.08
869.125	53.62
869.292	48.43
869.46	28.76
869.627	-5.41
869.795	-323.9
869.963	96.88
870.13	169.26
870.298	139.84
870.465	146.01
870.632	89.82
870.8	72.32
870.967	70.69
871.135	12.84
871.302	47.83
871.469	51.43
871.637	63.42
871.804	73.12
871.971	85.63
872.139	59.22
872.306	79.63
872.473	99.08
872.64	80.71
872.807	59.81
872.975	102.18
873.142	81.53
873.309	42.33
873.476	43.5
873.643	105.12
873.81	84.3
873.977	62.77
874.144	53.79
874.311	26.13
874.478	27.69
874.645	64.39
874.812	68.22
874.979	35.05
875.146	57.93
875.313	72.24
875.48	36.06
875.647	1.61
875.813	46.56
875.98	69.05
876.147	2.3
876.314	37.48
876.481	88.17
876.647	89.43
876.814	99.41
876.981	330.76
877.147	22137.5
877.314	-38.25
877.481	-130.68
877.647	796.59
877.814	-28.2
877.98	-32.4
878.147	16.27
878.314	85.72
878.48	94.98
878.647	91.41
878.813	112.3
878.979	99.98
879.146	79.53
879.312	59.51
879.479	69.53
879.645	45.58
879.811	7.42
879.978	-60.16
880.144	16.04
880.31	21.12
880.477	21.71
880.643	28.95
880.809	65.91
880.975	106.51
881.142	362.57
881.308	5661.36
881.474	-457.26
881.64	-14.97
881.806	17.76
881.972	44.04
882.138	-72.26
882.304	1.37
882.47	46.56
882.636	1.13
882.802	49.81
882.968	95.42
883.134	-25.25
883.3	56.85
883.466	66.41
883.632	50.83
883.798	47.57
883.964	87.83
884.129	-113.32
884.295	50.18
884.461	86.54
884.627	31.98
884.793	27.44
884.958	58.9
885.124	-2.25
885.29	-27.55
885.455	-30.54
885.621	33.36
885.787	92.72
885.952	475.6
886.118	125.64
886.283	141.99
886.449	80.39
886.614	12.36
886.78	4.2
886.945	13.05
887.111	-12.87
887.276	14.13
887.442	49.93
887.607	66.41
887.773	72.54
887.938	99.97
888.103	173.24
888.269	125.5
888.434	103.54
888.599	104.37
888.764	69.61
888.93	89.07
889.095	119.8
889.26	176.13
889.425	119.57
889.59	93.78
889.756	82.97
889.921	55.93
890.086	38.76
890.251	41.35
890.416	55.85
890.581	63.62
890.746	61.23
890.911	87.4
891.076	55.27
891.241	66.92
891.406	72.56
891.571	129.36
891.736	94.34
891.901	114.8
892.065	133.8
892.23	153.1
892.395	96.59
892.56	93.62
892.725	75.6
892.889	86.98
893.054	76.92
893.219	115.15
893.384	217.58
893.548	-526.27
893.713	-603.23
893.878	-141.95
