Data from Ofav_PP_Phys_367_Reflection_2.txt Node
Date: Tue Jul 27 19:08:11 EDT 2021
User: USUARIO
Spectrometer: FLMT01687
Trigger mode: 0
Integration Time (sec): 8.500000E-1
Scans to average: 2
Electric dark correction enabled: true
Nonlinearity correction enabled: false
Boxcar width: 2
XAxis mode: Wavelengths
Number of Pixels in Spectrum: 3648
>>>>>Begin Spectral Data<<<<<
179.494	-1791.11
179.716	-629.03
179.937	-431.24
180.158	-360.54
180.38	-417.89
180.601	-305.34
180.823	60.93
181.044	63.78
181.265	25.54
181.486	-68.31
181.708	-20.29
181.929	115.94
182.15	96.15
182.372	-15.54
182.593	7.25
182.814	38.86
183.035	56.67
183.257	47.98
183.478	40.99
183.699	34.82
183.92	39.35
184.141	-3.15
184.363	13.78
184.584	29.95
184.805	36.59
185.026	33.16
185.247	60.82
185.468	33.2
185.689	17.89
185.91	11.82
186.132	-8.07
186.353	2.33
186.574	0.9
186.795	-11.25
187.016	-26.26
187.237	-7.49
187.458	-3.92
187.679	5.46
187.9	-10.41
188.121	15.08
188.342	19.26
188.563	16.93
188.784	51.58
189.005	88.47
189.226	75.24
189.447	57.96
189.667	61.94
189.888	73.28
190.109	82.98
190.33	131.74
190.551	118.19
190.772	89.61
190.993	63.7
191.214	58.67
191.434	39.06
191.655	45.06
191.876	44.74
192.097	40.97
192.318	40.72
192.538	41.55
192.759	40.6
192.98	33.66
193.201	32.11
193.421	31.03
193.642	28.87
193.863	25.6
194.083	33.07
194.304	17.29
194.525	-12.28
194.745	-54.57
194.966	-92.66
195.187	-98.06
195.407	-23.23
195.628	41.36
195.848	77.25
196.069	77.09
196.29	115.53
196.51	53.87
196.731	48.24
196.951	54.71
197.172	58.7
197.392	46.53
197.613	69.77
197.833	40.09
198.054	16.75
198.274	3.71
198.495	10.53
198.715	-2.51
198.936	4.84
199.156	42.89
199.377	90.16
199.597	98.93
199.817	83.72
200.038	149.71
200.258	121.55
200.479	64.54
200.699	43.28
200.919	2.87
201.14	3.24
201.36	-29.77
201.58	-27.52
201.801	-42.1
202.021	16.14
202.241	23.09
202.461	29.84
202.682	15.49
202.902	29.22
203.122	0.16
203.342	10.79
203.563	15.75
203.783	52.87
204.003	45.68
204.223	56.15
204.443	47.71
204.663	68.85
204.884	1.06
205.104	15.65
205.324	23.49
205.544	24.12
205.764	22.72
205.984	29.21
206.204	32.68
206.424	-9.13
206.644	20.31
206.864	31.81
207.084	34.55
207.304	19.66
207.525	30.1
207.745	25.68
207.964	24.29
208.184	34.8
208.404	43.99
208.624	39.2
208.844	45.32
209.064	62.2
209.284	58.87
209.504	49.09
209.724	52.73
209.944	63.28
210.164	16.01
210.384	16.04
210.604	71.26
210.823	47.4
211.043	17.49
211.263	17
211.483	12.6
211.703	11.88
211.922	8.71
212.142	81.64
212.362	70.89
212.582	91.21
212.801	86.33
213.021	85.53
213.241	26.36
213.461	12.14
213.68	11.68
213.9	-13.29
214.12	12.73
214.339	40.31
214.559	54.79
214.779	49.25
214.998	34.41
215.218	17.05
215.438	15.1
215.657	22.41
215.877	1.7
216.096	17.82
216.316	32.34
216.535	27.22
216.755	22.27
216.974	43.52
217.194	54.85
217.413	49.01
217.633	53.17
217.852	39.8
218.072	51.07
218.291	28.52
218.511	30.02
218.73	28.22
218.95	21.71
219.169	26.48
219.389	28.16
219.608	29.36
219.827	53.38
220.047	98.96
220.266	66.54
220.485	63.99
220.705	69.39
220.924	62.09
221.143	41.73
221.363	29.09
221.582	29.33
221.801	14.29
222.021	26.31
222.24	44.17
222.459	41.21
222.678	35.19
222.897	38.07
223.117	37.45
223.336	6.34
223.555	13.26
223.774	14.2
223.993	13.6
224.213	4.38
224.432	26.06
224.651	44.05
224.87	40.2
225.089	29.86
225.308	20.32
225.527	21.54
225.746	5.37
225.965	28.83
226.184	34.06
226.404	29.19
226.623	19.53
226.842	22.93
227.061	11.42
227.28	21.04
227.499	45.27
227.718	35.51
227.936	27.12
228.155	33.1
228.374	38.17
228.593	21.98
228.812	32.41
229.031	40.21
229.25	25.44
229.469	-2.34
229.688	-13.07
229.907	-35.62
230.125	-27.85
230.344	-9.39
230.563	28.12
230.782	36.43
231.001	42.22
231.22	49.98
231.438	49.61
231.657	28.78
231.876	32.26
232.095	36.52
232.313	46.77
232.532	36.02
232.751	36.03
232.969	21.08
233.188	23.45
233.407	2.65
233.625	17.19
233.844	14.06
234.063	29.65
234.281	37.43
234.5	39.56
234.719	50.38
234.937	38.58
235.156	27.73
235.374	16.94
235.593	26.94
235.811	27.4
236.03	32.74
236.249	49.14
236.467	63.61
236.686	54.27
236.904	53.52
237.123	60.43
237.341	44.52
237.559	39.16
237.778	36.71
237.996	26.18
238.215	29.84
238.433	42.06
238.652	25.57
238.87	22.5
239.088	9.5
239.307	20.19
239.525	-19.05
239.743	-15.22
239.962	-14.47
240.18	0.55
240.398	2.97
240.617	39.59
240.835	66.12
241.053	70.91
241.271	80.8
241.49	66.38
241.708	63.55
241.926	39.19
242.144	26.49
242.363	32.21
242.581	45.38
242.799	21.29
243.017	12.7
243.235	24.16
243.453	4.7
243.672	2.24
243.89	12.44
244.108	21.15
244.326	43.57
244.544	32.76
244.762	31.89
244.98	40.27
245.198	46.88
245.416	25.58
245.634	33.91
245.852	52.38
246.07	56.09
246.288	52.84
246.506	43.9
246.724	58.17
246.942	38.43
247.16	30.93
247.378	32.06
247.596	43.47
247.814	32.48
248.032	26.62
248.25	35.48
248.468	31.14
248.685	28.02
248.903	35.53
249.121	50.98
249.339	47.28
249.557	50.89
249.775	40.47
249.992	26.02
250.21	16.5
250.428	3.67
250.646	-4.24
250.863	2.37
251.081	10.69
251.299	36.35
251.517	38.2
251.734	41.36
251.952	28.42
252.17	42.09
252.387	7.24
252.605	23.2
252.823	14.08
253.04	31.98
253.258	36
253.475	37.68
253.693	39.92
253.911	57.78
254.128	48.29
254.346	40.22
254.563	41.3
254.781	27.08
254.998	23.32
255.216	-6.74
255.433	6.21
255.651	21.14
255.868	7.42
256.086	9.62
256.303	23.85
256.521	37.56
256.738	39.16
256.956	56.49
257.173	47.9
257.39	48.94
257.608	39.42
257.825	49.98
258.043	51.07
258.26	56.12
258.477	58.66
258.695	44.96
258.912	20.54
259.129	22.16
259.346	12.03
259.564	22.03
259.781	41.64
259.998	46.4
260.216	47.21
260.433	40.93
260.65	42.93
260.867	36.51
261.084	42.75
261.302	21.1
261.519	39.5
261.736	27.16
261.953	33.65
262.17	28.42
262.387	32.5
262.604	30.66
262.822	40.9
263.039	44.21
263.256	47.11
263.473	74.61
263.69	77.57
263.907	61.02
264.124	63.37
264.341	59.52
264.558	44.35
264.775	36.37
264.992	56.49
265.209	43.55
265.426	50.18
265.643	53.77
265.86	49.31
266.077	34.47
266.294	47.65
266.51	40.9
266.727	29.62
266.944	39.83
267.161	-15.93
267.378	-28.9
267.595	-19
267.812	-18.21
268.028	-17.55
268.245	50.29
268.462	58.28
268.679	45.06
268.896	53.51
269.112	27.75
269.329	38.68
269.546	34.74
269.763	27.55
269.979	27.21
270.196	61.98
270.413	54.51
270.629	65.4
270.846	81.69
271.063	56.49
271.279	48.92
271.496	53.45
271.712	17.9
271.929	-4.68
272.146	16.65
272.362	24.15
272.579	24.07
272.795	43.69
273.012	39.31
273.228	32.27
273.445	34.05
273.661	25.89
273.878	19.5
274.094	24.39
274.311	36.54
274.527	17.97
274.744	23.03
274.96	23.88
275.177	10.34
275.393	-4.28
275.609	11.38
275.826	4.46
276.042	6.82
276.259	17.33
276.475	30.8
276.691	9.78
276.908	13.8
277.124	17.8
277.34	31.39
277.557	11.33
277.773	31.58
277.989	45.04
278.205	47.14
278.422	40.4
278.638	41.31
278.854	42.29
279.07	36.76
279.286	22.94
279.503	27.24
279.719	39.26
279.935	44.61
280.151	41.62
280.367	51.73
280.583	56.2
280.799	60.96
281.016	52.88
281.232	61.02
281.448	51.62
281.664	45.63
281.88	42.8
282.096	57.76
282.312	30.75
282.528	24.51
282.744	26.25
282.96	16.82
283.176	10.55
283.392	36.87
283.608	46.01
283.824	32.86
284.04	21.11
284.256	20.01
284.471	16.59
284.687	22
284.903	24.09
285.119	30.87
285.335	31.11
285.551	14.88
285.767	22.54
285.982	19.9
286.198	28.76
286.414	22.7
286.63	39.47
286.846	16.13
287.061	14.25
287.277	7.39
287.493	19.63
287.709	3.86
287.924	24.57
288.14	38.99
288.356	65.14
288.571	65.34
288.787	62.91
289.003	60.3
289.218	55.6
289.434	34.68
289.65	26.29
289.865	27.65
290.081	32.24
290.296	24.01
290.512	22.73
290.727	24.69
290.943	55.17
291.159	77.63
291.374	73.73
291.59	55.19
291.805	47.79
292.021	33.04
292.236	31.74
292.451	37.5
292.667	48.34
292.882	40.44
293.098	29.3
293.313	28.57
293.529	31.98
293.744	28.3
293.959	42.21
294.175	50.2
294.39	38.12
294.605	45.59
294.821	44.36
295.036	35.75
295.251	36.68
295.467	38.82
295.682	12.29
295.897	22.75
296.112	38.35
296.328	37.31
296.543	43.72
296.758	38.16
296.973	34.06
297.188	25.08
297.404	11.59
297.619	14.32
297.834	26.75
298.049	19.76
298.264	33.15
298.479	47.83
298.694	34.99
298.909	18.08
299.125	21.7
299.34	7.6
299.555	16.28
299.77	24.05
299.985	33.95
300.2	42.64
300.415	54.42
300.63	50.35
300.845	61.63
301.06	72.76
301.275	68.09
301.49	56.95
301.704	35.06
301.919	41.79
302.134	45.56
302.349	47.72
302.564	43.82
302.779	41.99
302.994	26.77
303.209	27.31
303.423	13.38
303.638	-5.61
303.853	6.06
304.068	27.47
304.283	15.85
304.497	24.85
304.712	44.37
304.927	32.92
305.142	28.5
305.356	29.6
305.571	40.36
305.786	35.02
306	48.65
306.215	40.06
306.43	35.22
306.644	34.1
306.859	30.84
307.074	45.25
307.288	47.33
307.503	64.82
307.717	58.12
307.932	54.24
308.147	63.77
308.361	62.66
308.576	47.07
308.79	52.94
309.005	48.6
309.219	17.39
309.434	-0.89
309.648	-3.76
309.863	-16.13
310.077	8.03
310.292	23.56
310.506	21.09
310.72	39.51
310.935	41.91
311.149	15.32
311.364	-23.77
311.578	1.8
311.792	-5.5
312.007	5.42
312.221	13.54
312.435	21.03
312.649	37.82
312.864	36
313.078	37.21
313.292	77.03
313.507	69.47
313.721	66.53
313.935	52.38
314.149	60.71
314.363	53.34
314.578	57.88
314.792	44.94
315.006	61.11
315.22	52.66
315.434	40.64
315.648	27.76
315.862	22.56
316.077	1.78
316.291	9.26
316.505	21.97
316.719	33.95
316.933	40.96
317.147	38.76
317.361	19.35
317.575	4.85
317.789	7.8
318.003	10.25
318.217	37.16
318.431	47.75
318.645	58.15
318.859	64.03
319.073	45.89
319.287	26.99
319.5	24.18
319.714	13.31
319.928	17.29
320.142	24.01
320.356	41.51
320.57	42.33
320.784	47.85
320.997	51.67
321.211	62.7
321.425	46.16
321.639	32.55
321.853	34.22
322.066	27.08
322.28	-0.33
322.494	-0.19
322.707	13.05
322.921	13.7
323.135	7.74
323.349	18.04
323.562	15.79
323.776	11.75
323.989	-3.98
324.203	-15.67
324.417	-16.86
324.63	13.43
324.844	22.22
325.057	17.31
325.271	21.74
325.485	16.37
325.698	16.85
325.912	7.74
326.125	33.34
326.339	43.15
326.552	53.4
326.766	53.39
326.979	51.01
327.193	32.96
327.406	27.95
327.619	20.29
327.833	11.48
328.046	28.85
328.26	29.6
328.473	32.24
328.686	43.57
328.9	47.05
329.113	35
329.326	48.91
329.54	47.26
329.753	19.27
329.966	16.57
330.179	-1.64
330.393	-1.31
330.606	-1.08
330.819	20.42
331.032	17.82
331.246	35.89
331.459	33.3
331.672	35.56
331.885	30.08
332.098	40.1
332.311	44.82
332.525	54.65
332.738	35.36
332.951	35
333.164	32.44
333.377	5.6
333.59	13.02
333.803	28.72
334.016	20.23
334.229	10.36
334.442	37.01
334.655	40.77
334.868	39.87
335.081	38.9
335.294	48.89
335.507	36.87
335.72	57.28
335.933	54.25
336.146	62.96
336.359	64.47
336.572	72.27
336.785	38.86
336.997	48.11
337.21	51.15
337.423	40.53
337.636	22.86
337.849	13.6
338.062	19.71
338.274	32.07
338.487	42.92
338.7	38.58
338.913	44.3
339.125	40.12
339.338	26.04
339.551	5.55
339.763	6.46
339.976	26.42
340.189	27.04
340.402	8.83
340.614	5.56
340.827	19.8
341.039	6.45
341.252	-6.89
341.465	-9.91
341.677	5.2
341.89	-12.41
342.102	1.59
342.315	14.25
342.527	31.17
342.74	37.79
342.952	17.29
343.165	30.05
343.377	32.63
343.59	29.76
343.802	23.49
344.015	54.56
344.227	55.25
344.44	37.96
344.652	26.74
344.864	33.65
345.077	24.27
345.289	10.91
345.502	21.79
345.714	31.75
345.926	19.83
346.139	12.67
346.351	17.16
346.563	8.87
346.775	9.24
346.988	12.27
347.2	23.72
347.412	36.26
347.624	51.29
347.837	44.8
348.049	31.15
348.261	14.74
348.473	15.19
348.685	7.74
348.897	6.51
349.11	13.65
349.322	17.34
349.534	7.44
349.746	15.68
349.958	20.91
350.17	41.68
350.382	39.95
350.594	41.83
350.806	52.47
351.018	55.92
351.23	30.91
351.442	31.99
351.654	60.86
351.866	34.89
352.078	33.8
352.29	29.4
352.502	30.48
352.714	23.26
352.926	46.19
353.138	46.6
353.35	55.39
353.561	54.3
353.773	46.31
353.985	29.8
354.197	18.71
354.409	25.76
354.621	28.94
354.832	39.65
355.044	36.65
355.256	51.05
355.468	55.6
355.679	53.53
355.891	52.26
356.103	53.51
356.314	47.46
356.526	39.17
356.738	32.38
356.949	20.32
357.161	28.73
357.373	20.01
357.584	23.18
357.796	36.68
358.008	44.02
358.219	39.57
358.431	45.33
358.642	36.84
358.854	39.79
359.065	32.56
359.277	41.09
359.488	45.39
359.7	46.33
359.911	34.34
360.123	40.2
360.334	26.28
360.546	12.24
360.757	24.39
360.969	20.36
361.18	29.51
361.391	38.92
361.603	41.03
361.814	46.61
362.025	68.55
362.237	62.31
362.448	59.64
362.659	53.53
362.871	47.06
363.082	28.63
363.293	26.06
363.504	19.91
363.716	33.78
363.927	4.24
364.138	18.94
364.349	21.96
364.56	22.73
364.772	8.5
364.983	36.47
365.194	21.97
365.405	26.69
365.616	26.34
365.827	43.08
366.038	40.27
366.25	53.58
366.461	57.9
366.672	48.67
366.883	32.34
367.094	35.62
367.305	17.91
367.516	14.74
367.727	39.46
367.938	52.07
368.149	42.46
368.36	52.74
368.571	31.88
368.781	25.42
368.992	9.59
369.203	-1.24
369.414	-2.41
369.625	-5.88
369.836	-13.53
370.047	-10.25
370.258	12.69
370.468	14.66
370.679	25.68
370.89	27.96
371.101	27.05
371.312	20.12
371.522	25.02
371.733	30.89
371.944	29.17
372.155	32.97
372.365	23.93
372.576	18.49
372.787	17.44
372.997	32.51
373.208	27.83
373.419	32.73
373.629	34.89
373.84	32.96
374.05	25.56
374.261	21.98
374.472	34.49
374.682	40.04
374.893	42.63
375.103	40.58
375.314	49.32
375.524	47.06
375.735	41.44
375.945	33.12
376.156	28.62
376.366	31.76
376.577	27.98
376.787	26.1
376.997	19.87
377.208	31.45
377.418	28.32
377.629	24.81
377.839	30
378.049	39.3
378.26	33.02
378.47	38.31
378.68	50.26
378.89	41.6
379.101	29.38
379.311	25.34
379.521	22.62
379.732	14.4
379.942	24.31
380.152	32.98
380.362	30.59
380.572	22.4
380.783	15.57
380.993	5.99
381.203	9.08
381.413	4.74
381.623	10.11
381.833	20.28
382.043	27.5
382.253	29.98
382.463	32.69
382.674	38.11
382.884	27.75
383.094	14.44
383.304	22.1
383.514	23.95
383.724	8.11
383.934	7.69
384.144	10.83
384.353	4.6
384.563	7.54
384.773	16.04
384.983	15.04
385.193	17.83
385.403	19.2
385.613	20.65
385.823	17.53
386.033	18.44
386.242	23.59
386.452	19.32
386.662	21.08
386.872	25.19
387.082	25.44
387.291	16.43
387.501	17.74
387.711	13.03
387.921	13.97
388.13	13.11
388.34	14.76
388.55	13.92
388.759	14.12
388.969	12.36
389.179	14.7
389.388	18.59
389.598	21.01
389.807	20.53
390.017	20.95
390.227	21.87
390.436	17.95
390.646	16.33
390.855	14.3
391.065	11.63
391.274	9.07
391.484	10.26
391.693	11.43
391.903	14.02
392.112	14.33
392.322	14.99
392.531	14.34
392.74	13.91
392.95	13.72
393.159	14.7
393.369	14.99
393.578	16.62
393.787	16.35
393.997	16.43
394.206	16.79
394.415	17.02
394.625	15.06
394.834	14.66
395.043	14.69
395.252	14.67
395.462	14.51
395.671	14.98
395.88	15.89
396.089	16.07
396.298	15.68
396.508	15.77
396.717	16.4
396.926	14.93
397.135	13.86
397.344	13.87
397.553	13.96
397.762	12.89
397.971	13.26
398.181	13.58
398.39	13.48
398.599	13.46
398.808	14.04
399.017	14.3
399.226	14.23
399.435	14.43
399.644	14.45
399.853	14.7
400.062	14.7
400.27	14.48
400.479	13.76
400.688	13.54
400.897	13.23
401.106	13.23
401.315	13.83
401.524	14.34
401.733	14.34
401.941	14.01
402.15	13.9
402.359	13.45
402.568	13.34
402.777	13.02
402.985	13.2
403.194	13.24
403.403	13.32
403.612	13.21
403.82	13.23
404.029	13.25
404.238	13.23
404.446	13.25
404.655	13.41
404.864	13.58
405.072	13.5
405.281	13.29
405.489	13.15
405.698	13.01
405.906	12.92
406.115	12.68
406.324	12.65
406.532	12.55
406.741	12.55
406.949	12.48
407.158	12.53
407.366	12.52
407.574	12.67
407.783	12.48
407.991	12.39
408.2	12.35
408.408	12.32
408.617	12.12
408.825	12.13
409.033	12.09
409.242	11.99
409.45	12
409.658	12.01
409.867	11.93
410.075	11.91
410.283	12.06
410.491	11.92
410.7	11.89
410.908	12.05
411.116	12.04
411.324	11.93
411.533	11.92
411.741	11.87
411.949	11.59
412.157	11.65
412.365	11.82
412.573	11.83
412.781	11.78
412.99	11.95
413.198	12.03
413.406	11.82
413.614	11.98
413.822	11.97
414.03	11.91
414.238	11.67
414.446	11.66
414.654	11.52
414.862	11.48
415.07	11.38
415.278	11.41
415.486	11.34
415.694	11.25
415.902	11.23
416.109	11.25
416.317	11.23
416.525	11.15
416.733	11.04
416.941	11.11
417.149	11
417.357	10.96
417.564	10.91
417.772	10.89
417.98	10.82
418.188	10.9
418.395	10.79
418.603	10.86
418.811	10.87
419.019	10.76
419.226	10.73
419.434	10.88
419.642	11.04
419.849	11.11
420.057	11.24
420.265	11.15
420.472	10.96
420.68	10.68
420.887	10.65
421.095	10.52
421.302	10.49
421.51	10.58
421.717	10.7
421.925	10.56
422.132	10.52
422.34	10.61
422.547	10.33
422.755	10.41
422.962	10.49
423.17	10.36
423.377	10.31
423.585	10.74
423.792	10.56
423.999	10.37
424.207	10.36
424.414	10.13
424.621	10.01
424.829	9.91
425.036	10.03
425.243	10.25
425.451	10.26
425.658	10.03
425.865	10.25
426.072	10.22
426.28	10.07
426.487	10.35
426.694	10.38
426.901	10.34
427.108	10.46
427.315	10.46
427.523	10.24
427.73	10.18
427.937	10.13
428.144	10.16
428.351	10.06
428.558	10.24
428.765	10.32
428.972	10.44
429.179	10.27
429.386	10.43
429.593	10.26
429.8	10.33
430.007	10.3
430.214	10.32
430.421	10.31
430.628	10.42
430.835	10.41
431.042	10.31
431.249	10.29
431.456	10.26
431.662	10.26
431.869	10.28
432.076	10.25
432.283	10.42
432.49	10.46
432.697	10.45
432.903	10.41
433.11	10.53
433.317	10.44
433.524	10.33
433.73	10.32
433.937	10.26
434.144	10.22
434.35	10.32
434.557	10.4
434.764	10.32
434.97	10.23
435.177	10.35
435.384	10.25
435.59	10.27
435.797	10.38
436.003	10.48
436.21	10.3
436.416	10.26
436.623	10.18
436.829	10.13
437.036	10.11
437.242	10.05
437.449	10.09
437.655	10.09
437.862	10.27
438.068	10.23
438.275	10.58
438.481	10.58
438.687	10.64
438.894	10.53
439.1	10.55
439.307	10.25
439.513	10.29
439.719	10.31
439.926	10.17
440.132	10.25
440.338	10.4
440.544	10.32
440.751	10.16
440.957	10.3
441.163	10.27
441.369	10.23
441.575	10.16
441.782	10.37
441.988	10.24
442.194	10.23
442.4	10.25
442.606	10.37
442.812	10.28
443.018	10.33
443.224	10.22
443.431	10.06
443.637	10.12
443.843	10.09
444.049	10.05
444.255	10.05
444.461	10.05
444.667	9.83
444.873	9.79
445.079	9.88
445.284	10.02
445.49	10.19
445.696	10.29
445.902	10.24
446.108	10.17
446.314	10.11
446.52	10.02
446.726	10.03
446.931	10.05
447.137	10.04
447.343	9.97
447.549	9.92
447.755	9.88
447.96	9.88
448.166	9.86
448.372	9.85
448.578	9.76
448.783	9.75
448.989	9.77
449.195	9.66
449.4	9.64
449.606	9.68
449.812	9.56
450.017	9.54
450.223	9.62
450.428	9.52
450.634	9.49
450.84	9.53
451.045	9.44
451.251	9.47
451.456	9.54
451.662	9.39
451.867	9.38
452.073	9.41
452.278	9.31
452.483	9.31
452.689	9.45
452.894	9.43
453.1	9.36
453.305	9.32
453.51	9.25
453.716	9.13
453.921	9.1
454.127	9.12
454.332	9.02
454.537	9.09
454.742	8.96
454.948	8.88
455.153	8.91
455.358	8.92
455.563	8.82
455.769	8.85
455.974	8.76
456.179	8.58
456.384	8.37
456.589	8.39
456.795	8.32
457	8.45
457.205	8.41
457.41	8.54
457.615	8.43
457.82	8.41
458.025	8.25
458.23	8.29
458.435	8.23
458.64	8.04
458.845	8.09
459.05	8.14
459.255	8.14
459.46	8.22
459.665	8.26
459.87	8.32
460.075	8.27
460.28	8.2
460.485	8.07
460.69	8.03
460.895	8.03
461.099	8
461.304	7.88
461.509	7.88
461.714	7.96
461.919	7.89
462.123	7.86
462.328	7.94
462.533	7.9
462.738	7.87
462.942	7.74
463.147	7.79
463.352	7.81
463.556	7.87
463.761	7.88
463.966	7.88
464.17	7.98
464.375	7.99
464.58	7.93
464.784	7.98
464.989	8.11
465.193	7.94
465.398	7.96
465.602	8
465.807	7.84
466.011	7.79
466.216	7.75
466.42	7.8
466.625	7.69
466.829	7.74
467.034	7.86
467.238	7.91
467.443	7.81
467.647	7.88
467.851	7.83
468.056	7.7
468.26	7.77
468.464	7.76
468.669	7.8
468.873	7.85
469.077	7.78
469.282	7.66
469.486	7.68
469.69	7.67
469.894	7.8
470.099	7.82
470.303	7.88
470.507	7.88
470.711	7.94
470.915	7.86
471.119	7.9
471.324	7.91
471.528	7.83
471.732	7.8
471.936	7.83
472.14	7.87
472.344	7.92
472.548	7.94
472.752	7.9
472.956	7.81
473.16	7.86
473.364	7.79
473.568	7.89
473.772	7.82
473.976	7.86
474.18	7.77
474.384	7.73
474.588	7.7
474.792	7.75
474.995	7.73
475.199	7.73
475.403	7.76
475.607	7.74
475.811	7.79
476.015	7.87
476.218	7.82
476.422	7.81
476.626	7.8
476.83	7.79
477.033	7.82
477.237	7.87
477.441	7.94
477.644	7.9
477.848	7.88
478.052	7.74
478.255	7.81
478.459	7.79
478.663	7.79
478.866	7.78
479.07	7.83
479.273	7.79
479.477	7.72
479.681	7.83
479.884	7.77
480.088	7.74
480.291	7.85
480.495	7.87
480.698	7.84
480.901	7.93
481.105	7.99
481.308	7.82
481.512	7.87
481.715	7.76
481.919	7.76
482.122	7.73
482.325	7.83
482.529	7.83
482.732	7.92
482.935	7.88
483.138	7.9
483.342	7.79
483.545	7.81
483.748	7.85
483.952	7.9
484.155	7.95
484.358	8.14
484.561	8.16
484.764	8.09
484.967	8.18
485.171	8.23
485.374	8.13
485.577	8.19
485.78	8.36
485.983	8.34
486.186	8.34
486.389	8.52
486.592	8.62
486.795	8.68
486.998	8.83
487.201	9
487.404	9.11
487.607	9.21
487.81	9.3
488.013	9.37
488.216	9.48
488.419	9.53
488.622	9.55
488.825	9.66
489.028	9.87
489.231	10.01
489.433	10.15
489.636	10.37
489.839	10.6
490.042	10.65
490.245	10.77
490.447	10.97
490.65	11.11
490.853	11.23
491.056	11.53
491.258	11.71
491.461	11.97
491.664	12.23
491.866	12.54
492.069	12.73
492.272	13.05
492.474	13.32
492.677	13.65
492.879	13.87
493.082	14.21
493.285	14.65
493.487	15
493.69	15.26
493.892	15.66
494.095	16.08
494.297	16.27
494.5	16.7
494.702	17.1
494.905	17.52
495.107	17.83
495.309	18.2
495.512	18.43
495.714	18.93
495.917	19.27
496.119	19.68
496.321	20.09
496.524	20.55
496.726	20.88
496.928	21.33
497.13	21.79
497.333	22.24
497.535	22.67
497.737	23.08
497.939	23.55
498.142	23.93
498.344	24.25
498.546	24.58
498.748	24.95
498.95	25.14
499.152	25.56
499.355	25.96
499.557	26.42
499.759	26.81
499.961	27.31
500.163	27.66
500.365	28.01
500.567	28.28
500.769	28.52
500.971	28.82
501.173	29
501.375	29.3
501.577	29.61
501.779	29.83
501.981	29.89
502.183	30.1
502.385	30.16
502.587	30.18
502.788	30.27
502.99	30.45
503.192	30.54
503.394	30.68
503.596	30.77
503.798	30.94
503.999	31.08
504.201	31.08
504.403	31.25
504.605	31.42
504.806	31.39
505.008	31.34
505.21	31.2
505.411	31.01
505.613	30.8
505.815	30.69
506.016	30.53
506.218	30.48
506.42	30.26
506.621	30.22
506.823	30.14
507.024	30.04
507.226	29.96
507.427	29.88
507.629	29.6
507.83	29.4
508.032	29.16
508.233	29
508.435	28.94
508.636	28.84
508.838	28.55
509.039	28.41
509.24	28.13
509.442	27.91
509.643	27.62
509.845	27.47
510.046	27.29
510.247	27.21
510.448	27.06
510.65	26.98
510.851	26.84
511.052	26.75
511.254	26.62
511.455	26.4
511.656	26.23
511.857	26
512.058	25.76
512.26	25.61
512.461	25.49
512.662	25.26
512.863	25.12
513.064	24.93
513.265	24.7
513.466	24.52
513.667	24.47
513.868	24.35
514.069	24.25
514.27	24
514.471	23.82
514.672	23.67
514.873	23.51
515.074	23.39
515.275	23.37
515.476	23.23
515.677	23.09
515.878	22.95
516.079	22.86
516.28	22.76
516.481	22.68
516.682	22.67
516.882	22.68
517.083	22.53
517.284	22.48
517.485	22.34
517.686	22.17
517.886	22.05
518.087	21.98
518.288	21.86
518.488	21.8
518.689	21.66
518.89	21.55
519.091	21.51
519.291	21.44
519.492	21.31
519.692	21.24
519.893	21.3
520.094	21.16
520.294	21.1
520.495	21.13
520.695	21.09
520.896	20.97
521.096	20.96
521.297	20.87
521.497	20.77
521.698	20.69
521.898	20.58
522.099	20.51
522.299	20.34
522.499	20.28
522.7	20.22
522.9	20.24
523.101	20.13
523.301	20.13
523.501	20.12
523.702	20.11
523.902	20.01
524.102	20.09
524.302	20.07
524.503	20.01
524.703	19.97
524.903	19.97
525.103	19.94
525.304	19.92
525.504	19.91
525.704	19.83
525.904	19.81
526.104	19.74
526.304	19.68
526.504	19.6
526.705	19.54
526.905	19.51
527.105	19.53
527.305	19.5
527.505	19.51
527.705	19.58
527.905	19.49
528.105	19.41
528.305	19.41
528.505	19.34
528.705	19.3
528.905	19.28
529.105	19.33
529.304	19.32
529.504	19.44
529.704	19.44
529.904	19.47
530.104	19.47
530.304	19.42
530.503	19.37
530.703	19.32
530.903	19.35
531.103	19.37
531.303	19.5
531.502	19.51
531.702	19.56
531.902	19.55
532.101	19.54
532.301	19.52
532.501	19.52
532.7	19.54
532.9	19.51
533.1	19.5
533.299	19.53
533.499	19.57
533.698	19.57
533.898	19.66
534.097	19.69
534.297	19.68
534.496	19.65
534.696	19.67
534.895	19.6
535.095	19.59
535.294	19.54
535.494	19.54
535.693	19.64
535.892	19.66
536.092	19.7
536.291	19.74
536.491	19.82
536.69	19.79
536.889	19.81
537.088	19.78
537.288	19.83
537.487	19.84
537.686	19.85
537.886	19.91
538.085	19.95
538.284	19.88
538.483	19.87
538.682	19.89
538.882	19.89
539.081	19.91
539.28	19.99
539.479	19.94
539.678	19.94
539.877	19.93
540.076	19.89
540.275	19.86
540.474	19.85
540.673	19.83
540.872	19.81
541.071	19.82
541.27	19.87
541.469	19.84
541.668	19.81
541.867	19.83
542.066	19.86
542.265	20.03
542.464	20.01
542.663	20.11
542.862	20.12
543.06	20.11
543.259	19.94
543.458	19.96
543.657	19.86
543.856	19.91
544.054	19.93
544.253	19.87
544.452	20.02
544.651	20
544.849	19.95
545.048	19.97
545.247	20.09
545.445	20.03
545.644	20.14
545.843	20.2
546.041	20.21
546.24	20.17
546.438	20.24
546.637	20.23
546.836	20.2
547.034	20.19
547.233	20.25
547.431	20.22
547.63	20.26
547.828	20.35
548.027	20.43
548.225	20.43
548.423	20.5
548.622	20.51
548.82	20.45
549.019	20.47
549.217	20.4
549.415	20.36
549.614	20.44
549.812	20.55
550.01	20.6
550.209	20.8
550.407	20.85
550.605	20.86
550.803	20.9
551.002	20.9
551.2	20.89
551.398	21
551.596	21
551.794	21.05
551.993	21.1
552.191	21.19
552.389	21.26
552.587	21.33
552.785	21.39
552.983	21.4
553.181	21.48
553.379	21.52
553.577	21.62
553.775	21.67
553.973	21.84
554.171	21.8
554.369	21.84
554.567	21.85
554.765	21.88
554.963	21.86
555.161	21.94
555.359	21.97
555.557	22.07
555.755	22.12
555.952	22.12
556.15	22.13
556.348	22.23
556.546	22.23
556.744	22.36
556.941	22.48
557.139	22.58
557.337	22.66
557.535	22.68
557.732	22.66
557.93	22.71
558.128	22.73
558.325	22.68
558.523	22.73
558.721	22.86
558.918	22.94
559.116	23.07
559.313	23.18
559.511	23.36
559.708	23.34
559.906	23.48
560.104	23.51
560.301	23.61
560.498	23.67
560.696	23.74
560.893	23.68
561.091	23.79
561.288	23.96
561.486	23.94
561.683	24.09
561.88	24.23
562.078	24.3
562.275	24.26
562.473	24.35
562.67	24.38
562.867	24.51
563.064	24.61
563.262	24.73
563.459	24.84
563.656	24.93
563.853	24.97
564.051	24.95
564.248	24.97
564.445	25.17
564.642	25.23
564.839	25.28
565.036	25.51
565.234	25.65
565.431	25.67
565.628	25.81
565.825	25.84
566.022	26
566.219	26.11
566.416	26.09
566.613	26.16
566.81	26.29
567.007	26.2
567.204	26.16
567.401	26.31
567.598	26.38
567.795	26.46
567.991	26.57
568.188	26.78
568.385	26.82
568.582	26.88
568.779	26.99
568.976	27.09
569.172	27.18
569.369	27.2
569.566	27.29
569.763	27.3
569.96	27.4
570.156	27.36
570.353	27.55
570.55	27.6
570.746	27.62
570.943	27.67
571.14	27.76
571.336	27.74
571.533	27.71
571.729	27.84
571.926	27.92
572.123	28.02
572.319	28.14
572.516	28.24
572.712	28.23
572.909	28.2
573.105	28.24
573.302	28.3
573.498	28.32
573.695	28.29
573.891	28.3
574.087	28.27
574.284	28.3
574.48	28.41
574.677	28.54
574.873	28.58
575.069	28.72
575.266	28.7
575.462	28.75
575.658	28.8
575.854	28.89
576.051	28.7
576.247	28.78
576.443	28.85
576.639	29
576.835	28.94
577.032	29.03
577.228	29.02
577.424	29
577.62	28.97
577.816	29.04
578.012	29.14
578.208	29.16
578.404	29.09
578.6	29.07
578.796	29.03
578.993	29.11
579.189	29.08
579.384	29.08
579.58	29.04
579.776	29.09
579.972	29
580.168	29.02
580.364	29.09
580.56	29.1
580.756	29.02
580.952	29
581.148	29.03
581.343	28.97
581.539	28.97
581.735	29.09
581.931	29.03
582.127	28.95
582.322	28.92
582.518	28.79
582.714	28.75
582.909	28.71
583.105	28.71
583.301	28.69
583.496	28.76
583.692	28.66
583.888	28.75
584.083	28.73
584.279	28.77
584.474	28.77
584.67	28.81
584.866	28.69
585.061	28.7
585.257	28.59
585.452	28.64
585.648	28.54
585.843	28.61
586.039	28.61
586.234	28.66
586.429	28.61
586.625	28.65
586.82	28.62
587.015	28.48
587.211	28.46
587.406	28.45
587.601	28.5
587.797	28.5
587.992	28.56
588.187	28.52
588.383	28.57
588.578	28.48
588.773	28.44
588.968	28.56
589.163	28.62
589.359	28.52
589.554	28.49
589.749	28.52
589.944	28.34
590.139	28.48
590.334	28.55
590.529	28.73
590.724	28.85
590.919	29.01
591.114	28.83
591.309	28.74
591.504	28.69
591.699	28.65
591.894	28.56
592.089	28.62
592.284	28.75
592.479	28.68
592.674	28.63
592.869	28.71
593.064	28.92
593.259	28.96
593.454	29.06
593.648	29.03
593.843	29.12
594.038	29.01
594.233	29.04
594.428	29.16
594.622	29.38
594.817	29.43
595.012	29.53
595.206	29.55
595.401	29.74
595.596	29.82
595.79	29.78
595.985	29.81
596.18	29.96
596.374	29.89
596.569	29.89
596.763	30.12
596.958	30.23
597.153	30.24
597.347	30.29
597.542	30.45
597.736	30.51
597.931	30.58
598.125	30.8
598.319	30.73
598.514	30.76
598.708	30.74
598.903	30.87
599.097	30.84
599.291	31
599.486	30.99
599.68	31.09
599.874	31.12
600.069	31.17
600.263	31.15
600.457	31.13
600.651	31.14
600.846	31.14
601.04	31.08
601.234	31.14
601.428	31.26
601.622	31.28
601.817	31.15
602.011	31.12
602.205	31.28
602.399	31.35
602.593	31.41
602.787	31.54
602.981	31.58
603.175	31.55
603.369	31.51
603.563	31.46
603.757	31.42
603.951	31.45
604.145	31.28
604.339	31.25
604.533	31.2
604.727	31.19
604.921	31.18
605.115	31.26
605.309	31.15
605.502	31.18
605.696	31.18
605.89	31.13
606.084	31.05
606.278	31.01
606.471	30.94
606.665	30.87
606.859	30.85
607.053	30.82
607.246	30.8
607.44	30.68
607.634	30.59
607.827	30.38
608.021	30.32
608.214	30.25
608.408	30.28
608.602	30.17
608.795	30.17
608.989	30.12
609.182	30.12
609.376	30.09
609.569	30.1
609.763	30.01
609.956	29.89
610.15	29.76
610.343	29.55
610.537	29.5
610.73	29.37
610.923	29.38
611.117	29.22
611.31	29.16
611.504	29.05
611.697	29.04
611.89	28.92
612.083	28.83
612.277	28.74
612.47	28.61
612.663	28.58
612.856	28.41
613.05	28.36
613.243	28.26
613.436	28.1
613.629	28.03
613.822	28.03
614.015	27.97
614.209	27.85
614.402	27.85
614.595	27.75
614.788	27.56
614.981	27.56
615.174	27.5
615.367	27.44
615.56	27.24
615.753	27.24
615.946	27.16
616.139	27.17
616.332	27.14
616.525	27.15
616.718	27.12
616.911	27
617.103	26.95
617.296	26.82
617.489	26.71
617.682	26.64
617.875	26.6
618.067	26.47
618.26	26.42
618.453	26.48
618.646	26.44
618.838	26.39
619.031	26.4
619.224	26.42
619.417	26.4
619.609	26.3
619.802	26.25
619.994	26.19
620.187	26.06
620.38	26
620.572	25.97
620.765	25.96
620.957	25.94
621.15	25.94
621.342	25.87
621.535	25.9
621.727	25.83
621.92	25.7
622.112	25.65
622.305	25.62
622.497	25.45
622.69	25.31
622.882	25.37
623.074	25.36
623.267	25.38
623.459	25.47
623.651	25.52
623.844	25.48
624.036	25.47
624.228	25.41
624.42	25.38
624.613	25.47
624.805	25.4
624.997	25.43
625.189	25.4
625.381	25.33
625.574	25.1
625.766	25.13
625.958	25.11
626.15	25.05
626.342	24.95
626.534	25.03
626.726	25
626.918	24.86
627.11	24.87
627.302	24.87
627.494	24.8
627.686	24.79
627.878	24.78
628.07	24.67
628.262	24.7
628.454	24.58
628.646	24.44
628.838	24.45
629.029	24.48
629.221	24.44
629.413	24.5
629.605	24.49
629.797	24.41
629.989	24.27
630.18	24.2
630.372	24.23
630.564	24.19
630.755	24.24
630.947	24.29
631.139	24.27
631.33	24.24
631.522	24.2
631.714	24.05
631.905	24.01
632.097	23.97
632.289	23.85
632.48	23.79
632.672	23.77
632.863	23.7
633.055	23.66
633.246	23.76
633.438	23.79
633.629	23.83
633.821	23.86
634.012	23.9
634.203	23.83
634.395	23.85
634.586	23.89
634.777	23.84
634.969	23.84
635.16	23.79
635.351	23.71
635.543	23.68
635.734	23.73
635.925	23.67
636.117	23.63
636.308	23.67
636.499	23.6
636.69	23.5
636.881	23.46
637.073	23.51
637.264	23.55
637.455	23.44
637.646	23.51
637.837	23.56
638.028	23.44
638.219	23.47
638.41	23.6
638.601	23.58
638.792	23.54
638.983	23.63
639.174	23.51
639.365	23.56
639.556	23.56
639.747	23.54
639.938	23.58
640.129	23.62
640.32	23.53
640.511	23.38
640.701	23.4
640.892	23.41
641.083	23.33
641.274	23.29
641.465	23.33
641.655	23.31
641.846	23.29
642.037	23.26
642.228	23.3
642.418	23.31
642.609	23.19
642.8	23.05
642.99	23.07
643.181	22.91
643.372	22.95
643.562	22.95
643.753	23.05
643.943	23.1
644.134	23.08
644.324	23.01
644.515	23.01
644.705	23
644.896	22.87
645.086	22.93
645.277	22.94
645.467	22.95
645.658	22.85
645.848	22.84
646.038	22.81
646.229	22.74
646.419	22.79
646.61	22.76
646.8	22.75
646.99	22.81
647.18	22.75
647.371	22.62
647.561	22.62
647.751	22.72
647.941	22.69
648.132	22.74
648.322	22.88
648.512	22.88
648.702	22.81
648.892	22.6
649.082	22.61
649.272	22.49
649.462	22.5
649.653	22.52
649.843	22.6
650.033	22.51
650.223	22.48
650.413	22.41
650.603	22.36
650.793	22.36
650.983	22.28
651.172	22.31
651.362	22.26
651.552	22.1
651.742	22.05
651.932	22.06
652.122	21.93
652.312	21.91
652.502	21.9
652.691	21.77
652.881	21.66
653.071	21.7
653.261	21.67
653.45	21.53
653.64	21.54
653.83	21.48
654.019	21.23
654.209	20.99
654.399	20.83
654.588	20.62
654.778	20.43
654.968	20.25
655.157	20.09
655.347	20.09
655.536	20.01
655.726	19.82
655.915	19.86
656.105	19.78
656.294	19.59
656.484	19.38
656.673	19.44
656.863	19.17
657.052	19.06
657.241	18.88
657.431	18.78
657.62	18.51
657.809	18.22
657.999	18.03
658.188	17.94
658.377	17.74
658.567	17.5
658.756	17.5
658.945	17.44
659.134	17.19
659.324	17.05
659.513	16.86
659.702	16.73
659.891	16.48
660.08	16.25
660.269	16.03
660.458	15.87
660.648	15.74
660.837	15.55
661.026	15.49
661.215	15.36
661.404	15.21
661.593	14.97
661.782	14.77
661.971	14.57
662.16	14.43
662.349	14.28
662.538	14.16
662.726	14.12
662.915	13.95
663.104	13.77
663.293	13.65
663.482	13.5
663.671	13.25
663.86	13.16
664.048	13.05
664.237	12.88
664.426	12.74
664.615	12.69
664.803	12.48
664.992	12.29
665.181	12.26
665.369	12.19
665.558	12.09
665.747	12.1
665.935	12.07
666.124	11.97
666.312	11.77
666.501	11.71
666.69	11.62
666.878	11.61
667.067	11.49
667.255	11.55
667.444	11.5
667.632	11.62
667.82	11.6
668.009	11.81
668.197	11.77
668.386	11.7
668.574	11.4
668.762	11.31
668.951	11.18
669.139	11.22
669.327	11.11
669.516	11.29
669.704	11.31
669.892	11.3
670.08	11.19
670.269	11.22
670.457	11.06
670.645	10.95
670.833	10.85
671.021	10.88
671.21	10.8
671.398	10.78
671.586	10.8
671.774	10.89
671.962	10.89
672.15	11.03
672.338	11.18
672.526	11.37
672.714	11.39
672.902	11.4
673.09	11.46
673.278	11.46
673.466	11.44
673.654	11.53
673.842	11.56
674.03	11.64
674.218	11.75
674.405	11.77
674.593	11.76
674.781	11.97
674.969	11.88
675.157	11.85
675.344	11.83
675.532	11.91
675.72	11.93
675.908	12.05
676.095	12.1
676.283	12.27
676.471	12.38
676.658	12.32
676.846	12.47
677.033	12.68
677.221	12.76
677.409	12.8
677.596	13.01
677.784	13.14
677.971	13.15
678.159	13.21
678.346	13.34
678.534	13.51
678.721	13.57
678.909	13.69
679.096	13.68
679.283	13.79
679.471	13.78
679.658	13.9
679.846	14.03
680.033	14.36
680.22	14.39
680.408	14.48
680.595	14.57
680.782	14.62
680.969	14.69
681.157	14.92
681.344	14.99
681.531	15.16
681.718	15.4
681.905	15.46
682.093	15.6
682.28	15.72
682.467	15.92
682.654	15.96
682.841	16.07
683.028	16.13
683.215	16.37
683.402	16.41
683.589	16.71
683.776	16.98
683.963	17.11
684.15	17.45
684.337	17.69
684.524	17.82
684.711	18.08
684.898	18.23
685.085	18.22
685.271	18.51
685.458	18.67
685.645	18.79
685.832	19.13
686.019	19.59
686.205	19.99
686.392	20.35
686.579	20.84
686.766	21.28
686.952	21.53
687.139	21.73
687.326	22.13
687.512	22.29
687.699	22.47
687.886	22.79
688.072	23.13
688.259	23.3
688.445	23.56
688.632	24.02
688.818	24.36
689.005	24.69
689.191	25.2
689.378	25.87
689.564	26.3
689.751	26.73
689.937	27.31
690.124	27.81
690.31	28.15
690.496	28.63
690.683	29.26
690.869	29.59
691.055	30.07
691.242	30.53
691.428	31.09
691.614	31.66
691.8	32.07
691.987	32.71
692.173	33.5
692.359	34.09
692.545	34.61
692.731	35.44
692.918	35.88
693.104	36.29
693.29	36.74
693.476	37.07
693.662	37.57
693.848	38.35
694.034	38.92
694.22	39.6
694.406	40.31
694.592	40.86
694.778	41.36
694.964	42.04
695.15	42.87
695.336	43.24
695.522	43.84
695.708	44.41
695.894	44.74
696.08	44.95
696.265	45.61
696.451	46.08
696.637	46.46
696.823	47.18
697.009	47.82
697.194	48.39
697.38	48.95
697.566	49.46
697.751	49.89
697.937	50.29
698.123	50.64
698.308	50.97
698.494	51.42
698.68	51.87
698.865	52.26
699.051	52.98
699.236	53.37
699.422	53.6
699.607	53.87
699.793	54.35
699.978	54.54
700.164	55.06
700.349	55.71
700.535	56.21
700.72	56.53
700.906	57.02
701.091	57.44
701.276	57.6
701.462	58.01
701.647	58.71
701.832	59.32
702.018	59.56
702.203	60.02
702.388	60.52
702.573	60.62
702.759	60.6
702.944	60.87
703.129	61.15
703.314	61.52
703.499	61.64
703.684	62.33
703.87	62.32
704.055	62.66
704.24	62.19
704.425	62.59
704.61	62.56
704.795	63.06
704.98	63.37
705.165	64.02
705.35	64.4
705.535	64.61
705.72	64.9
705.905	65.2
706.09	65.22
706.275	65.27
706.459	65.57
706.644	65.77
706.829	66.04
707.014	66.76
707.199	67
707.384	67.07
707.568	67.56
707.753	67.51
707.938	67.33
708.123	67.64
708.307	67.76
708.492	68.23
708.677	68.49
708.861	69.16
709.046	69.17
709.231	69.2
709.415	68.85
709.6	68.64
709.784	68.65
709.969	68.68
710.153	68.9
710.338	69.16
710.522	69.85
710.707	69.44
710.891	69.61
711.076	70.05
711.26	70.27
711.445	70.28
711.629	70.33
711.813	70.46
711.998	70.53
712.182	70.25
712.366	70.44
712.551	70.72
712.735	70.6
712.919	70.58
713.103	70.46
713.288	70.16
713.472	70.18
713.656	70.42
713.84	70.44
714.024	70.85
714.208	71.05
714.393	71.54
714.577	71.77
714.761	71.78
714.945	71.76
715.129	71.65
715.313	71.15
715.497	70.99
715.681	71.49
715.865	71.82
716.049	72.24
716.233	72.86
716.417	73.3
716.601	73.16
716.785	73.04
716.968	73.05
717.152	72.81
717.336	73.02
717.52	73.1
717.704	73.25
717.888	73.64
718.071	74.01
718.255	74.26
718.439	73.94
718.622	73.84
718.806	73.54
718.99	73.52
719.174	72.84
719.357	73.05
719.541	73.52
719.724	73.36
719.908	73.17
720.092	73.17
720.275	73.24
720.459	73.39
720.642	74.22
720.826	74.74
721.009	75.32
721.193	75.51
721.376	75.78
721.559	75.41
721.743	75.38
721.926	75.29
722.11	75.32
722.293	74.94
722.476	75.07
722.66	75.18
722.843	75.3
723.026	75.68
723.21	76.01
723.393	76.09
723.576	76.13
723.759	76.1
723.942	75.82
724.126	76.05
724.309	76.17
724.492	76.48
724.675	76.79
724.858	77.06
725.041	76.73
725.224	76.88
725.407	76.72
725.59	76.78
725.774	76.76
725.957	77.13
726.14	77.36
726.322	77.44
726.505	77.47
726.688	78.21
726.871	78.05
727.054	78.27
727.237	78.78
727.42	79.12
727.603	78.7
727.786	79.31
727.968	78.81
728.151	78.54
728.334	78.45
728.517	78.69
728.699	78.62
728.882	79.45
729.065	79.6
729.248	79.67
729.43	79.69
729.613	79.7
729.796	78.96
729.978	79.85
730.161	80
730.343	80.34
730.526	80.79
730.708	81.25
730.891	80.92
731.073	81.24
731.256	81.69
731.438	81.42
731.621	81.39
731.803	81.23
731.986	81.65
732.168	81.54
732.35	81.28
732.533	81.5
732.715	81.99
732.898	81.8
733.08	81.81
733.262	82.73
733.444	82.16
733.627	82.03
733.809	81.87
733.991	82.26
734.173	82.38
734.355	83.7
734.538	83.44
734.72	84.49
734.902	85.12
735.084	84.87
735.266	83.87
735.448	84.29
735.63	83.9
735.812	83
735.994	82.32
736.176	83.6
736.358	84.95
736.54	84.47
736.722	84.98
736.904	86.37
737.086	85.55
737.268	84.2
737.45	84.69
737.632	84.78
737.814	84.19
737.995	85.23
738.177	85.42
738.359	86
738.541	86.01
738.723	86.65
738.904	86.79
739.086	87.6
739.268	87.26
739.449	86.58
739.631	85.92
739.813	85.55
739.994	85.08
740.176	84.36
740.358	85.24
740.539	85.35
740.721	85.57
740.902	85.04
741.084	85.87
741.265	86.57
741.447	87.36
741.628	87.06
741.81	86.52
741.991	85.96
742.172	85.8
742.354	86.06
742.535	86.76
742.717	88.13
742.898	89.01
743.079	88.55
743.261	87.41
743.442	86.99
743.623	86.69
743.804	85.33
743.986	85.55
744.167	85.73
744.348	85.54
744.529	86.21
744.71	87.44
744.891	87.5
745.073	87.62
745.254	88.15
745.435	88.01
745.616	87.62
745.797	86.7
745.978	86.74
746.159	87.53
746.34	87.26
746.521	87.98
746.702	88.32
746.883	87.87
747.064	85.8
747.245	85.66
747.426	85.4
747.606	85.68
747.787	87.41
747.968	88.05
748.149	88.06
748.33	87.1
748.51	88.24
748.691	87.01
748.872	87.8
749.053	87.31
749.233	88.83
749.414	86.27
749.595	86.84
749.775	87.78
749.956	88.43
750.137	86.48
750.317	87.01
750.498	87.45
750.678	86.11
750.859	85.21
751.04	85.43
751.22	85.42
751.4	84.64
751.581	84.67
751.761	85.9
751.942	86.35
752.122	86.33
752.303	86.55
752.483	86.66
752.663	87.01
752.844	88.08
753.024	88.49
753.204	87.76
753.385	87.34
753.565	87.1
753.745	88.44
753.925	89.05
754.106	90.07
754.286	90.13
754.466	89.32
754.646	88.51
754.826	87.92
755.006	87.1
755.187	88.15
755.367	87.97
755.547	86.51
755.727	85.93
755.907	85.49
756.087	85.7
756.267	85.73
756.447	86.36
756.627	87.3
756.807	88.79
756.987	88.39
757.167	89.54
757.346	89.65
757.526	89.1
757.706	87.87
757.886	85.92
758.066	85.72
758.246	85.55
758.425	86.48
758.605	86.76
758.785	88.85
758.965	89.78
759.144	92.11
759.324	91.47
759.504	92.28
759.683	91.12
759.863	89.33
760.043	87.3
760.222	86.91
760.402	86.3
760.581	87.57
760.761	86.52
760.94	85.85
761.12	86.79
761.299	85.97
761.479	84.53
761.658	85.92
761.838	86.69
762.017	86.87
762.197	86.89
762.376	87.8
762.555	87.5
762.735	87.92
762.914	86.17
763.093	86.74
763.273	86.81
763.452	85.67
763.631	83.51
763.81	84.04
763.99	85.06
764.169	85.67
764.348	87.42
764.527	87.58
764.706	87
764.885	87.2
765.064	87
765.243	85.84
765.423	86.97
765.602	86.72
765.781	85.16
765.96	82.91
766.139	84.2
766.318	82.61
766.497	86.06
766.676	86.6
766.854	88.39
767.033	88.2
767.212	90.19
767.391	86.86
767.57	87.41
767.749	84.03
767.928	82.13
768.106	81.78
768.285	80.63
768.464	80.55
768.643	84.09
768.821	84.88
769	85.67
769.179	88.66
769.357	87.65
769.536	86.36
769.715	85.95
769.893	86.36
770.072	83.43
770.25	84.38
770.429	85.73
770.607	85.73
770.786	84.94
770.964	84.82
771.143	84.93
771.321	84.69
771.5	86.58
771.678	85.01
771.857	86.87
772.035	88.99
772.213	89.08
772.392	86.87
772.57	89.43
772.748	90.08
772.927	88.02
773.105	87.24
773.283	86.99
773.461	84.88
773.64	83.82
773.818	83.78
773.996	82.76
774.174	83.03
774.352	80.89
774.531	81.39
774.709	82.05
774.887	84.26
775.065	83.48
775.243	85.69
775.421	85.68
775.599	83.02
775.777	81.2
775.955	82.42
776.133	84.16
776.311	84.83
776.489	86.6
776.667	87.28
776.844	87.34
777.022	87.2
777.2	88.71
777.378	88.49
777.556	89.32
777.734	87.09
777.911	84.86
778.089	83.55
778.267	81.27
778.445	79.53
778.622	80.58
778.8	82.63
778.978	81.43
779.155	82.45
779.333	82.01
779.511	79.76
779.688	76.7
779.866	74.8
780.043	76.89
780.221	76.65
780.398	80.8
780.576	82.7
780.753	84.91
780.931	82.81
781.108	83.7
781.286	84.27
781.463	83.25
781.64	85.9
781.818	86.98
781.995	88.06
782.172	84.37
782.35	86.46
782.527	84.85
782.704	84.4
782.882	84.07
783.059	85.73
783.236	81.38
783.413	81.26
783.59	81.41
783.768	78.76
783.945	81.06
784.122	87.77
784.299	87.15
784.476	86.88
784.653	89.26
784.83	87.48
785.007	85.19
785.184	85.74
785.361	85.2
785.538	82.8
785.715	80.93
785.892	79.33
786.069	78.75
786.246	79.1
786.423	82.71
786.6	84.01
786.776	87.58
786.953	89.27
787.13	88.87
787.307	87.46
787.484	90.16
787.66	89.44
787.837	87.02
788.014	87.89
788.191	85.67
788.367	85.68
788.544	85.56
788.721	86.15
788.897	87.34
789.074	87.67
789.25	83.07
789.427	80.47
789.603	81.1
789.78	79.86
789.956	80.58
790.133	83.04
790.309	87.8
790.486	84.13
790.662	85.07
790.839	87.4
791.015	83.05
791.192	79.67
791.368	83.66
791.544	79.67
791.721	79.1
791.897	86.82
792.073	87.07
792.249	83.5
792.426	91.41
792.602	92.19
792.778	85.29
792.954	83.81
793.13	86.75
793.307	82.56
793.483	82.09
793.659	87.13
793.835	86.99
794.011	89.97
794.187	85.45
794.363	83.79
794.539	78.04
794.715	76.95
794.891	74.17
795.067	75.97
795.243	75.37
795.419	80.76
795.595	82.29
795.771	82.21
795.947	84.29
796.122	86.39
796.298	82.9
796.474	85.52
796.65	86.85
796.826	88.53
797.001	87.58
797.177	86.02
797.353	80.72
797.529	77.12
797.704	75.09
797.88	73.27
798.056	77.52
798.231	81.91
798.407	79.05
798.582	76.89
798.758	80.84
798.934	84.51
799.109	85.07
799.285	90.38
799.46	92.82
799.636	90.69
799.811	82.51
799.986	79.94
800.162	77.11
800.337	78.14
800.513	77.62
800.688	81.32
800.863	81.6
801.039	81.53
801.214	81.58
801.389	84.14
801.565	81.59
801.74	90.32
801.915	90.14
802.09	86.66
802.265	84.57
802.441	82.2
802.616	71.77
802.791	72.53
802.966	80.95
803.141	80.75
803.316	79.69
803.491	81.51
803.666	84.47
803.841	80.16
804.016	82.97
804.191	87.43
804.366	92.89
804.541	88.78
804.716	83.11
804.891	76.73
805.066	77
805.241	67.49
805.416	66.32
805.591	68.85
805.765	72.88
805.94	71.08
806.115	77.09
806.29	73.92
806.464	73.71
806.639	74.87
806.814	70.15
806.989	62.12
807.163	64.4
807.338	61.37
807.512	60.99
807.687	63.28
807.862	58.91
808.036	57.33
808.211	59.7
808.385	56.7
808.56	60.25
808.734	64.17
808.909	68.99
809.083	69.61
809.258	72.87
809.432	70.38
809.606	68.63
809.781	66.74
809.955	62.14
810.13	60.05
810.304	54.66
810.478	62.36
810.652	61.23
810.827	70.16
811.001	74.41
811.175	82.87
811.349	79.01
811.524	78.31
811.698	74.3
811.872	71.57
812.046	70.07
812.22	72.33
812.394	79.38
812.568	85.12
812.742	90.53
812.916	87.97
813.09	82.1
813.264	79.99
813.438	77.02
813.612	80.95
813.786	74.03
813.96	81.56
814.134	73.02
814.308	68.77
814.482	58.8
814.656	61.83
814.83	57.51
815.003	65.95
815.177	71.29
815.351	72.84
815.525	86.63
815.698	89.68
815.872	78.64
816.046	75.87
816.219	69.81
816.393	65.59
816.567	68.12
816.74	73.51
816.914	72.54
817.088	74.68
817.261	71.79
817.435	76.88
817.608	80.64
817.782	78.49
817.955	81.13
818.129	87.06
818.302	70.96
818.475	73.19
818.649	81.61
818.822	79.25
818.996	68.78
819.169	82.63
819.342	82.58
819.516	83.01
819.689	92.98
819.862	96.57
820.035	93.89
820.209	77.99
820.382	91.47
820.555	90.57
820.728	95.19
820.901	83.03
821.075	98.6
821.248	91.24
821.421	85.58
821.594	82.9
821.767	95.45
821.94	95.26
822.113	78.41
822.286	76.28
822.459	77.84
822.632	76.76
822.805	74.28
822.978	77.76
823.151	76.88
823.324	76.85
823.496	77.76
823.669	76.3
823.842	69.4
824.015	72.63
824.188	65.68
824.361	62.82
824.533	67.58
824.706	63.51
824.879	61.48
825.051	67.9
825.224	69.34
825.397	62.51
825.569	77.01
825.742	71.26
825.915	69.95
826.087	68.38
826.26	73.97
826.432	84.65
826.605	91.34
826.777	76.29
826.95	64.14
827.122	56.31
827.295	37.42
827.467	35.7
827.64	25.16
827.812	38.05
827.984	44.73
828.157	48.82
828.329	63.17
828.501	85.85
828.674	77.87
828.846	77.95
829.018	87.8
829.19	85.14
829.363	75.49
829.535	72.06
829.707	75.76
829.879	66.17
830.051	48.34
830.223	65.61
830.395	75.98
830.568	46.77
830.74	56.66
830.912	54.41
831.084	52.9
831.256	51.27
831.428	62.09
831.6	68.09
831.772	80.37
831.943	78.63
832.115	74.97
832.287	82.76
832.459	67.15
832.631	72.52
832.803	84.42
832.975	94.44
833.146	88.8
833.318	94.55
833.49	90.77
833.662	92.29
833.833	81.24
834.005	86.42
834.177	109.52
834.348	122.89
834.52	92.95
834.692	101.25
834.863	104.6
835.035	94.43
835.206	91.66
835.378	76.28
835.549	71.43
835.721	67.73
835.892	69.06
836.064	75.29
836.235	91.06
836.407	96.71
836.578	82.54
836.749	76.79
836.921	67.03
837.092	69.05
837.264	61.03
837.435	65.61
837.606	55.6
837.777	42.8
837.949	35.06
838.12	31.65
838.291	31.67
838.462	54.34
838.633	96.33
838.805	85.33
838.976	100.3
839.147	129.79
839.318	102.37
839.489	78.3
839.66	101.71
839.831	101.87
840.002	90.07
840.173	116.16
840.344	145.92
840.515	116.68
840.686	103.63
840.857	99.46
841.028	101.6
841.199	88.23
841.369	75.51
841.54	84.53
841.711	87.39
841.882	63.39
842.053	57.67
842.223	74.45
842.394	84.46
842.565	77.54
842.736	110.61
842.906	142.77
843.077	119.81
843.248	131.11
843.418	107.87
843.589	55.92
843.759	56.44
843.93	52.21
844.101	46.08
844.271	50.59
844.442	81.53
844.612	81.08
844.783	71.41
844.953	61.99
845.123	52.07
845.294	25.51
845.464	44.18
845.635	66.37
845.805	69.35
845.975	71.18
846.146	101.59
846.316	73.82
846.486	80.43
846.656	90.5
846.827	74.79
846.997	83.79
847.167	75.23
847.337	50.27
847.507	45.11
847.677	78.08
847.848	89.66
848.018	125.78
848.188	149.01
848.358	142.52
848.528	127.78
848.698	107.81
848.868	90.42
849.038	68.8
849.208	50.46
849.378	84.26
849.548	58.28
849.718	71.65
849.887	70.55
850.057	72.84
850.227	47.74
850.397	58.91
850.567	59.75
850.737	73.96
850.906	70.56
851.076	75.63
851.246	59.52
851.415	51.12
851.585	37.66
851.755	38.14
851.924	43.97
852.094	62.51
852.264	57.22
852.433	42.9
852.603	39.34
852.772	42.47
852.942	34.5
853.111	49.59
853.281	75.31
853.45	61.61
853.62	49.61
853.789	42.66
853.959	46.36
854.128	65.31
854.297	77.57
854.467	132.56
854.636	100.51
854.805	81.92
854.975	66.76
855.144	77.41
855.313	59.07
855.482	83.57
855.652	72.64
855.821	73.45
855.99	49.58
856.159	52.4
856.328	34.19
856.497	47.71
856.667	57.35
856.836	68.15
857.005	61.65
857.174	55.02
857.343	69.72
857.512	53.4
857.681	15.05
857.85	44.52
858.019	43.57
858.188	40.22
858.356	56.56
858.525	78.99
858.694	86.97
858.863	71.93
859.032	54.42
859.201	47.45
859.369	63.25
859.538	51.98
859.707	35.46
859.876	50.28
860.044	48.37
860.213	21.47
860.382	21.43
860.55	72.24
860.719	112.01
860.888	124.43
861.056	116.77
861.225	106.77
861.393	103.95
861.562	94.02
861.73	91.53
861.899	73.05
862.067	82.26
862.236	83.17
862.404	74.19
862.572	75.49
862.741	86.04
862.909	83.06
863.078	61.77
863.246	59.69
863.414	62.86
863.582	60.1
863.751	60.16
863.919	81.74
864.087	109.98
864.255	80.1
864.424	79.94
864.592	75.01
864.76	83.89
864.928	70.88
865.096	63.41
865.264	80.7
865.432	73.39
865.6	67.27
865.768	59.82
865.936	61.08
866.104	19.85
866.272	37.93
866.44	28.48
866.608	25.78
866.776	81.53
866.944	108.7
867.112	131.14
867.28	102.6
867.448	86.3
867.615	43.45
867.783	24.33
867.951	-1.75
868.119	35.14
868.286	66.53
868.454	87.69
868.622	102.78
868.789	127.63
868.957	111.77
869.125	105.4
869.292	82.67
869.46	67.46
869.627	69.48
869.795	62.13
869.963	68.22
870.13	88.09
870.298	82.56
870.465	74.01
870.632	58.27
870.8	22.6
870.967	41.07
871.135	43.53
871.302	13.66
871.469	67.56
871.637	65.89
871.804	39.31
871.971	65.23
872.139	76.16
872.306	67.32
872.473	114.14
872.64	111.08
872.807	72.97
872.975	52.3
873.142	35.95
873.309	1.52
873.476	32.99
873.643	29.15
873.81	59.94
873.977	49.23
874.144	72
874.311	71.71
874.478	76.91
874.645	57.66
874.812	67.36
874.979	42.65
875.146	25.26
875.313	27.01
875.48	29.61
875.647	43.45
875.813	30.79
875.98	25.18
876.147	37.51
876.314	38.21
876.481	45.33
876.647	35.6
876.814	60.86
876.981	60.67
877.147	68.73
877.314	44.88
877.481	54.75
877.647	28.86
877.814	22.48
877.98	17.74
878.147	2.38
878.314	-18.93
878.48	43.78
878.647	21.97
878.813	16.65
878.979	20.7
879.146	32.93
879.312	13.42
879.479	47.55
879.645	103.87
879.811	110.23
879.978	75.29
880.144	71.73
880.31	78.19
880.477	54.31
880.643	61.7
880.809	87.33
880.975	88.87
881.142	32.09
881.308	-12.26
881.474	-26.76
881.64	-49.87
881.806	-188.57
881.972	42.94
882.138	155.04
882.304	90.13
882.47	23.67
882.636	34.69
882.802	35.94
882.968	27
883.134	32.34
883.3	61.67
883.466	73.13
883.632	94.95
883.798	102.76
883.964	115.51
884.129	232.43
884.295	151.49
884.461	107.77
884.627	104.65
884.793	102.89
884.958	81.1
885.124	72.52
885.29	61.85
885.455	59
885.621	46.39
885.787	41.06
885.952	42.05
886.118	46.45
886.283	65.23
886.449	75.57
886.614	83.12
886.78	96.21
886.945	92.69
887.111	58.09
887.276	50.09
887.442	38.32
887.607	-3.79
887.773	-33
887.938	-13.53
888.103	-0.69
888.269	42.53
888.434	57.26
888.599	45.07
888.764	52.48
888.93	44.09
889.095	10.3
889.26	-1.92
889.425	14.06
889.59	30.65
889.756	31.59
889.921	6.2
890.086	-7.65
890.251	-10.26
890.416	-21.36
890.581	-51.44
890.746	23.02
890.911	41.31
891.076	69.06
891.241	79.97
891.406	109.22
891.571	127.76
891.736	101.39
891.901	86.45
892.065	79.37
892.23	53.24
892.395	4.13
892.56	-96.41
892.725	-30.65
892.889	-32.69
893.054	-7.51
893.219	1.45
893.384	23.72
893.548	-0.82
893.713	-10.31
893.878	-25.61
