Data from Ofav_PP_2HS2_Reflection_1.txt Node
Date: Tue Jul 27 19:02:42 EDT 2021
User: USUARIO
Spectrometer: FLMT01687
Trigger mode: 0
Integration Time (sec): 8.500000E-1
Scans to average: 2
Electric dark correction enabled: true
Nonlinearity correction enabled: false
Boxcar width: 2
XAxis mode: Wavelengths
Number of Pixels in Spectrum: 3648
>>>>>Begin Spectral Data<<<<<
179.494	-41.48
179.716	-44.89
179.937	-2.53
180.158	-8.99
180.38	-25.29
180.601	-189.8
180.823	90.72
181.044	57.44
181.265	47.32
181.486	7.13
181.708	-47.76
181.929	113.32
182.15	-16.5
182.372	28.32
182.593	27.86
182.814	81.64
183.035	87.95
183.257	85.4
183.478	56.51
183.699	55.24
183.92	48.78
184.141	56.41
184.363	82.6
184.584	104.21
184.805	122.97
185.026	90.47
185.247	98.64
185.468	72.26
185.689	44.59
185.91	0.65
186.132	-7.8
186.353	-9.37
186.574	-2.47
186.795	13.6
187.016	34.39
187.237	44.85
187.458	56.84
187.679	50.37
187.9	22.06
188.121	40.43
188.342	60.15
188.563	45.82
188.784	68.69
189.005	86.92
189.226	71.28
189.447	60.57
189.667	67.7
189.888	62.89
190.109	52.06
190.33	43.42
190.551	27.09
190.772	15.6
190.993	14.02
191.214	15.48
191.434	21.22
191.655	34.08
191.876	32.37
192.097	33.01
192.318	48.61
192.538	49.91
192.759	59.01
192.98	71.15
193.201	68.03
193.421	85.22
193.642	46.03
193.863	40.52
194.083	39.15
194.304	26.81
194.525	-7
194.745	-7.4
194.966	-53.23
195.187	-77.11
195.407	-41.25
195.628	-12.35
195.848	17.76
196.069	28.27
196.29	49.52
196.51	44.14
196.731	40.22
196.951	41.12
197.172	49.48
197.392	48.78
197.613	73.32
197.833	71.88
198.054	82.1
198.274	80.55
198.495	96.71
198.715	99.13
198.936	101.32
199.156	90.01
199.377	114.17
199.597	89.23
199.817	61.27
200.038	101.87
200.258	73.5
200.479	30.4
200.699	40.51
200.919	21.06
201.14	18.88
201.36	16.26
201.58	17.2
201.801	15.91
202.021	8.61
202.241	15.56
202.461	17.74
202.682	12.84
202.902	-17.09
203.122	27.9
203.342	32.72
203.563	32.99
203.783	40.9
204.003	36.46
204.223	33.45
204.443	25.08
204.663	20.32
204.884	31.6
205.104	54.77
205.324	60.5
205.544	75.25
205.764	62.38
205.984	63
206.204	62.21
206.424	76.3
206.644	58.26
206.864	59.74
207.084	45.4
207.304	68.27
207.525	53.72
207.745	50.9
207.964	57.7
208.184	63.02
208.404	47.81
208.624	46.9
208.844	53.73
209.064	61.64
209.284	57.21
209.504	63.88
209.724	82.68
209.944	73.93
210.164	44.32
210.384	73.92
210.604	60.86
210.823	49.16
211.043	53.71
211.263	60.39
211.483	61.57
211.703	62.21
211.922	63.94
212.142	72.65
212.362	47.85
212.582	34.43
212.801	48.61
213.021	33.92
213.241	10.93
213.461	4.62
213.68	8.25
213.9	-42.38
214.12	-20.45
214.339	1.5
214.559	6.91
214.779	10.26
214.998	26.51
215.218	21.76
215.438	36
215.657	50.35
215.877	50.9
216.096	52.7
216.316	63.01
216.535	47.46
216.755	51.42
216.974	59.09
217.194	60.26
217.413	58.71
217.633	52.16
217.852	50.87
218.072	47.74
218.291	50.78
218.511	56.84
218.73	61.04
218.95	52.05
219.169	61.03
219.389	59.33
219.608	50.49
219.827	77.91
220.047	88.09
220.266	66.95
220.485	62.65
220.705	72.95
220.924	63.91
221.143	47.84
221.363	42.55
221.582	36.11
221.801	23.79
222.021	28.24
222.24	53.28
222.459	34.65
222.678	31.19
222.897	32.6
223.117	43.86
223.336	37.2
223.555	48.9
223.774	54.77
223.993	57.36
224.213	39
224.432	35.5
224.651	43.05
224.87	28.62
225.089	19.91
225.308	11.47
225.527	13.11
225.746	4.14
225.965	36.65
226.184	43.5
226.404	54.86
226.623	38.03
226.842	33.58
227.061	1.82
227.28	8.14
227.499	30
227.718	32.91
227.936	44.4
228.155	46.25
228.374	50.15
228.593	45.52
228.812	63.73
229.031	64.02
229.25	62.05
229.469	56.78
229.688	32.07
229.907	-11.51
230.125	2.79
230.344	18.49
230.563	31.78
230.782	36.61
231.001	40.32
231.22	37.64
231.438	25.24
231.657	12.22
231.876	30.13
232.095	33.16
232.313	18.47
232.532	20.04
232.751	36.26
232.969	28.04
233.188	39.52
233.407	48.1
233.625	62.55
233.844	40.39
234.063	44.66
234.281	27.76
234.5	21.7
234.719	44.14
234.937	37.77
235.156	28.9
235.374	27.03
235.593	39.67
235.811	18.15
236.03	37.67
236.249	40.33
236.467	62.8
236.686	55.81
236.904	61.24
237.123	65.22
237.341	63.98
237.559	52.47
237.778	47.44
237.996	37.03
238.215	31.37
238.433	30.57
238.652	20.81
238.87	17.48
239.088	22.81
239.307	24.27
239.525	4.51
239.743	9.7
239.962	12.42
240.18	15.46
240.398	13.18
240.617	26.74
240.835	46.74
241.053	60.14
241.271	49.25
241.49	49.13
241.708	56.8
241.926	46.19
242.144	34.32
242.363	43.27
242.581	38.98
242.799	18.85
243.017	4.67
243.235	23.91
243.453	29.46
243.672	32.82
243.89	36.77
244.108	35.02
244.326	18.88
244.544	6.35
244.762	9.2
244.98	31.35
245.198	35.89
245.416	50.65
245.634	61.21
245.852	66.62
246.07	53.13
246.288	50.47
246.506	45.72
246.724	33.26
246.942	35.18
247.16	32.58
247.378	15.17
247.596	28.31
247.814	34.96
248.032	29.73
248.25	18.26
248.468	38.21
248.685	35.3
248.903	33.18
249.121	36.13
249.339	58.09
249.557	46.37
249.775	16.81
249.992	11.35
250.21	14.18
250.428	3.87
250.646	6.8
250.863	19.09
251.081	33.39
251.299	36.87
251.517	32.93
251.734	50.24
251.952	51.73
252.17	26.11
252.387	3.36
252.605	6.11
252.823	13.57
253.04	38.61
253.258	47.18
253.475	44.92
253.693	59.29
253.911	52.41
254.128	43.08
254.346	45.47
254.563	64.73
254.781	52.95
254.998	62.92
255.216	34.77
255.433	35.35
255.651	29.43
255.868	31.69
256.086	23.08
256.303	37.55
256.521	35
256.738	39.31
256.956	19.13
257.173	26.02
257.39	17.56
257.608	36.02
257.825	26.94
258.043	50.18
258.26	55.3
258.477	68.22
258.695	53.25
258.912	68.47
259.129	71.54
259.346	61.63
259.564	53.09
259.781	65.55
259.998	40.73
260.216	40.1
260.433	44.54
260.65	44.87
260.867	29.73
261.084	32.85
261.302	24.29
261.519	29.86
261.736	14.49
261.953	35.82
262.17	40.4
262.387	34.57
262.604	31.15
262.822	61.94
263.039	58.12
263.256	59.76
263.473	68.19
263.69	74.13
263.907	45.16
264.124	37.1
264.341	41.45
264.558	45.98
264.775	51.95
264.992	59.87
265.209	55.94
265.426	56.54
265.643	62.8
265.86	48.14
266.077	58.6
266.294	62.15
266.51	52.93
266.727	55.3
266.944	56.1
267.161	32.11
267.378	18.72
267.595	26.15
267.812	22.04
268.028	37.35
268.245	50.12
268.462	51.98
268.679	34.01
268.896	27.89
269.112	6.63
269.329	13.51
269.546	30.58
269.763	33.37
269.979	33.26
270.196	51.74
270.413	58.91
270.629	61.63
270.846	76.47
271.063	71.63
271.279	76.34
271.496	48.64
271.712	30.68
271.929	0.67
272.146	-10.3
272.362	-4.04
272.579	14.03
272.795	12.68
273.012	24.44
273.228	27.03
273.445	22.48
273.661	26.21
273.878	31.99
274.094	25.06
274.311	35.57
274.527	34.63
274.744	25.02
274.96	33.26
275.177	22.19
275.393	13.05
275.609	14.19
275.826	13.78
276.042	7.57
276.259	28.85
276.475	23.35
276.691	26.9
276.908	32.12
277.124	37.53
277.34	40.78
277.557	37.29
277.773	39.64
277.989	46.84
278.205	42.12
278.422	41.98
278.638	41.04
278.854	51.6
279.07	41.16
279.286	50.65
279.503	45.28
279.719	55.82
279.935	49.94
280.151	58.5
280.367	52.65
280.583	56.72
280.799	58.76
281.016	63.68
281.232	50.21
281.448	49.73
281.664	40.87
281.88	29.51
282.096	24.84
282.312	31.13
282.528	22.62
282.744	17.72
282.96	32.59
283.176	42.53
283.392	43.74
283.608	52.81
283.824	49.76
284.04	20.66
284.256	16.73
284.471	16.9
284.687	11.3
284.903	29.05
285.119	37.55
285.335	34.9
285.551	24.44
285.767	39.52
285.982	26.29
286.198	46.24
286.414	50.76
286.63	59.28
286.846	37.61
287.061	37.66
287.277	27.76
287.493	21.88
287.709	15.56
287.924	22.45
288.14	12.33
288.356	30.27
288.571	38.15
288.787	44.44
289.003	41.22
289.218	59.14
289.434	50.86
289.65	40.14
289.865	26.21
290.081	38.73
290.296	18.85
290.512	13.07
290.727	22.2
290.943	32.47
291.159	34.56
291.374	38.47
291.59	49.82
291.805	42.03
292.021	51.38
292.236	44.26
292.451	50.28
292.667	47.23
292.882	39.18
293.098	28.78
293.313	37.6
293.529	47.03
293.744	48.88
293.959	65.63
294.175	71.13
294.39	61.65
294.605	58.28
294.821	42.05
295.036	25.14
295.251	6.73
295.467	-11.66
295.682	-30.34
295.897	5.75
296.112	29.26
296.328	14.32
296.543	39.18
296.758	38.05
296.973	31.12
297.188	26.93
297.404	38.24
297.619	35.79
297.834	26.52
298.049	30.67
298.264	29.52
298.479	23.84
298.694	14.94
298.909	23.73
299.125	24.13
299.34	25.08
299.555	34.22
299.77	36.13
299.985	41.83
300.2	40.74
300.415	43.44
300.63	34.49
300.845	41.03
301.06	33.46
301.275	31.21
301.49	23.6
301.704	18.7
301.919	25.1
302.134	33.53
302.349	32.83
302.564	35.62
302.779	33.45
302.994	32.47
303.209	30.05
303.423	35.07
303.638	13.41
303.853	17.91
304.068	15.61
304.283	2.82
304.497	-8.93
304.712	7.73
304.927	10.9
305.142	20.58
305.356	17.86
305.571	37.49
305.786	41.23
306	22.99
306.215	14.71
306.43	31.55
306.644	44.04
306.859	56.1
307.074	68
307.288	64.97
307.503	58.29
307.717	47.87
307.932	38.69
308.147	41.68
308.361	43.66
308.576	37.85
308.79	42.1
309.005	44.72
309.219	34.74
309.434	27.49
309.648	32.57
309.863	14.09
310.077	3.93
310.292	9.28
310.506	6.9
310.72	8.39
310.935	4.44
311.149	17.14
311.364	22.4
311.578	34.37
311.792	44.32
312.007	56.26
312.221	51.33
312.435	45.34
312.649	40.5
312.864	29.93
313.078	13.89
313.292	29.28
313.507	29.4
313.721	53.24
313.935	46.45
314.149	43.17
314.363	39.54
314.578	47.84
314.792	46.05
315.006	58.04
315.22	74.56
315.434	60.72
315.648	54
315.862	34.07
316.077	10.44
316.291	13.47
316.505	22.57
316.719	21.49
316.933	39.03
317.147	47.73
317.361	46.22
317.575	45.06
317.789	39.39
318.003	35.01
318.217	26.1
318.431	1.14
318.645	3.59
318.859	0.9
319.073	9.87
319.287	11.18
319.5	13.78
319.714	12.17
319.928	18.74
320.142	8.28
320.356	27.73
320.57	52.04
320.784	58.13
320.997	59.03
321.211	57.73
321.425	43.05
321.639	28.66
321.853	27.47
322.066	25.05
322.28	25.98
322.494	35.93
322.707	43.51
322.921	38.54
323.135	39.95
323.349	46.5
323.562	46.41
323.776	37.53
323.989	27.57
324.203	28.95
324.417	22.88
324.63	45.86
324.844	64.61
325.057	76.81
325.271	76.19
325.485	58.58
325.698	52.06
325.912	30.19
326.125	33.37
326.339	38.03
326.552	45.35
326.766	32.69
326.979	47.57
327.193	55.87
327.406	44.9
327.619	26.84
327.833	28.68
328.046	31.26
328.26	27.6
328.473	18.98
328.686	37.55
328.9	45.18
329.113	31.95
329.326	18.46
329.54	50.6
329.753	37.92
329.966	29.07
330.179	37.37
330.393	34.46
330.606	17.64
330.819	20.62
331.032	10.33
331.246	14.77
331.459	20.09
331.672	24.98
331.885	10.54
332.098	28.83
332.311	28.32
332.525	39.88
332.738	38.6
332.951	66.9
333.164	56.28
333.377	44.88
333.59	39.53
333.803	42.63
334.016	11.97
334.229	13.72
334.442	39.3
334.655	47.27
334.868	39.64
335.081	56.35
335.294	67.28
335.507	66.75
335.72	61.48
335.933	59.36
336.146	60.94
336.359	54.29
336.572	61.19
336.785	58.6
336.997	73.17
337.21	70.04
337.423	54.87
337.636	36.75
337.849	31.47
338.062	36.86
338.274	36.85
338.487	65.37
338.7	55.79
338.913	61.44
339.125	62.31
339.338	61.64
339.551	24.34
339.763	40.67
339.976	28.24
340.189	24.23
340.402	28.04
340.614	29.93
340.827	24.07
341.039	22
341.252	13.72
341.465	-26.5
341.677	-12.68
341.89	-15.85
342.102	2.12
342.315	18.48
342.527	37.17
342.74	41.08
342.952	22.83
343.165	37.54
343.377	29.23
343.59	29.28
343.802	23.38
344.015	33.15
344.227	14.35
344.44	-7.39
344.652	-19.2
344.864	-21.76
345.077	-1.75
345.289	-2.68
345.502	4.63
345.714	21.53
345.926	16.93
346.139	15.91
346.351	15.39
346.563	16.58
346.775	13.04
346.988	10.85
347.2	3.72
347.412	13.64
347.624	10.1
347.837	-14.9
348.049	-17.15
348.261	-13.36
348.473	-18.1
348.685	-2.56
348.897	-1.31
349.11	11.76
349.322	9.39
349.534	21.57
349.746	23.43
349.958	36.67
350.17	38.47
350.382	41.6
350.594	31.25
350.806	29.72
351.018	15.99
351.23	17.14
351.442	-0.99
351.654	19.62
351.866	8.88
352.078	14.53
352.29	12.42
352.502	29.12
352.714	32.54
352.926	42.2
353.138	54
353.35	50.78
353.561	48.2
353.773	28.31
353.985	11.28
354.197	-5.08
354.409	-7.43
354.621	8.05
354.832	29.68
355.044	38.79
355.256	54.76
355.468	64.16
355.679	59.68
355.891	52.65
356.103	59.91
356.314	49.68
356.526	57.71
356.738	49.55
356.949	49.58
357.161	41.11
357.373	40.67
357.584	40.23
357.796	61.26
358.008	63.46
358.219	67.77
358.431	76.98
358.642	65.54
358.854	56.48
359.065	47.35
359.277	52.83
359.488	49.81
359.7	46.02
359.911	34.69
360.123	36.08
360.334	15.88
360.546	-5.06
360.757	8.15
360.969	2.68
361.18	6.02
361.391	24.06
361.603	31.8
361.814	27.53
362.025	35.68
362.237	34.64
362.448	35.11
362.659	36.67
362.871	34.51
363.082	39.49
363.293	39.09
363.504	28.2
363.716	21.51
363.927	11.75
364.138	0.11
364.349	6.75
364.56	14.29
364.772	12.52
364.983	14.5
365.194	14.7
365.405	12.31
365.616	5.9
365.827	22.11
366.038	24.83
366.25	17.25
366.461	15.3
366.672	31.89
366.883	17.89
367.094	11.63
367.305	21.48
367.516	13.86
367.727	17.32
367.938	18.26
368.149	20
368.36	15.59
368.571	15.71
368.781	14.72
368.992	16
369.203	20
369.414	24.42
369.625	30.8
369.836	31.37
370.047	29.84
370.258	36.4
370.468	33.09
370.679	22.71
370.89	22.63
371.101	17.45
371.312	11.51
371.522	15.54
371.733	30.43
371.944	34.99
372.155	41.52
372.365	38.74
372.576	41.7
372.787	44.03
372.997	44.39
373.208	43.76
373.419	45.94
373.629	49.19
373.84	44.65
374.05	36.56
374.261	34.96
374.472	31.57
374.682	19.22
374.893	27.16
375.103	33.53
375.314	33.08
375.524	44.8
375.735	36.53
375.945	18.29
376.156	21.39
376.366	20.38
376.577	17.07
376.787	22.1
376.997	26.1
377.208	34.3
377.418	35.56
377.629	39.11
377.839	43.34
378.049	49.95
378.26	43.75
378.47	40.24
378.68	43.99
378.89	38.99
379.101	32.56
379.311	28.35
379.521	22.4
379.732	18.01
379.942	33.62
380.152	30.73
380.362	22.68
380.572	16.75
380.783	9.47
380.993	-9.17
381.203	-7.61
381.413	-2.53
381.623	10.3
381.833	8.5
382.043	15.87
382.253	20.24
382.463	13.47
382.674	14.63
382.884	11.77
383.094	13.41
383.304	21.32
383.514	31.31
383.724	19.13
383.934	18.98
384.144	9.2
384.353	0.2
384.563	0.77
384.773	12.82
384.983	11.96
385.193	12.39
385.403	17.34
385.613	13.47
385.823	4.31
386.033	0.93
386.242	5.07
386.452	1.53
386.662	7.41
386.872	13.63
387.082	15.89
387.291	11.03
387.501	14.17
387.711	10.38
387.921	7
388.13	11.32
388.34	15.09
388.55	14.5
388.759	12.57
388.969	13.93
389.179	11.55
389.388	12.71
389.598	11.52
389.807	10.79
390.017	8.09
390.227	9.83
390.436	6.52
390.646	6.15
390.855	5.82
391.065	7.35
391.274	6.88
391.484	7.46
391.693	6.89
391.903	7.62
392.112	7.06
392.322	4.97
392.531	4.64
392.74	5.38
392.95	5.19
393.159	5.7
393.369	6.34
393.578	6.66
393.787	4.97
393.997	5.79
394.206	6.87
394.415	6.84
394.625	7.01
394.834	7.42
395.043	7.43
395.252	5.85
395.462	5.81
395.671	5.13
395.88	5.93
396.089	6.01
396.298	6.33
396.508	6.44
396.717	6.95
396.926	6.4
397.135	5.98
397.344	5.87
397.553	5.93
397.762	5.5
397.971	5.77
398.181	5.71
398.39	5.37
398.599	5.22
398.808	5.61
399.017	5.99
399.226	6.09
399.435	6.39
399.644	6.55
399.853	6.46
400.062	6.26
400.27	5.84
400.479	5.58
400.688	5.24
400.897	5.16
401.106	5.02
401.315	5.56
401.524	5.51
401.733	5.53
401.941	5.64
402.15	5.55
402.359	5.22
402.568	5.3
402.777	5.35
402.985	5.11
403.194	5.18
403.403	5.29
403.612	5.24
403.82	5.19
404.029	5.27
404.238	5.33
404.446	5.17
404.655	5.29
404.864	5.37
405.072	5.25
405.281	5.2
405.489	5.12
405.698	5.01
405.906	4.94
406.115	4.95
406.324	4.8
406.532	4.72
406.741	4.73
406.949	4.85
407.158	4.84
407.366	4.65
407.574	4.81
407.783	4.8
407.991	4.67
408.2	4.69
408.408	4.95
408.617	4.87
408.825	4.76
409.033	4.64
409.242	4.62
409.45	4.61
409.658	4.55
409.867	4.65
410.075	4.6
410.283	4.56
410.491	4.5
410.7	4.52
410.908	4.45
411.116	4.44
411.324	4.44
411.533	4.44
411.741	4.37
411.949	4.33
412.157	4.45
412.365	4.6
412.573	4.58
412.781	4.53
412.99	4.58
413.198	4.64
413.406	4.41
413.614	4.39
413.822	4.55
414.03	4.57
414.238	4.41
414.446	4.39
414.654	4.46
414.862	4.52
415.07	4.33
415.278	4.33
415.486	4.4
415.694	4.27
415.902	4.18
416.109	4.24
416.317	4.29
416.525	4.24
416.733	4.22
416.941	4.33
417.149	4.36
417.357	4.31
417.564	4.15
417.772	4.15
417.98	3.99
418.188	4.17
418.395	4.25
418.603	4.46
418.811	4.5
419.019	4.36
419.226	4.24
419.434	4.23
419.642	4.25
419.849	4.18
420.057	4.3
420.265	4.24
420.472	4.1
420.68	3.85
420.887	3.81
421.095	3.83
421.302	3.77
421.51	3.88
421.717	3.95
421.925	3.92
422.132	3.84
422.34	3.83
422.547	3.76
422.755	4.02
422.962	4.03
423.17	4.04
423.377	4.05
423.585	4.18
423.792	3.91
423.999	3.88
424.207	3.79
424.414	3.79
424.621	3.74
424.829	3.65
425.036	3.73
425.243	3.83
425.451	3.85
425.658	3.77
425.865	4.03
426.072	4.08
426.28	4
426.487	4.1
426.694	4.08
426.901	3.92
427.108	3.87
427.315	3.97
427.523	3.75
427.73	3.68
427.937	3.71
428.144	3.69
428.351	3.39
428.558	3.66
428.765	3.63
428.972	3.66
429.179	3.55
429.386	3.83
429.593	3.56
429.8	3.75
430.007	3.57
430.214	3.64
430.421	3.63
430.628	3.73
430.835	3.7
431.042	3.75
431.249	3.76
431.456	3.82
431.662	3.96
431.869	3.87
432.076	3.98
432.283	3.95
432.49	3.96
432.697	3.78
432.903	3.87
433.11	4
433.317	3.93
433.524	3.82
433.73	3.81
433.937	3.72
434.144	3.55
434.35	3.54
434.557	3.47
434.764	3.44
434.97	3.45
435.177	3.44
435.384	3.43
435.59	3.45
435.797	3.51
436.003	3.52
436.21	3.41
436.416	3.5
436.623	3.47
436.829	3.35
437.036	3.24
437.242	3.3
437.449	3.25
437.655	3.31
437.862	3.53
438.068	3.61
438.275	3.61
438.481	3.55
438.687	3.58
438.894	3.45
439.1	3.45
439.307	3.41
439.513	3.56
439.719	3.67
439.926	3.61
440.132	3.78
440.338	3.73
440.544	3.72
440.751	3.54
440.957	3.6
441.163	3.42
441.369	3.54
441.575	3.52
441.782	3.63
441.988	3.64
442.194	3.68
442.4	3.7
442.606	3.6
442.812	3.65
443.018	3.68
443.224	3.65
443.431	3.53
443.637	3.66
443.843	3.49
444.049	3.45
444.255	3.39
444.461	3.32
444.667	3.23
444.873	3.25
445.079	3.25
445.284	3.26
445.49	3.42
445.696	3.43
445.902	3.47
446.108	3.54
446.314	3.56
446.52	3.59
446.726	3.69
446.931	3.68
447.137	3.67
447.343	3.58
447.549	3.41
447.755	3.3
447.96	3.38
448.166	3.33
448.372	3.51
448.578	3.6
448.783	3.76
448.989	3.68
449.195	3.57
449.4	3.44
449.606	3.42
449.812	3.35
450.017	3.39
450.223	3.4
450.428	3.42
450.634	3.37
450.84	3.25
451.045	3.22
451.251	3.32
451.456	3.41
451.662	3.45
451.867	3.59
452.073	3.47
452.278	3.39
452.483	3.29
452.689	3.32
452.894	3.28
453.1	3.41
453.305	3.38
453.51	3.49
453.716	3.39
453.921	3.33
454.127	3.29
454.332	3.27
454.537	3.29
454.742	3.2
454.948	3.15
455.153	3.29
455.358	3.35
455.563	3.25
455.769	3.38
455.974	3.4
456.179	3.2
456.384	3.09
456.589	3.12
456.795	2.95
457	3.04
457.205	3.05
457.41	3.09
457.615	2.96
457.82	3.11
458.025	2.96
458.23	3.01
458.435	3
458.64	2.97
458.845	2.85
459.05	2.81
459.255	2.88
459.46	2.94
459.665	3.01
459.87	3.1
460.075	3.2
460.28	3.08
460.485	3.11
460.69	3.05
460.895	3.08
461.099	3.13
461.304	3.21
461.509	3.09
461.714	3.19
461.919	3.22
462.123	3.21
462.328	3.19
462.533	3.22
462.738	3.24
462.942	3.18
463.147	3.19
463.352	3.13
463.556	3.14
463.761	3.06
463.966	3.04
464.17	3.01
464.375	3.09
464.58	3.06
464.784	3.12
464.989	3.14
465.193	3.12
465.398	3.15
465.602	3.25
465.807	3.21
466.011	3.19
466.216	3.11
466.42	3.07
466.625	2.92
466.829	2.89
467.034	2.97
467.238	3.07
467.443	3.06
467.647	3.15
467.851	3.16
468.056	3.12
468.26	3.16
468.464	3.12
468.669	3.13
468.873	3.15
469.077	3.11
469.282	3.01
469.486	3.06
469.69	2.98
469.894	2.98
470.099	3.01
470.303	3.01
470.507	2.99
470.711	3.12
470.915	3.21
471.119	3.22
471.324	3.26
471.528	3.23
471.732	3.27
471.936	3.27
472.14	3.33
472.344	3.39
472.548	3.39
472.752	3.26
472.956	3.21
473.16	3.21
473.364	3.17
473.568	3.19
473.772	3.23
473.976	3.21
474.18	3.13
474.384	3.14
474.588	3.21
474.792	3.21
474.995	3.17
475.199	3.2
475.403	3.18
475.607	3.11
475.811	3.15
476.015	3.22
476.218	3.21
476.422	3.16
476.626	3.23
476.83	3.22
477.033	3.19
477.237	3.25
477.441	3.32
477.644	3.27
477.848	3.24
478.052	3.22
478.255	3.26
478.459	3.32
478.663	3.35
478.866	3.39
479.07	3.48
479.273	3.42
479.477	3.44
479.681	3.48
479.884	3.46
480.088	3.38
480.291	3.43
480.495	3.37
480.698	3.3
480.901	3.4
481.105	3.46
481.308	3.38
481.512	3.41
481.715	3.41
481.919	3.37
482.122	3.37
482.325	3.46
482.529	3.48
482.732	3.49
482.935	3.43
483.138	3.5
483.342	3.49
483.545	3.57
483.748	3.59
483.952	3.67
484.155	3.64
484.358	3.68
484.561	3.63
484.764	3.67
484.967	3.72
485.171	3.74
485.374	3.7
485.577	3.8
485.78	3.76
485.983	3.79
486.186	3.84
486.389	3.88
486.592	3.85
486.795	3.98
486.998	4.06
487.201	4.1
487.404	4.19
487.607	4.26
487.81	4.29
488.013	4.25
488.216	4.3
488.419	4.28
488.622	4.27
488.825	4.29
489.028	4.37
489.231	4.4
489.433	4.4
489.636	4.46
489.839	4.55
490.042	4.55
490.245	4.56
490.447	4.69
490.65	4.8
490.853	4.81
491.056	4.99
491.258	5.13
491.461	5.23
491.664	5.24
491.866	5.38
492.069	5.43
492.272	5.52
492.474	5.69
492.677	5.85
492.879	5.96
493.082	5.97
493.285	6.15
493.487	6.23
493.69	6.3
493.892	6.41
494.095	6.64
494.297	6.69
494.5	6.78
494.702	6.98
494.905	7.12
495.107	7.21
495.309	7.31
495.512	7.38
495.714	7.49
495.917	7.54
496.119	7.66
496.321	7.77
496.524	7.93
496.726	8.03
496.928	8.27
497.13	8.54
497.333	8.75
497.535	8.92
497.737	9.02
497.939	9.16
498.142	9.22
498.344	9.34
498.546	9.47
498.748	9.68
498.95	9.8
499.152	9.88
499.355	9.88
499.557	10.02
499.759	10.14
499.961	10.29
500.163	10.42
500.365	10.59
500.567	10.69
500.769	10.73
500.971	10.73
501.173	10.85
501.375	10.98
501.577	11.05
501.779	11.19
501.981	11.31
502.183	11.36
502.385	11.35
502.587	11.33
502.788	11.38
502.99	11.34
503.192	11.32
503.394	11.38
503.596	11.46
503.798	11.45
503.999	11.53
504.201	11.54
504.403	11.46
504.605	11.42
504.806	11.34
505.008	11.33
505.21	11.24
505.411	11.24
505.613	11.22
505.815	11.26
506.016	11.17
506.218	11.24
506.42	11.18
506.621	11.14
506.823	11.05
507.024	10.98
507.226	10.92
507.427	10.92
507.629	10.84
507.83	10.74
508.032	10.65
508.233	10.52
508.435	10.5
508.636	10.57
508.838	10.55
509.039	10.55
509.24	10.51
509.442	10.43
509.643	10.25
509.845	10.12
510.046	10.06
510.247	10.02
510.448	9.93
510.65	9.88
510.851	9.79
511.052	9.7
511.254	9.67
511.455	9.64
511.656	9.59
511.857	9.59
512.058	9.49
512.26	9.42
512.461	9.34
512.662	9.21
512.863	9.12
513.064	9.1
513.265	8.97
513.466	8.92
513.667	8.92
513.868	8.91
514.069	8.9
514.27	8.85
514.471	8.84
514.672	8.82
514.873	8.75
515.074	8.68
515.275	8.71
515.476	8.62
515.677	8.48
515.878	8.46
516.079	8.42
516.28	8.32
516.481	8.25
516.682	8.3
516.882	8.29
517.083	8.27
517.284	8.27
517.485	8.25
517.686	8.17
517.886	8.14
518.087	8.1
518.288	8.09
518.488	8.05
518.689	8.05
518.89	7.98
519.091	7.96
519.291	7.9
519.492	7.89
519.692	7.93
519.893	7.97
520.094	7.88
520.294	7.88
520.495	7.89
520.695	7.86
520.896	7.79
521.096	7.82
521.297	7.86
521.497	7.78
521.698	7.73
521.898	7.73
522.099	7.75
522.299	7.7
522.499	7.7
522.7	7.7
522.9	7.71
523.101	7.65
523.301	7.59
523.501	7.63
523.702	7.61
523.902	7.55
524.102	7.56
524.302	7.56
524.503	7.54
524.703	7.55
524.903	7.56
525.103	7.57
525.304	7.62
525.504	7.6
525.704	7.56
525.904	7.58
526.104	7.57
526.304	7.54
526.504	7.54
526.705	7.57
526.905	7.62
527.105	7.56
527.305	7.51
527.505	7.51
527.705	7.51
527.905	7.44
528.105	7.42
528.305	7.45
528.505	7.41
528.705	7.46
528.905	7.44
529.105	7.54
529.304	7.53
529.504	7.56
529.704	7.51
529.904	7.56
530.104	7.54
530.304	7.55
530.503	7.55
530.703	7.5
530.903	7.54
531.103	7.52
531.303	7.6
531.502	7.64
531.702	7.71
531.902	7.66
532.101	7.62
532.301	7.61
532.501	7.58
532.7	7.57
532.9	7.54
533.1	7.61
533.299	7.62
533.499	7.65
533.698	7.68
533.898	7.72
534.097	7.75
534.297	7.76
534.496	7.75
534.696	7.78
534.895	7.79
535.095	7.82
535.294	7.75
535.494	7.75
535.693	7.77
535.892	7.78
536.092	7.79
536.291	7.82
536.491	7.88
536.69	7.91
536.889	7.95
537.088	7.88
537.288	7.93
537.487	7.96
537.686	7.95
537.886	8.04
538.085	8.1
538.284	8.09
538.483	8.13
538.682	8.17
538.882	8.11
539.081	8.15
539.28	8.18
539.479	8.15
539.678	8.14
539.877	8.14
540.076	8.13
540.275	8.17
540.474	8.21
540.673	8.2
540.872	8.29
541.071	8.3
541.27	8.29
541.469	8.27
541.668	8.26
541.867	8.22
542.066	8.22
542.265	8.28
542.464	8.32
542.663	8.36
542.862	8.44
543.06	8.5
543.259	8.49
543.458	8.54
543.657	8.64
543.856	8.69
544.054	8.72
544.253	8.69
544.452	8.68
544.651	8.58
544.849	8.45
545.048	8.5
545.247	8.59
545.445	8.59
545.644	8.67
545.843	8.81
546.041	8.86
546.24	8.84
546.438	8.96
546.637	8.99
546.836	8.98
547.034	9.01
547.233	9.1
547.431	9.08
547.63	9.2
547.828	9.23
548.027	9.23
548.225	9.22
548.423	9.27
548.622	9.23
548.82	9.34
549.019	9.38
549.217	9.39
549.415	9.45
549.614	9.47
549.812	9.42
550.01	9.5
550.209	9.65
550.407	9.67
550.605	9.79
550.803	9.88
551.002	9.89
551.2	9.92
551.398	9.96
551.596	9.97
551.794	10.02
551.993	10.05
552.191	10.03
552.389	10.06
552.587	10.12
552.785	10.17
552.983	10.24
553.181	10.37
553.379	10.48
553.577	10.58
553.775	10.69
553.973	10.74
554.171	10.77
554.369	10.77
554.567	10.85
554.765	10.87
554.963	10.96
555.161	11.04
555.359	11.19
555.557	11.24
555.755	11.29
555.952	11.33
556.15	11.37
556.348	11.38
556.546	11.4
556.744	11.52
556.941	11.58
557.139	11.67
557.337	11.82
557.535	11.91
557.732	11.94
557.93	12.07
558.128	12.12
558.325	12.22
558.523	12.34
558.721	12.43
558.918	12.52
559.116	12.71
559.313	12.76
559.511	12.85
559.708	13.04
559.906	13.14
560.104	13.2
560.301	13.24
560.498	13.31
560.696	13.33
560.893	13.47
561.091	13.55
561.288	13.77
561.486	13.86
561.683	14.02
561.88	14.06
562.078	14.13
562.275	14.15
562.473	14.34
562.67	14.37
562.867	14.51
563.064	14.56
563.262	14.65
563.459	14.78
563.656	14.87
563.853	14.95
564.051	15.1
564.248	15.23
564.445	15.24
564.642	15.38
564.839	15.47
565.036	15.66
565.234	15.74
565.431	15.84
565.628	15.87
565.825	15.91
566.022	15.97
566.219	16.07
566.416	16.11
566.613	16.28
566.81	16.42
567.007	16.45
567.204	16.44
567.401	16.54
567.598	16.57
567.795	16.6
567.991	16.73
568.188	16.95
568.385	17.04
568.582	17.11
568.779	17.29
568.976	17.35
569.172	17.39
569.369	17.46
569.566	17.57
569.763	17.49
569.96	17.56
570.156	17.56
570.353	17.64
570.55	17.71
570.746	17.89
570.943	17.97
571.14	18.08
571.336	18.17
571.533	18.16
571.729	18.17
571.926	18.22
572.123	18.32
572.319	18.34
572.516	18.51
572.712	18.52
572.909	18.5
573.105	18.52
573.302	18.55
573.498	18.45
573.695	18.51
573.891	18.55
574.087	18.52
574.284	18.57
574.48	18.6
574.677	18.55
574.873	18.69
575.069	18.77
575.266	18.78
575.462	18.87
575.658	18.98
575.854	18.96
576.051	18.99
576.247	18.94
576.443	19
576.639	19.08
576.835	19.05
577.032	19.01
577.228	19.09
577.424	19.05
577.62	18.97
577.816	19
578.012	19.03
578.208	19.05
578.404	18.99
578.6	19.09
578.796	19.1
578.993	19.1
579.189	19.06
579.384	19.17
579.58	19.09
579.776	19.05
579.972	19.02
580.168	19.04
580.364	18.92
580.56	18.91
580.756	18.95
580.952	18.89
581.148	18.92
581.343	18.99
581.539	18.93
581.735	18.91
581.931	18.99
582.127	18.94
582.322	18.88
582.518	18.86
582.714	18.87
582.909	18.85
583.105	18.76
583.301	18.81
583.496	18.82
583.692	18.71
583.888	18.58
584.083	18.6
584.279	18.56
584.474	18.5
584.67	18.48
584.866	18.47
585.061	18.47
585.257	18.41
585.452	18.4
585.648	18.38
585.843	18.43
586.039	18.41
586.234	18.36
586.429	18.29
586.625	18.3
586.82	18.27
587.015	18.26
587.211	18.26
587.406	18.37
587.601	18.36
587.797	18.35
587.992	18.36
588.187	18.4
588.383	18.35
588.578	18.32
588.773	18.31
588.968	18.31
589.163	18.29
589.359	18.25
589.554	18.25
589.749	18.33
589.944	18.35
590.139	18.42
590.334	18.44
590.529	18.51
590.724	18.44
590.919	18.49
591.114	18.45
591.309	18.49
591.504	18.47
591.699	18.6
591.894	18.51
592.089	18.53
592.284	18.64
592.479	18.67
592.674	18.67
592.869	18.78
593.064	18.89
593.259	18.93
593.454	18.98
593.648	19
593.843	18.99
594.038	18.99
594.233	19.05
594.428	19.22
594.622	19.29
594.817	19.38
595.012	19.49
595.206	19.47
595.401	19.53
595.596	19.65
595.79	19.71
595.985	19.71
596.18	19.82
596.374	19.84
596.569	19.79
596.763	19.88
596.958	19.97
597.153	20.01
597.347	20.03
597.542	20.2
597.736	20.21
597.931	20.33
598.125	20.55
598.319	20.66
598.514	20.67
598.708	20.7
598.903	20.72
599.097	20.69
599.291	20.75
599.486	20.83
599.68	20.93
599.874	21.02
600.069	21.07
600.263	21.15
600.457	21.16
600.651	21.26
600.846	21.26
601.04	21.24
601.234	21.17
601.428	21.25
601.622	21.24
601.817	21.28
602.011	21.35
602.205	21.4
602.399	21.39
602.593	21.39
602.787	21.38
602.981	21.34
603.175	21.48
603.369	21.5
603.563	21.58
603.757	21.61
603.951	21.64
604.145	21.41
604.339	21.41
604.533	21.34
604.727	21.29
604.921	21.32
605.115	21.37
605.309	21.29
605.502	21.32
605.696	21.33
605.89	21.21
606.084	21.17
606.278	21.17
606.471	21.06
606.665	20.95
606.859	20.88
607.053	20.93
607.246	20.9
607.44	20.8
607.634	20.76
607.827	20.7
608.021	20.5
608.214	20.31
608.408	20.24
608.602	20.21
608.795	20.18
608.989	20.15
609.182	20.18
609.376	20.08
609.569	19.98
609.763	19.93
609.956	19.9
610.15	19.76
610.343	19.86
610.537	19.77
610.73	19.67
610.923	19.6
611.117	19.55
611.31	19.35
611.504	19.33
611.697	19.23
611.89	19.1
612.083	18.91
612.277	18.81
612.47	18.69
612.663	18.59
612.856	18.46
613.05	18.47
613.243	18.39
613.436	18.29
613.629	18.17
613.822	18.17
614.015	18.08
614.209	18.04
614.402	17.84
614.595	17.92
614.788	17.82
614.981	17.72
615.174	17.64
615.367	17.7
615.56	17.51
615.753	17.41
615.946	17.36
616.139	17.34
616.332	17.31
616.525	17.23
616.718	17.18
616.911	17.24
617.103	17.17
617.296	17.05
617.489	16.97
617.682	16.98
617.875	16.83
618.067	16.64
618.26	16.59
618.453	16.47
618.646	16.36
618.838	16.32
619.031	16.38
619.224	16.43
619.417	16.49
619.609	16.4
619.802	16.3
619.994	16.25
620.187	16.04
620.38	16.03
620.572	15.99
620.765	15.99
620.957	16.03
621.15	16.13
621.342	16.08
621.535	16.1
621.727	16.07
621.92	15.92
622.112	15.77
622.305	15.74
622.497	15.62
622.69	15.57
622.882	15.6
623.074	15.7
623.267	15.65
623.459	15.67
623.651	15.6
623.844	15.61
624.036	15.44
624.228	15.43
624.42	15.44
624.613	15.44
624.805	15.33
624.997	15.38
625.189	15.3
625.381	15.27
625.574	15.23
625.766	15.25
625.958	15.21
626.15	15.22
626.342	15.15
626.534	15.11
626.726	15.03
626.918	15.05
627.11	14.97
627.302	14.97
627.494	14.95
627.686	14.9
627.878	14.74
628.07	14.77
628.262	14.68
628.454	14.58
628.646	14.52
628.838	14.61
629.029	14.66
629.221	14.62
629.413	14.62
629.605	14.65
629.797	14.49
629.989	14.35
630.18	14.39
630.372	14.4
630.564	14.42
630.755	14.46
630.947	14.49
631.139	14.41
631.33	14.4
631.522	14.31
631.714	14.22
631.905	14.14
632.097	14.04
632.289	13.91
632.48	13.86
632.672	13.87
632.863	13.84
633.055	13.92
633.246	13.95
633.438	13.97
633.629	13.87
633.821	13.85
634.012	13.85
634.203	13.84
634.395	13.82
634.586	13.99
634.777	13.96
634.969	13.91
635.16	13.87
635.351	13.77
635.543	13.68
635.734	13.79
635.925	13.76
636.117	13.71
636.308	13.68
636.499	13.6
636.69	13.52
636.881	13.46
637.073	13.47
637.264	13.54
637.455	13.52
637.646	13.5
637.837	13.54
638.028	13.49
638.219	13.52
638.41	13.56
638.601	13.5
638.792	13.42
638.983	13.48
639.174	13.34
639.365	13.29
639.556	13.33
639.747	13.32
639.938	13.35
640.129	13.39
640.32	13.47
640.511	13.37
640.701	13.36
640.892	13.22
641.083	13.19
641.274	13.05
641.465	13.01
641.655	13.06
641.846	13.08
642.037	12.99
642.228	12.97
642.418	12.84
642.609	12.7
642.8	12.67
642.99	12.68
643.181	12.68
643.372	12.78
643.562	12.78
643.753	12.71
643.943	12.73
644.134	12.64
644.324	12.6
644.515	12.55
644.705	12.48
644.896	12.43
645.086	12.43
645.277	12.46
645.467	12.52
645.658	12.56
645.848	12.55
646.038	12.54
646.229	12.53
646.419	12.5
646.61	12.49
646.8	12.46
646.99	12.49
647.18	12.39
647.371	12.37
647.561	12.26
647.751	12.26
647.941	12.18
648.132	12.17
648.322	12.18
648.512	12.18
648.702	12.22
648.892	12.19
649.082	12.21
649.272	12.13
649.462	12.17
649.653	12.06
649.843	12.07
650.033	11.97
650.223	11.96
650.413	11.91
650.603	12.02
650.793	12
650.983	11.96
651.172	11.98
651.362	11.86
651.552	11.75
651.742	11.74
651.932	11.77
652.122	11.69
652.312	11.73
652.502	11.64
652.691	11.58
652.881	11.46
653.071	11.46
653.261	11.46
653.45	11.36
653.64	11.32
653.83	11.32
654.019	11.18
654.209	11.03
654.399	10.98
654.588	10.88
654.778	10.75
654.968	10.7
655.157	10.61
655.347	10.53
655.536	10.35
655.726	10.24
655.915	10.18
656.105	10.09
656.294	10.06
656.484	9.94
656.673	9.85
656.863	9.69
657.052	9.57
657.241	9.36
657.431	9.34
657.62	9.23
657.809	8.97
657.999	8.83
658.188	8.72
658.377	8.54
658.567	8.39
658.756	8.33
658.945	8.23
659.134	8.07
659.324	8.09
659.513	7.98
659.702	7.91
659.891	7.74
660.08	7.62
660.269	7.33
660.458	7.13
660.648	7.07
660.837	7.01
661.026	7.02
661.215	6.94
661.404	6.95
661.593	6.67
661.782	6.56
661.971	6.38
662.16	6.35
662.349	6.2
662.538	6.21
662.726	6.19
662.915	6.07
663.104	5.91
663.293	5.89
663.482	5.85
663.671	5.56
663.86	5.55
664.048	5.54
664.237	5.39
664.426	5.26
664.615	5.28
664.803	5.15
664.992	5.17
665.181	5.19
665.369	5.17
665.558	5.15
665.747	5.16
665.935	4.98
666.124	5.02
666.312	4.98
666.501	5.03
666.69	4.99
666.878	5.02
667.067	4.89
667.255	4.93
667.444	4.84
667.632	4.94
667.82	4.95
668.009	4.95
668.197	4.93
668.386	4.96
668.574	4.89
668.762	4.8
668.951	4.87
669.139	4.89
669.327	4.85
669.516	4.95
669.704	4.98
669.892	5.03
670.08	5.03
670.269	5.07
670.457	5
670.645	5.16
670.833	5.07
671.021	5.05
671.21	5.06
671.398	5.06
671.586	5.04
671.774	5.1
671.962	5.06
672.15	5.14
672.338	5.27
672.526	5.29
672.714	5.38
672.902	5.49
673.09	5.59
673.278	5.62
673.466	5.63
673.654	5.75
673.842	5.88
674.03	5.83
674.218	5.89
674.405	6.05
674.593	5.97
674.781	6.06
674.969	6.03
675.157	5.97
675.344	5.95
675.532	6.02
675.72	5.93
675.908	6.11
676.095	6.2
676.283	6.28
676.471	6.4
676.658	6.62
676.846	6.65
677.033	6.82
677.221	6.94
677.409	7.07
677.596	7.09
677.784	7.22
677.971	7.31
678.159	7.37
678.346	7.28
678.534	7.34
678.721	7.38
678.909	7.46
679.096	7.43
679.283	7.59
679.471	7.57
679.658	7.6
679.846	7.6
680.033	7.69
680.22	7.88
680.408	8.06
680.595	8.25
680.782	8.29
680.969	8.5
681.157	8.45
681.344	8.38
681.531	8.48
681.718	8.6
681.905	8.55
682.093	8.65
682.28	8.83
682.467	8.92
682.654	8.99
682.841	9.14
683.028	9.24
683.215	9.54
683.402	9.59
683.589	9.81
683.776	10.15
683.963	10.26
684.15	10.4
684.337	10.7
684.524	10.93
684.711	11.03
684.898	11.27
685.085	11.39
685.271	11.6
685.458	11.82
685.645	11.98
685.832	12.17
686.019	12.35
686.205	12.55
686.392	12.75
686.579	12.99
686.766	13.38
686.952	13.82
687.139	14.14
687.326	14.51
687.512	14.96
687.699	15.29
687.886	15.65
688.072	15.89
688.259	16.14
688.445	16.39
688.632	16.73
688.818	17.2
689.005	17.67
689.191	17.99
689.378	18.47
689.564	19.14
689.751	19.49
689.937	20.01
690.124	20.77
690.31	21.39
690.496	21.79
690.683	22.5
690.869	23.25
691.055	23.76
691.242	24.32
691.428	25.03
691.614	25.43
691.8	25.94
691.987	26.95
692.173	27.68
692.359	28.33
692.545	29.11
692.731	29.79
692.918	30.33
693.104	31.02
693.29	31.79
693.476	32.55
693.662	33.51
693.848	34.28
694.034	34.96
694.22	35.92
694.406	36.72
694.592	37.42
694.778	38.14
694.964	39.15
695.15	39.76
695.336	40.32
695.522	41.08
695.708	41.94
695.894	42.84
696.08	43.42
696.265	44.81
696.451	45.55
696.637	46.44
696.823	46.93
697.009	48.04
697.194	48.67
697.38	49.86
697.566	50.63
697.751	51.66
697.937	52.55
698.123	53.14
698.308	53.22
698.494	53.85
698.68	54.43
698.865	55.01
699.051	55.8
699.236	56.98
699.422	57.61
699.607	58.32
699.793	59.08
699.978	59.89
700.164	60.55
700.349	61.2
700.535	62.05
700.72	62.65
700.906	63.41
701.091	63.83
701.276	64.62
701.462	65.36
701.647	66.01
701.832	66.58
702.018	67.58
702.203	68.2
702.388	68.48
702.573	69.12
702.759	69.63
702.944	69.98
703.129	70.34
703.314	70.96
703.499	71.21
703.684	71.95
703.87	72.55
704.055	73.1
704.24	73.61
704.425	74.17
704.61	74.4
704.795	74.73
704.98	75.39
705.165	76.17
705.35	76.55
705.535	77.18
705.72	77.66
705.905	78.2
706.09	78.19
706.275	79.03
706.459	79.74
706.644	80.16
706.829	80.65
707.014	81.46
707.199	81.63
707.384	81.52
707.568	81.94
707.753	82.05
707.938	82.17
708.123	82.47
708.307	82.73
708.492	83.35
708.677	83.56
708.861	84.12
709.046	84.54
709.231	84.83
709.415	84.64
709.6	84.69
709.784	84.6
709.969	84.73
710.153	85.1
710.338	85.43
710.522	86.06
710.707	86.01
710.891	86.4
711.076	86.83
711.26	87.51
711.445	87.87
711.629	88.41
711.813	88.61
711.998	88.56
712.182	88.46
712.366	88.6
712.551	88.65
712.735	88.52
712.919	89
713.103	88.89
713.288	88.76
713.472	88.72
713.656	88.98
713.84	89.12
714.024	89.51
714.208	89.62
714.393	90.41
714.577	90.81
714.761	90.61
714.945	90.72
715.129	91.24
715.313	90.81
715.497	91.11
715.681	91.34
715.865	91.99
716.049	91.94
716.233	92.88
716.417	92.98
716.601	93.21
716.785	92.96
716.968	93.04
717.152	92.64
717.336	93
717.52	92.91
717.704	93.02
717.888	93.39
718.071	93.7
718.255	93.56
718.439	93.83
718.622	93.74
718.806	93.69
718.99	94.31
719.174	93.87
719.357	93.79
719.541	94.31
719.724	94.27
719.908	93.82
720.092	94.34
720.275	95.05
720.459	94.45
720.642	94.91
720.826	95.22
721.009	95.46
721.193	95.33
721.376	96.46
721.559	96.04
721.743	95.75
721.926	95.84
722.11	96.04
722.293	95.6
722.476	96.17
722.66	96.63
722.843	96.4
723.026	96.56
723.21	96.89
723.393	96.9
723.576	97
723.759	96.69
723.942	96.38
724.126	96.07
724.309	96.31
724.492	96.13
724.675	96.32
724.858	96.53
725.041	96.7
725.224	96.8
725.407	96.84
725.59	97.69
725.774	97.82
725.957	98.37
726.14	98.39
726.322	98.73
726.505	98.84
726.688	99.12
726.871	99
727.054	99.39
727.237	99.65
727.42	99.41
727.603	99.26
727.786	98.71
727.968	98.25
728.151	97.69
728.334	97.35
728.517	96.99
728.699	97.76
728.882	97.89
729.065	98.77
729.248	99.4
729.43	99.76
729.613	100.17
729.796	100.34
729.978	100.72
730.161	100.71
730.343	100.58
730.526	101.23
730.708	101.32
730.891	101.03
731.073	101.45
731.256	102.72
731.438	101.36
731.621	101.9
731.803	101.57
731.986	101.16
732.168	100.7
732.35	101.15
732.533	100.67
732.715	101.49
732.898	102.06
733.08	102.13
733.262	102
733.444	101.82
733.627	101.28
733.809	100.83
733.991	101.36
734.173	101.61
734.355	102.26
734.538	102.63
734.72	102.91
734.902	101.95
735.084	102.05
735.266	101.96
735.448	102.14
735.63	102.39
735.812	102.98
735.994	102.54
736.176	102.28
736.358	102.57
736.54	102.33
736.722	102.06
736.904	103.54
737.086	104.04
737.268	103.71
737.45	104.18
737.632	104.32
737.814	102.76
737.995	103.19
738.177	102.84
738.359	102.72
738.541	102.22
738.723	102.44
738.904	102.27
739.086	102.2
739.268	102.64
739.449	102.92
739.631	103.12
739.813	102.95
739.994	102.96
740.176	102.93
740.358	103.46
740.539	104.01
740.721	103.69
740.902	103.81
741.084	103.03
741.265	102.9
741.447	102.51
741.628	102.42
741.81	102.19
741.991	102.22
742.172	103
742.354	103.93
742.535	104.64
742.717	104.68
742.898	105.79
743.079	104.54
743.261	102.81
743.442	102.38
743.623	102.73
743.804	101.16
743.986	100.88
744.167	101.48
744.348	100.05
744.529	100
744.71	100.51
744.891	101.72
745.073	102.12
745.254	104.14
745.435	103.15
745.616	102.69
745.797	101.64
745.978	100.96
746.159	100.93
746.34	101.93
746.521	101.95
746.702	101.9
746.883	102.57
747.064	101.99
747.245	102.47
747.426	102.92
747.606	102.95
747.787	103.04
747.968	102.98
748.149	102.55
748.33	102.37
748.51	103.36
748.691	103.32
748.872	104.7
749.053	104.12
749.233	104.53
749.414	101.88
749.595	101.68
749.775	101.35
749.956	102.69
750.137	102.75
750.317	104.87
750.498	105.9
750.678	105.73
750.859	104.88
751.04	104.07
751.22	103.96
751.4	102.74
751.581	101.73
751.761	101.27
751.942	100.57
752.122	101.73
752.303	100.91
752.483	100.14
752.663	100.86
752.844	103.02
753.024	101.52
753.204	102.89
753.385	103.04
753.565	104.31
753.745	103.84
753.925	102.5
754.106	102.15
754.286	102.66
754.466	100.05
754.646	100.42
754.826	101.86
755.006	103.09
755.187	104.03
755.367	104.55
755.547	104.13
755.727	103.64
755.907	101.01
756.087	101.17
756.267	101.45
756.447	101.96
756.627	102.31
756.807	102.75
756.987	100.54
757.167	100.48
757.346	99.62
757.526	98.61
757.706	99.2
757.886	100.33
758.066	99.76
758.246	100.36
758.425	102.03
758.605	102.13
758.785	102.7
758.965	104
759.144	104.17
759.324	103.37
759.504	103.09
759.683	102.45
759.863	101.17
760.043	100.81
760.222	100.63
760.402	100.23
760.581	99.92
760.761	99.4
760.94	97.45
761.12	98.55
761.299	99.07
761.479	98.42
761.658	98.43
761.838	99.42
762.017	99.32
762.197	98.02
762.376	98.78
762.555	99.03
762.735	99.06
762.914	96.79
763.093	97.24
763.273	98.17
763.452	97.6
763.631	95.95
763.81	96.94
763.99	98.52
764.169	97.9
764.348	99.55
764.527	100.82
764.706	100.75
764.885	99.86
765.064	102.75
765.243	103.46
765.423	104.32
765.602	103.22
765.781	102.77
765.96	98.63
766.139	96.68
766.318	95.05
766.497	97.35
766.676	97.54
766.854	98.74
767.033	99.46
767.212	101.26
767.391	100.14
767.57	101.5
767.749	98.95
767.928	98.71
768.106	99.5
768.285	98.78
768.464	98.07
768.643	100.68
768.821	100.23
769	99.33
769.179	101.4
769.357	99.85
769.536	97.87
769.715	96.9
769.893	98.04
770.072	96.1
770.25	98.34
770.429	99.73
770.607	100.02
770.786	98.27
770.964	97.55
771.143	94.83
771.321	93.04
771.5	94.47
771.678	93.92
771.857	94.31
772.035	98.31
772.213	100.5
772.392	99.61
772.57	100.23
772.748	99.27
772.927	96.04
773.105	94.68
773.283	95.35
773.461	95.01
773.64	97.2
773.818	98.62
773.996	97.92
774.174	96.66
774.352	93.65
774.531	92.65
774.709	91.13
774.887	93.54
775.065	93.84
775.243	96.24
775.421	95.78
775.599	94
775.777	92.75
775.955	92.83
776.133	94.39
776.311	96.51
776.489	98.44
776.667	98.29
776.844	98.82
777.022	97.23
777.2	96.8
777.378	95.74
777.556	95.78
777.734	93.21
777.911	94.28
778.089	92.05
778.267	92.57
778.445	92.27
778.622	95.08
778.8	95.51
778.978	95.06
779.155	94.65
779.333	93.38
779.511	91.82
779.688	87.46
779.866	86.46
780.043	89.35
780.221	91.87
780.398	92.94
780.576	96.47
780.753	99.79
780.931	97.88
781.108	97.84
781.286	93.68
781.463	94.71
781.64	95.27
781.818	94.67
781.995	91.53
782.172	95.2
782.35	91.41
782.527	91.98
782.704	91.46
782.882	93.59
783.059	93.2
783.236	93.4
783.413	91.25
783.59	91.58
783.768	88.89
783.945	90.41
784.122	91.46
784.299	93.27
784.476	92.4
784.653	95.92
784.83	97.1
785.007	98.56
785.184	97.07
785.361	97.11
785.538	91.99
785.715	88.08
785.892	85.1
786.069	87.95
786.246	87.65
786.423	93.13
786.6	94.74
786.776	93.56
786.953	90.11
787.13	90.51
787.307	87.93
787.484	87.57
787.66	91.42
787.837	92.55
788.014	94.21
788.191	94.13
788.367	93.86
788.544	93.94
788.721	91.7
788.897	91.69
789.074	92.88
789.25	92.39
789.427	92.01
789.603	88.23
789.78	84.87
789.956	82.17
790.133	84.08
790.309	88.07
790.486	90.57
790.662	94.55
790.839	97.02
791.015	92.74
791.192	87.06
791.368	89.72
791.544	85.97
791.721	82.55
791.897	86.15
792.073	90.15
792.249	87.14
792.426	91.42
792.602	94.17
792.778	89.65
792.954	84.07
793.13	83.71
793.307	81.9
793.483	83.3
793.659	85.9
793.835	87
794.011	91.12
794.187	90.23
794.363	89.95
794.539	85.34
794.715	89.85
794.891	90.76
795.067	87.93
795.243	87.84
795.419	96.59
795.595	95.39
795.771	91.1
795.947	90.85
796.122	88.24
796.298	83.24
796.474	81.04
796.65	82.66
796.826	89.32
797.001	92.2
797.177	88.68
797.353	86.36
797.529	90.86
797.704	85.11
797.88	79.95
798.056	83.22
798.231	89.27
798.407	85
798.582	83.66
798.758	87.55
798.934	90.64
799.109	89.52
799.285	87.09
799.46	90.52
799.636	92.4
799.811	83.3
799.986	76.98
800.162	79.89
800.337	82.86
800.513	78.13
800.688	82.8
800.863	89.1
801.039	89.99
801.214	88.04
801.389	92.51
801.565	84.67
801.74	90.58
801.915	90.91
802.09	91.65
802.265	92
802.441	95.51
802.616	84.11
802.791	80.79
802.966	80.73
803.141	80.98
803.316	82.56
803.491	85.07
803.666	83.43
803.841	81.58
804.016	78.55
804.191	80.66
804.366	88.1
804.541	86.12
804.716	85.69
804.891	94.35
805.066	97.28
805.241	91.35
805.416	91.38
805.591	87.56
805.765	79.56
805.94	78.85
806.115	74.36
806.29	77.33
806.464	84.08
806.639	90.72
806.814	87.17
806.989	87.42
807.163	81.53
807.338	79.99
807.512	75.94
807.687	77.85
807.862	77.34
808.036	81.08
808.211	75.42
808.385	70.55
808.56	69.53
808.734	69.88
808.909	67.55
809.083	66.94
809.258	64.82
809.432	68.91
809.606	70.38
809.781	69.51
809.955	69.94
810.13	71.92
810.304	60.04
810.478	65.05
810.652	68.12
810.827	75.19
811.001	78.82
811.175	89.19
811.349	93.54
811.524	89.76
811.698	85.85
811.872	91.91
812.046	96.33
812.22	88.98
812.394	99.29
812.568	106.15
812.742	101.98
812.916	97.71
813.09	86.94
813.264	87.3
813.438	83.73
813.612	79.89
813.786	74.63
813.96	93.03
814.134	82.64
814.308	84.86
814.482	83.51
814.656	84.14
814.83	75.78
815.003	83.76
815.177	82.06
815.351	84.7
815.525	79.5
815.698	76.04
815.872	71.67
816.046	75.33
816.219	75.93
816.393	89.16
816.567	94.25
816.74	89.54
816.914	83.41
817.088	87.77
817.261	81.51
817.435	83.23
817.608	85.87
817.782	79.25
817.955	77.6
818.129	85.13
818.302	76.02
818.475	81.64
818.649	96.56
818.822	97.26
818.996	84.6
819.169	84.25
819.342	82.05
819.516	79.64
819.689	76.54
819.862	83.35
820.035	86.39
820.209	87.45
820.382	91.8
820.555	93.51
820.728	98.47
820.901	87.11
821.075	92.48
821.248	106.19
821.421	110.66
821.594	94.79
821.767	105.99
821.94	105.16
822.113	83.03
822.286	70.47
822.459	78.13
822.632	80.13
822.805	78.28
822.978	81.11
823.151	86.15
823.324	78.39
823.496	72.72
823.669	62.85
823.842	56.09
824.015	65
824.188	63.09
824.361	69.13
824.533	83.47
824.706	88.72
824.879	73
825.051	78.31
825.224	73.98
825.397	81.3
825.569	92.77
825.742	108.24
825.915	101.55
826.087	112.99
826.26	102.49
826.432	112.28
826.605	101.64
826.777	113.89
826.95	102.86
827.122	88.57
827.295	72.2
827.467	68.52
827.64	52.34
827.812	60.3
827.984	60.58
828.157	66.32
828.329	65.31
828.501	82.12
828.674	65.39
828.846	70.38
829.018	64.02
829.19	58.06
829.363	52.77
829.535	67.46
829.707	60.38
829.879	78.52
830.051	77.35
830.223	76.31
830.395	67.17
830.568	73.63
830.74	64.7
830.912	71.58
831.084	74.5
831.256	76.73
831.428	77.98
831.6	68.97
831.772	79.25
831.943	83.21
832.115	87.6
832.287	95.39
832.459	96
832.631	98.04
832.803	98.15
832.975	105.86
833.146	103.76
833.318	100.87
833.49	104.45
833.662	107.65
833.833	94.87
834.005	93.26
834.177	106.58
834.348	113.92
834.52	92.83
834.692	82.87
834.863	84.98
835.035	90.34
835.206	84.37
835.378	73.48
835.549	73.75
835.721	60.96
835.892	60.38
836.064	73.74
836.235	85.5
836.407	98.67
836.578	105.49
836.749	87.8
836.921	61.77
837.092	67.79
837.264	55.62
837.435	65.51
837.606	70.22
837.777	71.56
837.949	62.79
838.12	65.63
838.291	46.47
838.462	48.68
838.633	36.77
838.805	39.56
838.976	48.07
839.147	73.57
839.318	62.88
839.489	89.36
839.66	115.11
839.831	132.28
840.002	135.09
840.173	165.98
840.344	123.45
840.515	110.21
840.686	94.32
840.857	74.12
841.028	90.37
841.199	69.91
841.369	55.31
841.54	59.3
841.711	72.53
841.882	57.11
842.053	62.47
842.223	71.09
842.394	74.77
842.565	74.78
842.736	92.3
842.906	139.22
843.077	121.33
843.248	200.09
843.418	155.01
843.589	106.49
843.759	90.94
843.93	78.38
844.101	65.29
844.271	58.96
844.442	62.21
844.612	70.3
844.783	62.79
844.953	57.77
845.123	49.25
845.294	45.42
845.464	43.51
845.635	71.08
845.805	72.77
845.975	92.99
846.146	111.52
846.316	102.01
846.486	105.24
846.656	84.32
846.827	85.81
846.997	89.17
847.167	85.72
847.337	66.25
847.507	91.83
847.677	106.6
847.848	112.44
848.018	117.48
848.188	143.2
848.358	123.24
848.528	103.76
848.698	116.22
848.868	137.35
849.038	133.57
849.208	99.81
849.378	112.34
849.548	70.89
849.718	80.58
849.887	73.86
850.057	84.77
850.227	63.19
850.397	65.76
850.567	42.65
850.737	41.05
850.906	48.79
851.076	66.64
851.246	62.07
851.415	72.11
851.585	69.66
851.755	64.79
851.924	64.09
852.094	75.13
852.264	62.91
852.433	60.51
852.603	66.01
852.772	31.1
852.942	18.63
853.111	52.69
853.281	70.15
853.45	66.22
853.62	88.71
853.789	95.73
853.959	94.14
854.128	92.65
854.297	96.39
854.467	140.22
854.636	121.96
854.805	89.88
854.975	84.34
855.144	60.87
855.313	56.9
855.482	62.5
855.652	61.4
855.821	54.71
855.99	48.59
856.159	64.14
856.328	83.37
856.497	87.35
856.667	87.13
856.836	152.68
857.005	151.7
857.174	121.58
857.343	168.85
857.512	162.3
857.681	147.51
857.85	151
858.019	118.03
858.188	69.49
858.356	83.73
858.525	85.01
858.694	79.21
858.863	81.11
859.032	79.91
859.201	79.24
859.369	70.39
859.538	51.45
859.707	65.09
859.876	60.75
860.044	64.23
860.213	77.81
860.382	81
860.55	102.29
860.719	95.55
860.888	86.35
861.056	67.24
861.225	89.41
861.393	70.19
861.562	81.5
861.73	92.68
861.899	85.2
862.067	76.68
862.236	74.68
862.404	59.46
862.572	50.17
862.741	48.69
862.909	47.21
863.078	53.94
863.246	69.35
863.414	78.58
863.582	102.37
863.751	96.23
863.919	98.06
864.087	112.19
864.255	82.03
864.424	60.81
864.592	62.31
864.76	59.47
864.928	56.23
865.096	40.55
865.264	57.97
865.432	62.37
865.6	39.23
865.768	42.7
865.936	53.62
866.104	48.26
866.272	37.42
866.44	70.22
866.608	53.51
866.776	78.29
866.944	111.31
867.112	102.76
867.28	107.42
867.448	117.7
867.615	111.15
867.783	110.26
867.951	113.64
868.119	112.14
868.286	101.13
868.454	92.62
868.622	73.81
868.789	73.28
868.957	54.58
869.125	54.5
869.292	47.39
869.46	48.19
869.627	65.01
869.795	83.33
869.963	106.55
870.13	109.18
870.298	100.65
870.465	100.86
870.632	92.71
870.8	79.63
870.967	115.64
871.135	136.76
871.302	87.81
871.469	74.05
871.637	50.74
871.804	30.05
871.971	21.79
872.139	24.63
872.306	35.12
872.473	67
872.64	78.56
872.807	83.93
872.975	77.22
873.142	64.03
873.309	47.11
873.476	52.09
873.643	47.86
873.81	67.34
873.977	79.55
874.144	79.94
874.311	87.3
874.478	99.88
874.645	87.62
874.812	83.75
874.979	61.66
875.146	44.9
875.313	43.49
875.48	62.16
875.647	70.24
875.813	145.82
875.98	139.64
876.147	89.91
876.314	81.26
876.481	70.87
876.647	46.04
876.814	63.63
876.981	70.62
877.147	82.5
877.314	83.05
877.481	70.95
877.647	38.64
877.814	40.77
877.98	37.82
878.147	25.5
878.314	12.62
878.48	45.55
878.647	46.09
878.813	19.64
878.979	22.93
879.146	60.23
879.312	135.83
879.479	129.35
879.645	151.58
879.811	159.59
879.978	102.04
880.144	73.2
880.31	62.81
880.477	49.66
880.643	59.76
880.809	64.49
880.975	67.27
881.142	84.06
881.308	71.65
881.474	191.08
881.64	197.03
881.806	237.82
881.972	173.05
882.138	196.59
882.304	77.83
882.47	42.67
882.636	68.25
882.802	66.87
882.968	60.61
883.134	51.92
883.3	55.66
883.466	51.77
883.632	66.07
883.798	45.38
883.964	80.6
884.129	268.67
884.295	136.08
884.461	64.83
884.627	88.39
884.793	90.45
884.958	81.61
885.124	69.74
885.29	57.56
885.455	52.47
885.621	37.13
885.787	20.64
885.952	26.56
886.118	26.86
886.283	47.13
886.449	67.35
886.614	60.57
886.78	64.82
886.945	69.08
887.111	46.39
887.276	43.23
887.442	38.91
887.607	62.73
887.773	18.99
887.938	43.62
888.103	10.48
888.269	55.63
888.434	17.91
888.599	32.61
888.764	18.26
888.93	15.76
889.095	-9.69
889.26	38.04
889.425	62.21
889.59	66.81
889.756	54.93
889.921	49.22
890.086	19.7
890.251	16.56
890.416	25.46
890.581	-1.85
890.746	40.13
890.911	73.03
891.076	98.64
891.241	99.16
891.406	131.97
891.571	88.25
891.736	59.65
891.901	57.52
892.065	67.96
892.23	90.48
892.395	107.24
892.56	174.42
892.725	133.12
892.889	93.52
893.054	70.8
893.219	100.78
893.384	99.32
893.548	104.08
893.713	115.42
893.878	130.57
