Data from Ofav_PP_Phys_369_Reflection_3.txt Node
Date: Tue Jul 27 19:07:41 EDT 2021
User: USUARIO
Spectrometer: FLMT01687
Trigger mode: 0
Integration Time (sec): 8.500000E-1
Scans to average: 2
Electric dark correction enabled: true
Nonlinearity correction enabled: false
Boxcar width: 2
XAxis mode: Wavelengths
Number of Pixels in Spectrum: 3648
>>>>>Begin Spectral Data<<<<<
179.494	-1626.67
179.716	-551.61
179.937	-365.55
180.158	-326.48
180.38	-337.13
180.601	-250.53
180.823	40.37
181.044	67.39
181.265	40.46
181.486	14.81
181.708	27.33
181.929	28.64
182.15	73.02
182.372	120.21
182.593	51.17
182.814	88.81
183.035	95.86
183.257	72.47
183.478	68.97
183.699	60.43
183.92	65
184.141	62.16
184.363	67.65
184.584	78.35
184.805	100.59
185.026	65.59
185.247	70.2
185.468	53.85
185.689	36.64
185.91	4.14
186.132	7.72
186.353	16.94
186.574	25.84
186.795	5.57
187.016	20.59
187.237	24.31
187.458	31.63
187.679	30.56
187.9	24.77
188.121	25.1
188.342	34.18
188.563	-3.35
188.784	32.65
189.005	66.33
189.226	47.62
189.447	35.9
189.667	49.74
189.888	48.85
190.109	51.22
190.33	122.67
190.551	121.35
190.772	94.72
190.993	77.86
191.214	72.9
191.434	55.87
191.655	59.55
191.876	57.85
192.097	35.3
192.318	24.09
192.538	18.74
192.759	16.88
192.98	27.63
193.201	51.19
193.421	62.06
193.642	48.39
193.863	43.52
194.083	51.78
194.304	46.39
194.525	28.5
194.745	2.71
194.966	-34.17
195.187	-63.05
195.407	-48.1
195.628	17.18
195.848	49.3
196.069	69
196.29	77.02
196.51	28.21
196.731	8.06
196.951	5.34
197.172	-2.85
197.392	30.2
197.613	60.01
197.833	49.85
198.054	61.65
198.274	28.97
198.495	25.41
198.715	7.38
198.936	13.94
199.156	38.99
199.377	108.13
199.597	110.87
199.817	82.18
200.038	131.53
200.258	77.86
200.479	34.87
200.699	54.19
200.919	46.64
201.14	37.35
201.36	38.9
201.58	61.31
201.801	55.72
202.021	41.85
202.241	40.13
202.461	28.63
202.682	4.31
202.902	-16.33
203.122	30.87
203.342	44.64
203.563	49.49
203.783	33.32
204.003	38.33
204.223	28.22
204.443	26.06
204.663	39.34
204.884	85.13
205.104	58.11
205.324	55.1
205.544	58.83
205.764	38.28
205.984	33.09
206.204	60.97
206.424	68.22
206.644	56.12
206.864	60.41
207.084	47.07
207.304	48.41
207.525	43.55
207.745	47.79
207.964	59.37
208.184	56.19
208.404	42.09
208.624	55.19
208.844	55.65
209.064	55.4
209.284	72.25
209.504	72.01
209.724	60.9
209.944	66.46
210.164	61.33
210.384	32.09
210.604	69.62
210.823	74.02
211.043	60.17
211.263	53.94
211.483	57.26
211.703	60.14
211.922	44.47
212.142	68.06
212.362	60.62
212.582	66.62
212.801	49.33
213.021	50.62
213.241	24.13
213.461	8.51
213.68	0.93
213.9	-26.26
214.12	5.89
214.339	21.34
214.559	22.44
214.779	13.84
214.998	20.43
215.218	-2.53
215.438	4.58
215.657	27.57
215.877	26.94
216.096	35.01
216.316	49.71
216.535	37.87
216.755	21.08
216.974	49.04
217.194	52.15
217.413	48.79
217.633	48.43
217.852	45.89
218.072	30.96
218.291	14.5
218.511	17.18
218.73	32.96
218.95	29.95
219.169	41.03
219.389	46.08
219.608	56.32
219.827	32.46
220.047	29.41
220.266	34.47
220.485	45.79
220.705	48.62
220.924	56.93
221.143	50.3
221.363	37.51
221.582	39.65
221.801	20.31
222.021	27.56
222.24	49.32
222.459	58.48
222.678	67.62
222.897	66.5
223.117	87.88
223.336	54.11
223.555	37.83
223.774	25.93
223.993	45.14
224.213	30.32
224.432	55.6
224.651	80.55
224.87	67.47
225.089	47.37
225.308	51.38
225.527	46.53
225.746	27.35
225.965	22.7
226.184	10.46
226.404	0.86
226.623	-0.72
226.842	2.8
227.061	0.63
227.28	18.47
227.499	16.6
227.718	0.53
227.936	-4.78
228.155	24.03
228.374	26.71
228.593	32.34
228.812	48.5
229.031	49.83
229.25	46.72
229.469	32.74
229.688	18.95
229.907	-2.16
230.125	2.63
230.344	3.02
230.563	41.4
230.782	55.16
231.001	45.55
231.22	41.42
231.438	39.36
231.657	16.74
231.876	4.16
232.095	23.38
232.313	48.82
232.532	44.74
232.751	27.09
232.969	32.55
233.188	29.89
233.407	7.85
233.625	36.69
233.844	37.55
234.063	31.11
234.281	37.11
234.5	37.07
234.719	41.3
234.937	36.81
235.156	27.16
235.374	19.5
235.593	23.04
235.811	11.9
236.03	16.15
236.249	27.2
236.467	39.85
236.686	38.87
236.904	40.86
237.123	43.01
237.341	45.35
237.559	32.82
237.778	36.03
237.996	22.44
238.215	34.27
238.433	32.1
238.652	27.82
238.87	22.73
239.088	21.39
239.307	24.68
239.525	4.79
239.743	1.91
239.962	3.64
240.18	15.2
240.398	-1.87
240.617	13.74
240.835	36.1
241.053	38.59
241.271	38.72
241.49	62.55
241.708	61.09
241.926	33.69
242.144	16.07
242.363	6.37
242.581	15.16
242.799	16.86
243.017	9.97
243.235	29.41
243.453	33.04
243.672	40.79
243.89	31.66
244.108	49.31
244.326	52.56
244.544	38.77
244.762	19.02
244.98	51.33
245.198	30.35
245.416	25.04
245.634	56.63
245.852	89.22
246.07	41.72
246.288	55.14
246.506	58.11
246.724	44.37
246.942	36.22
247.16	45.92
247.378	55.98
247.596	50.41
247.814	40.84
248.032	33.45
248.25	35.39
248.468	22.14
248.685	17.26
248.903	19.2
249.121	36.4
249.339	46.31
249.557	49.34
249.775	26.2
249.992	13.05
250.21	-8.45
250.428	-27
250.646	-52.32
250.863	-19.35
251.081	11.44
251.299	30.31
251.517	32.31
251.734	72.75
251.952	39.66
252.17	36.87
252.387	23.08
252.605	47.83
252.823	26.17
253.04	60.83
253.258	68.53
253.475	68.86
253.693	62.43
253.911	88.01
254.128	63.91
254.346	50.75
254.563	44.24
254.781	33.05
254.998	14.68
255.216	5.39
255.433	14.05
255.651	33.82
255.868	30.62
256.086	19.07
256.303	7.16
256.521	14.94
256.738	10.9
256.956	-1.54
257.173	6.55
257.39	22.53
257.608	28.11
257.825	41.58
258.043	50.33
258.26	56.42
258.477	51.41
258.695	49.98
258.912	45.83
259.129	61.73
259.346	65.19
259.564	97.48
259.781	116.1
259.998	85.06
260.216	76.57
260.433	75.41
260.65	76.55
260.867	55.44
261.084	60.95
261.302	49.34
261.519	64.85
261.736	31.93
261.953	38.79
262.17	35.61
262.387	37.14
262.604	35.81
262.822	49.38
263.039	33.32
263.256	41.62
263.473	54.64
263.69	55.19
263.907	25.4
264.124	17.86
264.341	21.45
264.558	10.14
264.775	-10.74
264.992	17.98
265.209	26.49
265.426	25.9
265.643	27.48
265.86	16.26
266.077	3.86
266.294	21.46
266.51	34.67
266.727	36.4
266.944	46.06
267.161	0.15
267.378	-12.68
267.595	-15.97
267.812	-3.11
268.028	24.94
268.245	91.4
268.462	89.67
268.679	77.99
268.896	57.71
269.112	28.45
269.329	31.01
269.546	31.19
269.763	9.39
269.979	19.92
270.196	29.79
270.413	32.66
270.629	30.53
270.846	63.25
271.063	40.55
271.279	32.55
271.496	22.35
271.712	15.38
271.929	-17.2
272.146	-12.3
272.362	21.96
272.579	32.37
272.795	52.31
273.012	57.86
273.228	59.82
273.445	59.14
273.661	65.8
273.878	59.47
274.094	53.24
274.311	47.45
274.527	28.1
274.744	24.31
274.96	13.26
275.177	9.91
275.393	8.74
275.609	15.18
275.826	14.79
276.042	4.54
276.259	24.91
276.475	18.04
276.691	14.17
276.908	13.73
277.124	28.77
277.34	25.61
277.557	29.35
277.773	43.55
277.989	44.67
278.205	50.44
278.422	49.56
278.638	49.98
278.854	51.89
279.07	61.09
279.286	52.8
279.503	46.39
279.719	55.25
279.935	55.15
280.151	55.97
280.367	46.24
280.583	56.64
280.799	49.68
281.016	39.61
281.232	26.8
281.448	33.5
281.664	21.33
281.88	12.8
282.096	17.03
282.312	19.32
282.528	30
282.744	39.54
282.96	39.82
283.176	52.84
283.392	72.65
283.608	52.18
283.824	50.14
284.04	31.23
284.256	27.78
284.471	14.38
284.687	18.97
284.903	10.36
285.119	20.89
285.335	17.8
285.551	18.74
285.767	33.62
285.982	27.26
286.198	45.2
286.414	37.93
286.63	36.56
286.846	11.12
287.061	11.56
287.277	-6.73
287.493	-6.2
287.709	-1.73
287.924	8.27
288.14	27.56
288.356	55.27
288.571	68.6
288.787	57.98
289.003	62.77
289.218	54.59
289.434	31.35
289.65	19.56
289.865	18.37
290.081	24.5
290.296	36.54
290.512	43.26
290.727	56.8
290.943	82.7
291.159	104.92
291.374	81.74
291.59	62.17
291.805	48.58
292.021	46.55
292.236	54.67
292.451	48.41
292.667	53.26
292.882	34.99
293.098	31.9
293.313	20.87
293.529	34.84
293.744	29.82
293.959	40.06
294.175	41.42
294.39	36.16
294.605	38.49
294.821	40.86
295.036	38.94
295.251	42.74
295.467	41.55
295.682	26.74
295.897	27.01
296.112	45.63
296.328	46.81
296.543	52.09
296.758	49.92
296.973	62.73
297.188	70.94
297.404	60.07
297.619	58.12
297.834	59.88
298.049	44.66
298.264	32.41
298.479	38.29
298.694	34.65
298.909	20.14
299.125	30.75
299.34	26.31
299.555	38.28
299.77	36.04
299.985	41.48
300.2	29.07
300.415	20.42
300.63	-6.84
300.845	-3.44
301.06	-9.24
301.275	-17.11
301.49	6.34
301.704	-2.17
301.919	4.05
302.134	20.09
302.349	36.61
302.564	27.32
302.779	28.64
302.994	31.52
303.209	41.27
303.423	34.51
303.638	33.32
303.853	36.81
304.068	40.96
304.283	30.26
304.497	35.52
304.712	35.05
304.927	29.19
305.142	23.68
305.356	18.27
305.571	32.29
305.786	33.19
306	34.65
306.215	30.45
306.43	42.82
306.644	33.23
306.859	35.02
307.074	53.84
307.288	57.6
307.503	47.16
307.717	46.85
307.932	43.79
308.147	46.34
308.361	44.38
308.576	45.51
308.79	36.56
309.005	32.89
309.219	1.31
309.434	14.09
309.648	17.43
309.863	23.84
310.077	31.85
310.292	42.39
310.506	25.34
310.72	24.81
310.935	19.5
311.149	21.46
311.364	4.27
311.578	31.48
311.792	35.5
312.007	30.83
312.221	33.28
312.435	46.15
312.649	36.82
312.864	0.34
313.078	0.87
313.292	-8.06
313.507	1.55
313.721	14.74
313.935	33.27
314.149	23.88
314.363	19.37
314.578	16.86
314.792	12.28
315.006	23.68
315.22	32.74
315.434	35.06
315.648	33.54
315.862	31.06
316.077	54.38
316.291	46.79
316.505	49.5
316.719	49.77
316.933	59.79
317.147	29.37
317.361	37.68
317.575	21.32
317.789	8.83
318.003	-17.12
318.217	8.49
318.431	3.26
318.645	24.51
318.859	63.94
319.073	57.12
319.287	35.25
319.5	44.94
319.714	18.42
319.928	8.53
320.142	8.53
320.356	40.61
320.57	41.56
320.784	49.01
320.997	45.32
321.211	60.62
321.425	48.07
321.639	37.52
321.853	46.6
322.066	52.93
322.28	23.89
322.494	17.17
322.707	19.43
322.921	12.41
323.135	1.58
323.349	19.18
323.562	31.33
323.776	31.73
323.989	30.92
324.203	26.85
324.417	9.18
324.63	18.4
324.844	26.96
325.057	8.41
325.271	20.49
325.485	26.23
325.698	27.62
325.912	30.25
326.125	62.39
326.339	67.27
326.552	77.27
326.766	79.25
326.979	72.32
327.193	37.04
327.406	17.8
327.619	4.35
327.833	-8.59
328.046	11.79
328.26	26.25
328.473	24.31
328.686	38.33
328.9	50.49
329.113	26.53
329.326	45.28
329.54	60.81
329.753	66.71
329.966	57.52
330.179	73.46
330.393	54.72
330.606	30.3
330.819	27.4
331.032	17.73
331.246	23.16
331.459	24.68
331.672	40.16
331.885	33.05
332.098	46.33
332.311	39.52
332.525	31.74
332.738	17.98
332.951	29.72
333.164	29.23
333.377	14.51
333.59	22.95
333.803	29.81
334.016	13.95
334.229	10.71
334.442	44.48
334.655	50.05
334.868	52.78
335.081	51.54
335.294	54.54
335.507	46.85
335.72	35.81
335.933	16.58
336.146	23.24
336.359	16.96
336.572	22.69
336.785	30.9
336.997	58.48
337.21	78.35
337.423	71.53
337.636	33.84
337.849	31.53
338.062	18.9
338.274	24.73
338.487	40.26
338.7	44.14
338.913	47.11
339.125	59.3
339.338	38.26
339.551	13.11
339.763	31
339.976	28.12
340.189	14.98
340.402	9.66
340.614	5.8
340.827	8.49
341.039	-7.35
341.252	-7.33
341.465	6.39
341.677	42.01
341.89	7.42
342.102	16.88
342.315	32.39
342.527	33.55
342.74	19.24
342.952	13.45
343.165	37.84
343.377	37.18
343.59	24.13
343.802	27.01
344.015	40.77
344.227	10.19
344.44	-25.57
344.652	-5.81
344.864	1.12
345.077	-6.77
345.289	-5.11
345.502	0.69
345.714	7.78
345.926	-6.44
346.139	9.8
346.351	19.49
346.563	14.64
346.775	10.19
346.988	24.66
347.2	30.69
347.412	36.96
347.624	38.02
347.837	30.06
348.049	15.78
348.261	2.87
348.473	9.39
348.685	22.85
348.897	29.34
349.11	28.58
349.322	39.72
349.534	34.63
349.746	38.17
349.958	44.81
350.17	64.68
350.382	58.46
350.594	41.58
350.806	35.09
351.018	32.39
351.23	23.16
351.442	15.39
351.654	47.19
351.866	39.28
352.078	29.93
352.29	23.08
352.502	25.03
352.714	20.85
352.926	18.19
353.138	28.25
353.35	28.22
353.561	26.72
353.773	33.54
353.985	33.15
354.197	14.26
354.409	21.68
354.621	18.48
354.832	15.59
355.044	22.54
355.256	33.55
355.468	30.88
355.679	40.48
355.891	45.68
356.103	46.52
356.314	36.39
356.526	51.93
356.738	53.27
356.949	49.2
357.161	50.78
357.373	56.81
357.584	49.35
357.796	50.96
358.008	53.95
358.219	52.88
358.431	48.25
358.642	42.4
358.854	37.93
359.065	26.5
359.277	27.43
359.488	35.15
359.7	26.35
359.911	35.4
360.123	43.51
360.334	40.5
360.546	30.5
360.757	36.34
360.969	30.26
361.18	22.11
361.391	20.99
361.603	23.49
361.814	16.23
362.025	22.49
362.237	35.61
362.448	28.25
362.659	16.49
362.871	31.76
363.082	27.24
363.293	26.91
363.504	35.85
363.716	44.7
363.927	24.95
364.138	15.32
364.349	0.3
364.56	-2.57
364.772	4.14
364.983	15.18
365.194	13.41
365.405	20.78
365.616	16.94
365.827	24.24
366.038	26.6
366.25	28.27
366.461	15.84
366.672	25.97
366.883	10.25
367.094	19.8
367.305	22.26
367.516	29.34
367.727	37.7
367.938	51.46
368.149	45.83
368.36	46.94
368.571	46.43
368.781	33.71
368.992	23.26
369.203	14.54
369.414	16
369.625	17.04
369.836	18.91
370.047	25.26
370.258	26.81
370.468	28.23
370.679	11.19
370.89	-1.04
371.101	-4
371.312	-0.7
371.522	-7.1
371.733	2.29
371.944	12.28
372.155	19.47
372.365	9.53
372.576	17.02
372.787	26.14
372.997	40.78
373.208	30.17
373.419	36.1
373.629	38.72
373.84	30.55
374.05	4.94
374.261	9.28
374.472	13.53
374.682	2.95
374.893	11.42
375.103	26.19
375.314	37.03
375.524	43.44
375.735	35.37
375.945	35.86
376.156	35.03
376.366	21.49
376.577	10.1
376.787	13.12
376.997	12.85
377.208	13.23
377.418	13.09
377.629	9.84
377.839	22.16
378.049	23.02
378.26	18.05
378.47	27.98
378.68	40.94
378.89	29.71
379.101	19.84
379.311	14.08
379.521	3
379.732	3.14
379.942	29.35
380.152	33.04
380.362	46.61
380.572	46.44
380.783	36.1
380.993	11
381.203	13.99
381.413	-3.2
381.623	7.03
381.833	6.53
382.043	19.47
382.253	18.57
382.463	27.69
382.674	28.35
382.884	31.9
383.094	13.25
383.304	19.3
383.514	17.67
383.724	6.94
383.934	10.51
384.144	11.57
384.353	13.53
384.563	18.19
384.773	22.93
384.983	17.44
385.193	24.56
385.403	19.24
385.613	19.65
385.823	16.46
386.033	18.47
386.242	18.31
386.452	16.35
386.662	16.8
386.872	18.1
387.082	15.3
387.291	5.36
387.501	3.97
387.711	1.83
387.921	3.72
388.13	9.65
388.34	17.04
388.55	19.58
388.759	15.16
388.969	13.02
389.179	11.39
389.388	13.07
389.598	15.5
389.807	16.1
390.017	16.4
390.227	16.56
390.436	12.53
390.646	9.25
390.855	7.45
391.065	4.35
391.274	3.75
391.484	3.21
391.693	3.44
391.903	6.21
392.112	9.11
392.322	7.82
392.531	8.94
392.74	8.12
392.95	7.86
393.159	6.75
393.369	6.11
393.578	6.74
393.787	6.5
393.997	5.96
394.206	7.26
394.415	7.91
394.625	6.73
394.834	6.63
395.043	7.26
395.252	7.23
395.462	7.45
395.671	7
395.88	7.78
396.089	7.73
396.298	7.1
396.508	6.96
396.717	7.52
396.926	7.02
397.135	6.52
397.344	6.63
397.553	6.36
397.762	6.31
397.971	6.1
398.181	6.06
398.39	5.7
398.599	5.91
398.808	5.99
399.017	6.2
399.226	6.49
399.435	6.67
399.644	6.92
399.853	6.81
400.062	6.76
400.27	6.11
400.479	5.58
400.688	5.33
400.897	5.48
401.106	5.67
401.315	6.32
401.524	6.86
401.733	6.73
401.941	6.59
402.15	6.33
402.359	5.97
402.568	5.74
402.777	5.53
402.985	5.33
403.194	5.54
403.403	5.62
403.612	5.58
403.82	5.66
404.029	5.67
404.238	5.45
404.446	5.43
404.655	5.46
404.864	5.46
405.072	5.59
405.281	5.63
405.489	5.45
405.698	5.43
405.906	5.48
406.115	5.15
406.324	4.95
406.532	4.86
406.741	4.79
406.949	4.81
407.158	4.95
407.366	4.99
407.574	5.28
407.783	5.18
407.991	5.12
408.2	5.13
408.408	5.25
408.617	5.03
408.825	5
409.033	4.94
409.242	4.92
409.45	4.83
409.658	4.94
409.867	5.05
410.075	5.08
410.283	5.02
410.491	4.98
410.7	4.8
410.908	4.67
411.116	4.68
411.324	4.57
411.533	4.55
411.741	4.43
411.949	4.39
412.157	4.38
412.365	4.6
412.573	4.54
412.781	4.65
412.99	4.76
413.198	4.8
413.406	4.75
413.614	4.79
413.822	4.83
414.03	4.81
414.238	4.67
414.446	4.64
414.654	4.58
414.862	4.58
415.07	4.56
415.278	4.58
415.486	4.52
415.694	4.45
415.902	4.39
416.109	4.49
416.317	4.55
416.525	4.4
416.733	4.53
416.941	4.52
417.149	4.34
417.357	4.32
417.564	4.37
417.772	4.37
417.98	4.5
418.188	4.66
418.395	4.56
418.603	4.59
418.811	4.63
419.019	4.46
419.226	4.39
419.434	4.5
419.642	4.62
419.849	4.56
420.057	4.65
420.265	4.77
420.472	4.74
420.68	4.68
420.887	4.78
421.095	4.76
421.302	4.68
421.51	4.46
421.717	4.46
421.925	4.26
422.132	4.22
422.34	4.04
422.547	4.17
422.755	4.15
422.962	4.23
423.17	4.45
423.377	4.63
423.585	4.69
423.792	4.83
423.999	4.71
424.207	4.55
424.414	4.39
424.621	4.37
424.829	4.11
425.036	4.33
425.243	4.32
425.451	4.37
425.658	4.21
425.865	4.34
426.072	4.21
426.28	4.12
426.487	4.21
426.694	4.27
426.901	4.19
427.108	4.29
427.315	4.17
427.523	3.98
427.73	3.88
427.937	3.86
428.144	3.81
428.351	3.93
428.558	4.17
428.765	4.38
428.972	4.35
429.179	4.31
429.386	4.23
429.593	4.01
429.8	3.94
430.007	3.97
430.214	3.93
430.421	3.98
430.628	4.07
430.835	4.04
431.042	4.06
431.249	4.17
431.456	4.18
431.662	4.19
431.869	4.36
432.076	4.42
432.283	4.42
432.49	4.5
432.697	4.51
432.903	4.37
433.11	4.5
433.317	4.45
433.524	4.26
433.73	4.24
433.937	4.21
434.144	4.06
434.35	4.08
434.557	4.19
434.764	4.23
434.97	4.22
435.177	4.29
435.384	4.06
435.59	4.11
435.797	4.09
436.003	4.13
436.21	3.92
436.416	4.02
436.623	3.85
436.829	3.72
437.036	3.7
437.242	3.94
437.449	3.98
437.655	4.14
437.862	4.36
438.068	4.36
438.275	4.28
438.481	4.28
438.687	4.32
438.894	4.2
439.1	4.16
439.307	4.05
439.513	4.09
439.719	4.08
439.926	3.99
440.132	4.16
440.338	4.12
440.544	4.01
440.751	3.91
440.957	4.07
441.163	3.84
441.369	3.97
441.575	3.94
441.782	3.98
441.988	3.86
442.194	4
442.4	4.05
442.606	4.15
442.812	4.09
443.018	4.07
443.224	3.93
443.431	3.74
443.637	3.77
443.843	3.73
444.049	3.81
444.255	3.87
444.461	3.87
444.667	3.78
444.873	3.78
445.079	3.84
445.284	3.94
445.49	4.06
445.696	4.07
445.902	4.17
446.108	4.1
446.314	4.08
446.52	4.09
446.726	4.16
446.931	4.09
447.137	4.05
447.343	3.88
447.549	3.77
447.755	3.64
447.96	3.73
448.166	3.75
448.372	3.89
448.578	3.9
448.783	3.99
448.989	3.95
449.195	3.9
449.4	3.9
449.606	3.97
449.812	3.98
450.017	3.96
450.223	4.07
450.428	3.91
450.634	3.88
450.84	3.83
451.045	3.88
451.251	3.82
451.456	3.96
451.662	3.99
451.867	4.06
452.073	3.99
452.278	4.01
452.483	3.95
452.689	3.99
452.894	4.05
453.1	4.06
453.305	4.06
453.51	4.1
453.716	4
453.921	3.89
454.127	3.97
454.332	3.94
454.537	4.02
454.742	3.9
454.948	3.87
455.153	3.86
455.358	3.88
455.563	3.88
455.769	4.01
455.974	4.01
456.179	3.96
456.384	3.85
456.589	3.82
456.795	3.75
457	3.76
457.205	3.69
457.41	3.79
457.615	3.7
457.82	3.79
458.025	3.8
458.23	3.89
458.435	3.82
458.64	3.79
458.845	3.77
459.05	3.77
459.255	3.87
459.46	3.89
459.665	3.96
459.87	3.99
460.075	4.05
460.28	3.97
460.485	4.05
460.69	4.07
460.895	4.04
461.099	4.05
461.304	4.05
461.509	3.98
461.714	3.97
461.919	4
462.123	4.02
462.328	3.97
462.533	3.98
462.738	3.99
462.942	3.92
463.147	3.92
463.352	3.88
463.556	3.9
463.761	3.86
463.966	3.89
464.17	3.96
464.375	3.93
464.58	3.91
464.784	4
464.989	4.03
465.193	3.98
465.398	4.06
465.602	4.13
465.807	4.08
466.011	4.09
466.216	4.03
466.42	4.21
466.625	4.16
466.829	4.11
467.034	4.22
467.238	4.28
467.443	4.19
467.647	4.15
467.851	4.2
468.056	3.99
468.26	3.99
468.464	3.96
468.669	3.95
468.873	3.93
469.077	3.94
469.282	3.9
469.486	3.89
469.69	3.85
469.894	3.84
470.099	3.87
470.303	3.9
470.507	3.82
470.711	4.04
470.915	4.11
471.119	4.23
471.324	4.26
471.528	4.26
471.732	4.17
471.936	4.18
472.14	4.06
472.344	4.05
472.548	4.15
472.752	4.08
472.956	4.06
473.16	4.15
473.364	4.09
473.568	4.07
473.772	4.09
473.976	4.05
474.18	3.98
474.384	4.08
474.588	4.07
474.792	4.07
474.995	4.01
475.199	4.03
475.403	3.93
475.607	3.93
475.811	3.94
476.015	3.95
476.218	3.94
476.422	3.95
476.626	3.95
476.83	3.99
477.033	4.06
477.237	4.05
477.441	4.1
477.644	4.12
477.848	4
478.052	3.97
478.255	4.01
478.459	3.95
478.663	3.89
478.866	3.92
479.07	3.95
479.273	4.01
479.477	4.04
479.681	4.17
479.884	4.2
480.088	4.16
480.291	4.17
480.495	4.14
480.698	4.05
480.901	4.07
481.105	4.19
481.308	4.09
481.512	4.08
481.715	4.05
481.919	4
482.122	3.84
482.325	3.83
482.529	3.84
482.732	3.89
482.935	3.92
483.138	4.01
483.342	3.98
483.545	4
483.748	3.95
483.952	3.91
484.155	3.87
484.358	3.94
484.561	3.92
484.764	3.92
484.967	3.96
485.171	3.98
485.374	3.96
485.577	3.95
485.78	3.99
485.983	3.92
486.186	3.84
486.389	3.8
486.592	3.76
486.795	3.8
486.998	3.81
487.201	3.87
487.404	3.95
487.607	4.01
487.81	3.96
488.013	4
488.216	4.08
488.419	3.95
488.622	3.88
488.825	3.85
489.028	3.83
489.231	3.71
489.433	3.77
489.636	3.82
489.839	3.84
490.042	3.84
490.245	3.82
490.447	3.83
490.65	3.81
490.853	3.78
491.056	3.84
491.258	3.91
491.461	3.87
491.664	3.85
491.866	3.89
492.069	3.81
492.272	3.76
492.474	3.83
492.677	3.9
492.879	3.86
493.082	3.82
493.285	3.9
493.487	3.86
493.69	3.8
493.892	3.82
494.095	3.94
494.297	3.9
494.5	3.97
494.702	3.93
494.905	3.94
495.107	3.91
495.309	3.93
495.512	3.86
495.714	3.89
495.917	3.87
496.119	3.81
496.321	3.79
496.524	3.82
496.726	3.87
496.928	3.88
497.13	3.94
497.333	4.02
497.535	4.03
497.737	4.01
497.939	4.08
498.142	4.08
498.344	4.04
498.546	4.04
498.748	4.11
498.95	4.05
499.152	4.07
499.355	4
499.557	3.92
499.759	3.9
499.961	3.95
500.163	3.96
500.365	4.06
500.567	4.12
500.769	4.07
500.971	4.05
501.173	4.07
501.375	4.09
501.577	4.14
501.779	4.2
501.981	4.25
502.183	4.26
502.385	4.16
502.587	4.05
502.788	4.05
502.99	4.06
503.192	3.99
503.394	4.01
503.596	4.11
503.798	4.14
503.999	4.15
504.201	4.18
504.403	4.23
504.605	4.21
504.806	4.17
505.008	4.14
505.21	4.11
505.411	3.99
505.613	3.96
505.815	3.99
506.016	4.02
506.218	4.08
506.42	4.12
506.621	4.18
506.823	4.14
507.024	4.06
507.226	4.15
507.427	4.15
507.629	4.08
507.83	4.04
508.032	4
508.233	3.93
508.435	3.98
508.636	4.02
508.838	4.02
509.039	4.05
509.24	4.02
509.442	3.98
509.643	3.94
509.845	3.96
510.046	4.02
510.247	4.01
510.448	4.03
510.65	4.08
510.851	4.12
511.052	4.08
511.254	4.13
511.455	4.17
511.656	4.19
511.857	4.12
512.058	4.11
512.26	4.11
512.461	4.09
512.662	4.03
512.863	4.01
513.064	4
513.265	3.95
513.466	3.96
513.667	4.03
513.868	4.06
514.069	4.13
514.27	4.12
514.471	4.12
514.672	4.07
514.873	4.12
515.074	4.13
515.275	4.16
515.476	4.09
515.677	4.09
515.878	4.05
516.079	4
516.28	4.01
516.481	4.07
516.682	4.15
516.882	4.16
517.083	4.14
517.284	4.16
517.485	4.13
517.686	4.1
517.886	4.09
518.087	4.07
518.288	4.06
518.488	4.08
518.689	4.07
518.89	4.09
519.091	4.18
519.291	4.23
519.492	4.22
519.692	4.22
519.893	4.27
520.094	4.2
520.294	4.16
520.495	4.21
520.695	4.25
520.896	4.17
521.096	4.22
521.297	4.27
521.497	4.23
521.698	4.13
521.898	4.15
522.099	4.19
522.299	4.15
522.499	4.18
522.7	4.2
522.9	4.24
523.101	4.16
523.301	4.16
523.501	4.14
523.702	4.19
523.902	4.15
524.102	4.2
524.302	4.2
524.503	4.21
524.703	4.22
524.903	4.24
525.103	4.23
525.304	4.2
525.504	4.19
525.704	4.19
525.904	4.19
526.104	4.14
526.304	4.18
526.504	4.12
526.705	4.1
526.905	4.14
527.105	4.17
527.305	4.18
527.505	4.2
527.705	4.23
527.905	4.15
528.105	4.14
528.305	4.16
528.505	4.17
528.705	4.15
528.905	4.12
529.105	4.18
529.304	4.18
529.504	4.2
529.704	4.19
529.904	4.28
530.104	4.26
530.304	4.21
530.503	4.22
530.703	4.23
530.903	4.21
531.103	4.22
531.303	4.28
531.502	4.34
531.702	4.3
531.902	4.27
532.101	4.21
532.301	4.21
532.501	4.15
532.7	4.22
532.9	4.25
533.1	4.29
533.299	4.27
533.499	4.27
533.698	4.21
533.898	4.22
534.097	4.25
534.297	4.25
534.496	4.23
534.696	4.25
534.895	4.22
535.095	4.24
535.294	4.25
535.494	4.21
535.693	4.24
535.892	4.3
536.092	4.3
536.291	4.27
536.491	4.35
536.69	4.33
536.889	4.27
537.088	4.21
537.288	4.25
537.487	4.28
537.686	4.3
537.886	4.39
538.085	4.42
538.284	4.43
538.483	4.39
538.682	4.46
538.882	4.41
539.081	4.42
539.28	4.48
539.479	4.47
539.678	4.45
539.877	4.47
540.076	4.51
540.275	4.44
540.474	4.42
540.673	4.4
540.872	4.37
541.071	4.37
541.27	4.38
541.469	4.39
541.668	4.38
541.867	4.41
542.066	4.39
542.265	4.48
542.464	4.52
542.663	4.58
542.862	4.64
543.06	4.64
543.259	4.65
543.458	4.65
543.657	4.68
543.856	4.71
544.054	4.75
544.253	4.72
544.452	4.78
544.651	4.72
544.849	4.68
545.048	4.68
545.247	4.71
545.445	4.69
545.644	4.68
545.843	4.72
546.041	4.73
546.24	4.71
546.438	4.74
546.637	4.8
546.836	4.8
547.034	4.83
547.233	4.88
547.431	4.91
547.63	4.96
547.828	5.03
548.027	5.07
548.225	5.06
548.423	5.08
548.622	5.09
548.82	5.07
549.019	5.04
549.217	5.04
549.415	5.05
549.614	5.07
549.812	5.08
550.01	5.14
550.209	5.2
550.407	5.22
550.605	5.21
550.803	5.22
551.002	5.17
551.2	5.2
551.398	5.27
551.596	5.33
551.794	5.39
551.993	5.44
552.191	5.39
552.389	5.36
552.587	5.37
552.785	5.39
552.983	5.41
553.181	5.49
553.379	5.5
553.577	5.54
553.775	5.57
553.973	5.66
554.171	5.66
554.369	5.71
554.567	5.75
554.765	5.75
554.963	5.76
555.161	5.81
555.359	5.81
555.557	5.86
555.755	5.92
555.952	5.94
556.15	5.96
556.348	6.02
556.546	5.99
556.744	5.95
556.941	5.97
557.139	6.05
557.337	6.11
557.535	6.16
557.732	6.2
557.93	6.25
558.128	6.26
558.325	6.25
558.523	6.26
558.721	6.29
558.918	6.27
559.116	6.37
559.313	6.43
559.511	6.53
559.708	6.62
559.906	6.74
560.104	6.68
560.301	6.71
560.498	6.75
560.696	6.74
560.893	6.66
561.091	6.72
561.288	6.8
561.486	6.75
561.683	6.75
561.88	6.8
562.078	6.8
562.275	6.67
562.473	6.79
562.67	6.84
562.867	6.88
563.064	6.87
563.262	7.01
563.459	7.02
563.656	7.03
563.853	7.08
564.051	7.1
564.248	7.11
564.445	7.12
564.642	7.14
564.839	7.18
565.036	7.31
565.234	7.31
565.431	7.31
565.628	7.38
565.825	7.41
566.022	7.44
566.219	7.49
566.416	7.55
566.613	7.63
566.81	7.66
567.007	7.62
567.204	7.6
567.401	7.62
567.598	7.67
567.795	7.72
567.991	7.78
568.188	7.91
568.385	7.96
568.582	8.04
568.779	8.13
568.976	8.21
569.172	8.31
569.369	8.32
569.566	8.26
569.763	8.17
569.96	8.21
570.156	8.19
570.353	8.25
570.55	8.33
570.746	8.47
570.943	8.56
571.14	8.61
571.336	8.7
571.533	8.7
571.729	8.75
571.926	8.75
572.123	8.82
572.319	8.88
572.516	8.99
572.712	9
572.909	9.05
573.105	9.12
573.302	9.17
573.498	9.24
573.695	9.25
573.891	9.3
574.087	9.29
574.284	9.35
574.48	9.42
574.677	9.51
574.873	9.58
575.069	9.68
575.266	9.77
575.462	9.81
575.658	9.88
575.854	10.01
576.051	10.04
576.247	10.06
576.443	10.13
576.639	10.27
576.835	10.23
577.032	10.3
577.228	10.4
577.424	10.43
577.62	10.45
577.816	10.54
578.012	10.6
578.208	10.63
578.404	10.69
578.6	10.74
578.796	10.81
578.993	10.91
579.189	10.92
579.384	10.98
579.58	11
579.776	11.03
579.972	11.03
580.168	11.09
580.364	11.11
580.56	11.16
580.756	11.19
580.952	11.19
581.148	11.17
581.343	11.25
581.539	11.31
581.735	11.37
581.931	11.45
582.127	11.51
582.322	11.52
582.518	11.48
582.714	11.53
582.909	11.54
583.105	11.6
583.301	11.6
583.496	11.66
583.692	11.68
583.888	11.73
584.083	11.75
584.279	11.81
584.474	11.84
584.67	11.77
584.866	11.73
585.061	11.7
585.257	11.71
585.452	11.68
585.648	11.73
585.843	11.82
586.039	11.92
586.234	11.93
586.429	11.97
586.625	12
586.82	12
587.015	11.99
587.211	11.94
587.406	12.04
587.601	12.17
587.797	12.16
587.992	12.17
588.187	12.23
588.383	12.19
588.578	12.1
588.773	12.14
588.968	12.22
589.163	12.32
589.359	12.34
589.554	12.39
589.749	12.46
589.944	12.46
590.139	12.49
590.334	12.53
590.529	12.69
590.724	12.76
590.919	12.84
591.114	12.82
591.309	12.79
591.504	12.67
591.699	12.71
591.894	12.54
592.089	12.63
592.284	12.74
592.479	12.77
592.674	12.69
592.869	12.84
593.064	12.84
593.259	12.99
593.454	13.07
593.648	13.15
593.843	13.22
594.038	13.26
594.233	13.19
594.428	13.29
594.622	13.34
594.817	13.39
595.012	13.43
595.206	13.41
595.401	13.45
595.596	13.6
595.79	13.61
595.985	13.66
596.18	13.81
596.374	13.85
596.569	13.76
596.763	13.87
596.958	14.02
597.153	13.98
597.347	14.01
597.542	14.08
597.736	14.13
597.931	14.14
598.125	14.25
598.319	14.24
598.514	14.32
598.708	14.34
598.903	14.33
599.097	14.39
599.291	14.44
599.486	14.45
599.68	14.49
599.874	14.51
600.069	14.5
600.263	14.62
600.457	14.61
600.651	14.57
600.846	14.64
601.04	14.62
601.234	14.53
601.428	14.56
601.622	14.7
601.817	14.66
602.011	14.76
602.205	14.84
602.399	14.91
602.593	14.96
602.787	14.97
602.981	14.98
603.175	15.06
603.369	15.06
603.563	14.96
603.757	14.9
603.951	14.88
604.145	14.68
604.339	14.62
604.533	14.58
604.727	14.59
604.921	14.56
605.115	14.59
605.309	14.56
605.502	14.63
605.696	14.67
605.89	14.59
606.084	14.61
606.278	14.56
606.471	14.36
606.665	14.23
606.859	14.17
607.053	14.16
607.246	14.09
607.44	14.05
607.634	14.06
607.827	14.03
608.021	13.87
608.214	13.84
608.408	13.82
608.602	13.75
608.795	13.68
608.989	13.66
609.182	13.62
609.376	13.5
609.569	13.44
609.763	13.36
609.956	13.32
610.15	13.28
610.343	13.27
610.537	13.22
610.73	13.13
610.923	13.16
611.117	13.1
611.31	13.03
611.504	13.06
611.697	13.09
611.89	12.94
612.083	12.84
612.277	12.73
612.47	12.55
612.663	12.46
612.856	12.31
613.05	12.28
613.243	12.32
613.436	12.22
613.629	12.09
613.822	12.04
614.015	12.05
614.209	11.83
614.402	11.84
614.595	11.93
614.788	11.95
614.981	11.88
615.174	11.97
615.367	11.94
615.56	11.73
615.753	11.63
615.946	11.48
616.139	11.47
616.332	11.33
616.525	11.32
616.718	11.26
616.911	11.31
617.103	11.26
617.296	11.27
617.489	11.32
617.682	11.35
617.875	11.27
618.067	11.16
618.26	11.11
618.453	11.07
618.646	11.04
618.838	11.01
619.031	11
619.224	11.03
619.417	11.06
619.609	11.01
619.802	10.92
619.994	10.86
620.187	10.76
620.38	10.65
620.572	10.62
620.765	10.59
620.957	10.67
621.15	10.68
621.342	10.65
621.535	10.64
621.727	10.71
621.92	10.65
622.112	10.61
622.305	10.64
622.497	10.56
622.69	10.43
622.882	10.42
623.074	10.49
623.267	10.39
623.459	10.4
623.651	10.4
623.844	10.42
624.036	10.4
624.228	10.47
624.42	10.43
624.613	10.46
624.805	10.36
624.997	10.22
625.189	10.21
625.381	10.23
625.574	10.16
625.766	10.19
625.958	10.21
626.15	10.15
626.342	10.11
626.534	10.13
626.726	10.12
626.918	10.06
627.11	10
627.302	10.04
627.494	10.04
627.686	10.03
627.878	10.09
628.07	10.09
628.262	10.02
628.454	9.89
628.646	9.81
628.838	9.81
629.029	9.8
629.221	9.73
629.413	9.75
629.605	9.75
629.797	9.69
629.989	9.66
630.18	9.69
630.372	9.8
630.564	9.83
630.755	9.84
630.947	9.82
631.139	9.78
631.33	9.68
631.522	9.64
631.714	9.57
631.905	9.57
632.097	9.57
632.289	9.55
632.48	9.48
632.672	9.44
632.863	9.43
633.055	9.47
633.246	9.55
633.438	9.69
633.629	9.68
633.821	9.66
634.012	9.63
634.203	9.66
634.395	9.51
634.586	9.67
634.777	9.65
634.969	9.7
635.16	9.63
635.351	9.68
635.543	9.64
635.734	9.69
635.925	9.67
636.117	9.65
636.308	9.65
636.499	9.57
636.69	9.51
636.881	9.51
637.073	9.55
637.264	9.59
637.455	9.64
637.646	9.74
637.837	9.72
638.028	9.63
638.219	9.58
638.41	9.59
638.601	9.48
638.792	9.47
638.983	9.51
639.174	9.5
639.365	9.47
639.556	9.46
639.747	9.43
639.938	9.48
640.129	9.5
640.32	9.47
640.511	9.51
640.701	9.53
640.892	9.47
641.083	9.49
641.274	9.41
641.465	9.42
641.655	9.43
641.846	9.41
642.037	9.35
642.228	9.46
642.418	9.38
642.609	9.34
642.8	9.37
642.99	9.4
643.181	9.32
643.372	9.39
643.562	9.37
643.753	9.36
643.943	9.38
644.134	9.38
644.324	9.39
644.515	9.41
644.705	9.31
644.896	9.23
645.086	9.2
645.277	9.2
645.467	9.18
645.658	9.18
645.848	9.22
646.038	9.24
646.229	9.21
646.419	9.2
646.61	9.22
646.8	9.17
646.99	9.13
647.18	9.05
647.371	9.04
647.561	8.94
647.751	8.87
647.941	8.84
648.132	8.87
648.322	8.86
648.512	8.94
648.702	9.02
648.892	8.94
649.082	8.93
649.272	8.8
649.462	8.72
649.653	8.65
649.843	8.71
650.033	8.62
650.223	8.66
650.413	8.68
650.603	8.65
650.793	8.56
650.983	8.58
651.172	8.53
651.362	8.5
651.552	8.45
651.742	8.37
651.932	8.38
652.122	8.42
652.312	8.33
652.502	8.33
652.691	8.4
652.881	8.36
653.071	8.36
653.261	8.38
653.45	8.25
653.64	8.26
653.83	8.24
654.019	8.03
654.209	7.95
654.399	7.91
654.588	7.72
654.778	7.55
654.968	7.49
655.157	7.4
655.347	7.39
655.536	7.33
655.726	7.2
655.915	7.28
656.105	7.22
656.294	7.07
656.484	6.96
656.673	6.96
656.863	6.8
657.052	6.73
657.241	6.6
657.431	6.54
657.62	6.44
657.809	6.27
657.999	6.16
658.188	6.16
658.377	6.14
658.567	5.99
658.756	5.98
658.945	5.89
659.134	5.84
659.324	5.81
659.513	5.83
659.702	5.71
659.891	5.63
660.08	5.47
660.269	5.36
660.458	5.17
660.648	5.22
660.837	5.19
661.026	5.32
661.215	5.16
661.404	5.12
661.593	4.97
661.782	4.84
661.971	4.72
662.16	4.77
662.349	4.81
662.538	4.73
662.726	4.86
662.915	4.81
663.104	4.82
663.293	4.75
663.482	4.76
663.671	4.63
663.86	4.56
664.048	4.51
664.237	4.5
664.426	4.48
664.615	4.39
664.803	4.25
664.992	4.19
665.181	4.32
665.369	4.26
665.558	4.31
665.747	4.49
665.935	4.52
666.124	4.46
666.312	4.47
666.501	4.48
666.69	4.45
666.878	4.43
667.067	4.32
667.255	4.43
667.444	4.52
667.632	4.62
667.82	4.67
668.009	4.79
668.197	4.76
668.386	4.72
668.574	4.71
668.762	4.69
668.951	4.75
669.139	4.85
669.327	4.9
669.516	4.95
669.704	5.05
669.892	5.06
670.08	4.98
670.269	5.04
670.457	5.06
670.645	5.03
670.833	4.99
671.021	5.09
671.21	5.04
671.398	5.03
671.586	5.04
671.774	5.19
671.962	5.2
672.15	5.41
672.338	5.52
672.526	5.69
672.714	5.74
672.902	5.75
673.09	5.73
673.278	5.69
673.466	5.73
673.654	5.89
673.842	6.04
674.03	6.05
674.218	6.24
674.405	6.28
674.593	6.18
674.781	6.27
674.969	6.33
675.157	6.17
675.344	6.24
675.532	6.29
675.72	6.35
675.908	6.35
676.095	6.5
676.283	6.57
676.471	6.64
676.658	6.74
676.846	6.9
677.033	7.08
677.221	7.14
677.409	7.2
677.596	7.2
677.784	7.27
677.971	7.19
678.159	7.35
678.346	7.31
678.534	7.37
678.721	7.49
678.909	7.61
679.096	7.63
679.283	7.83
679.471	7.87
679.658	7.8
679.846	7.92
680.033	8.07
680.22	8.12
680.408	8.17
680.595	8.25
680.782	8.18
680.969	8.05
681.157	8.15
681.344	8.07
681.531	8.13
681.718	8.19
681.905	8.21
682.093	8.11
682.28	8.29
682.467	8.5
682.654	8.55
682.841	8.7
683.028	8.69
683.215	8.71
683.402	8.66
683.589	8.81
683.776	8.96
683.963	9.16
684.15	9.29
684.337	9.34
684.524	9.5
684.711	9.48
684.898	9.54
685.085	9.6
685.271	9.89
685.458	9.86
685.645	9.89
685.832	10.08
686.019	10.31
686.205	10.39
686.392	10.54
686.579	10.72
686.766	11
686.952	11.04
687.139	11.04
687.326	11.21
687.512	11.32
687.699	11.15
687.886	11.42
688.072	11.51
688.259	11.61
688.445	11.74
688.632	12.17
688.818	12.35
689.005	12.46
689.191	12.78
689.378	13.03
689.564	13.23
689.751	13.3
689.937	13.81
690.124	13.96
690.31	14.29
690.496	14.67
690.683	15.16
690.869	15.31
691.055	15.75
691.242	16.15
691.428	16.42
691.614	16.76
691.8	17.1
691.987	17.37
692.173	17.63
692.359	18.14
692.545	18.5
692.731	18.97
692.918	19.41
693.104	19.97
693.29	20.38
693.476	20.82
693.662	21.35
693.848	21.89
694.034	22.11
694.22	22.23
694.406	22.79
694.592	23.06
694.778	23.31
694.964	24.01
695.15	24.62
695.336	24.82
695.522	25.56
695.708	26.13
695.894	26.4
696.08	26.8
696.265	27.45
696.451	27.97
696.637	28.56
696.823	29.33
697.009	30.12
697.194	30.78
697.38	31.5
697.566	32.26
697.751	32.84
697.937	33.41
698.123	33.91
698.308	33.95
698.494	34.49
698.68	35.01
698.865	35.45
699.051	36.04
699.236	36.91
699.422	37.19
699.607	37.9
699.793	38.41
699.978	38.78
700.164	39.26
700.349	39.96
700.535	40.17
700.72	40.82
700.906	41.49
701.091	42.03
701.276	42.5
701.462	43.34
701.647	44.25
701.832	44.93
702.018	45.43
702.203	45.88
702.388	46.36
702.573	46.43
702.759	46.9
702.944	47.4
703.129	48.15
703.314	48.69
703.499	49.23
703.684	49.68
703.87	50.15
704.055	50.7
704.24	51.1
704.425	51.42
704.61	52.12
704.795	52.61
704.98	53.06
705.165	53.69
705.35	54.57
705.535	54.98
705.72	55.78
705.905	56.38
706.09	56.78
706.275	57.05
706.459	57.72
706.644	57.99
706.829	58.49
707.014	58.98
707.199	59.42
707.384	59.42
707.568	59.89
707.753	59.99
707.938	60.05
708.123	60.78
708.307	61.43
708.492	62.1
708.677	62.41
708.861	63.64
709.046	63.53
709.231	63.74
709.415	63.63
709.6	64.34
709.784	64.25
709.969	65.04
710.153	65.3
710.338	65.89
710.522	66.36
710.707	66.28
710.891	66.45
711.076	66.95
711.26	67.33
711.445	67.68
711.629	68.13
711.813	68.17
711.998	68.68
712.182	68.66
712.366	68.95
712.551	68.82
712.735	69.31
712.919	69.58
713.103	69.66
713.288	69.42
713.472	70.14
713.656	70.37
713.84	70.24
714.024	70.91
714.208	71.52
714.393	72.11
714.577	72.54
714.761	72.74
714.945	73.01
715.129	73.03
715.313	72.62
715.497	73.01
715.681	73.36
715.865	74.15
716.049	74.13
716.233	74.98
716.417	74.97
716.601	75.26
716.785	74.76
716.968	75.67
717.152	75.75
717.336	76.52
717.52	76.49
717.704	76.77
717.888	77.07
718.071	77.14
718.255	76.67
718.439	77.08
718.622	77.05
718.806	76.97
718.99	77.72
719.174	78.1
719.357	78.18
719.541	78.96
719.724	78.84
719.908	78.33
720.092	78.3
720.275	79.14
720.459	78.98
720.642	79.4
720.826	80.1
721.009	80.32
721.193	80.27
721.376	80.64
721.559	80.88
721.743	80.75
721.926	80.87
722.11	80.25
722.293	79.67
722.476	79.7
722.66	79.63
722.843	80
723.026	80.87
723.21	81.92
723.393	82.05
723.576	82.64
723.759	82.67
723.942	82.71
724.126	82.78
724.309	83.29
724.492	83.17
724.675	83.49
724.858	83.61
725.041	83.45
725.224	83.48
725.407	84.02
725.59	84.11
725.774	84.16
725.957	84.73
726.14	85.21
726.322	84.88
726.505	85.15
726.688	85.52
726.871	85.35
727.054	85.17
727.237	85.04
727.42	85.29
727.603	85.69
727.786	85.77
727.968	85.79
728.151	85.94
728.334	86
728.517	85.75
728.699	85.77
728.882	86.33
729.065	87.27
729.248	87.24
729.43	88
729.613	89.07
729.796	88.92
729.978	89.79
730.161	90.47
730.343	89.97
730.526	89.85
730.708	90.15
730.891	89.81
731.073	89.45
731.256	90.44
731.438	90.46
731.621	90.74
731.803	90.59
731.986	91.63
732.168	91.14
732.35	90.79
732.533	90.29
732.715	90.58
732.898	90.12
733.08	91.48
733.262	92.61
733.444	92.62
733.627	92.27
733.809	92.36
733.991	92.03
734.173	92.28
734.355	93.61
734.538	94.04
734.72	94.76
734.902	95.23
735.084	94.62
735.266	94.28
735.448	94.67
735.63	94.76
735.812	94.4
735.994	94.03
736.176	93.93
736.358	95.19
736.54	94.98
736.722	95.05
736.904	96.57
737.086	96.61
737.268	95.04
737.45	94.38
737.632	94.12
737.814	93.4
737.995	94.32
738.177	94.87
738.359	95.23
738.541	95.48
738.723	96.01
738.904	95.51
739.086	95.38
739.268	96.45
739.449	96.58
739.631	96.26
739.813	96.93
739.994	97.42
740.176	97.23
740.358	97.21
740.539	97.93
740.721	98.5
740.902	98.23
741.084	98.08
741.265	98.77
741.447	98.11
741.628	97.05
741.81	97.94
741.991	97.71
742.172	97.76
742.354	98.77
742.535	98.97
742.717	98.23
742.898	99.27
743.079	98.17
743.261	96.94
743.442	97.12
743.623	97.26
743.804	96.29
743.986	97.1
744.167	98.29
744.348	96.63
744.529	97.6
744.71	97.97
744.891	98.75
745.073	97.89
745.254	100.4
745.435	99.38
745.616	99.05
745.797	97.89
745.978	97.45
746.159	97.78
746.34	97.77
746.521	98.17
746.702	98.36
746.883	98.95
747.064	97.22
747.245	98.33
747.426	98.32
747.606	97.74
747.787	99.6
747.968	100.77
748.149	100.69
748.33	100.19
748.51	101.49
748.691	99.21
748.872	99.56
749.053	99.6
749.233	100.36
749.414	98.86
749.595	99.7
749.775	99.98
749.956	100.04
750.137	99.95
750.317	100.85
750.498	101.06
750.678	101.18
750.859	100.81
751.04	100.07
751.22	99.47
751.4	99.07
751.581	97.38
751.761	96.67
751.942	96.45
752.122	97.85
752.303	97.43
752.483	97.66
752.663	97.26
752.844	97.48
753.024	96.26
753.204	96.74
753.385	96.31
753.565	99.34
753.745	101.18
753.925	102.34
754.106	102.96
754.286	104.3
754.466	101.52
754.646	100.52
754.826	99.35
755.006	99.74
755.187	100.1
755.367	100.49
755.547	99.45
755.727	100.42
755.907	98.75
756.087	98.16
756.267	96.86
756.447	99.1
756.627	98.68
756.807	98.7
756.987	97.6
757.167	98.53
757.346	98.06
757.526	97.02
757.706	97.53
757.886	98.13
758.066	99.21
758.246	97.63
758.425	99.74
758.605	100.83
758.785	101.95
758.965	101.72
759.144	103.48
759.324	102.92
759.504	102.6
759.683	102.09
759.863	100.97
760.043	101.15
760.222	99.55
760.402	99.45
760.581	99.89
760.761	98.53
760.94	96.62
761.12	97.58
761.299	97.39
761.479	96.28
761.658	96.48
761.838	97.62
762.017	98.16
762.197	97.24
762.376	97.79
762.555	99.43
762.735	99.44
762.914	96.99
763.093	97.57
763.273	98.15
763.452	97.79
763.631	96.39
763.81	98.2
763.99	99.76
764.169	101.3
764.348	102.5
764.527	103.56
764.706	102.92
764.885	101.42
765.064	99.43
765.243	98.16
765.423	96.56
765.602	96.06
765.781	98.36
765.96	96.76
766.139	96.7
766.318	97.16
766.497	98.45
766.676	96.75
766.854	97.37
767.033	97.56
767.212	99.2
767.391	97.26
767.57	98.22
767.749	96.43
767.928	98.09
768.106	97.07
768.285	98.44
768.464	95.27
768.643	97.66
768.821	95.05
769	95.11
769.179	95.26
769.357	95.77
769.536	94.38
769.715	94.92
769.893	96.25
770.072	95
770.25	96.96
770.429	99
770.607	99.53
770.786	98.79
770.964	97.08
771.143	95.23
771.321	93.7
771.5	94.62
771.678	94.89
771.857	95.67
772.035	96.95
772.213	96.27
772.392	95.51
772.57	94.13
772.748	95.36
772.927	95.14
773.105	95.47
773.283	94.45
773.461	93.35
773.64	93.71
773.818	93.66
773.996	92.63
774.174	93
774.352	92.45
774.531	93.88
774.709	92.93
774.887	96.44
775.065	96.83
775.243	99.84
775.421	98.03
775.599	96.66
775.777	93.95
775.955	91.39
776.133	90.57
776.311	91.45
776.489	94.83
776.667	95.2
776.844	98.68
777.022	98.91
777.2	99.35
777.378	96.56
777.556	97.84
777.734	94.77
777.911	92.59
778.089	92.2
778.267	91.22
778.445	87.55
778.622	89.02
778.8	93.49
778.978	93.64
779.155	94.59
779.333	95.85
779.511	92.53
779.688	88.56
779.866	86.47
780.043	86.58
780.221	87.55
780.398	91.32
780.576	91.94
780.753	94
780.931	92.78
781.108	93.48
781.286	90.89
781.463	90.84
781.64	92.1
781.818	92.8
781.995	91.39
782.172	93.72
782.35	93.45
782.527	92.25
782.704	93.43
782.882	96.81
783.059	94.63
783.236	93.59
783.413	93.02
783.59	90.91
783.768	88.4
783.945	90.11
784.122	93.33
784.299	92.54
784.476	94.95
784.653	94.35
784.83	94.35
785.007	93.41
785.184	93.03
785.361	92.08
785.538	92.67
785.715	90.48
785.892	88.72
786.069	91.6
786.246	92.07
786.423	94.04
786.6	99.38
786.776	99.74
786.953	96.24
787.13	98.23
787.307	98.08
787.484	95.65
787.66	96.34
787.837	96.54
788.014	93.77
788.191	92.51
788.367	93.2
788.544	96.24
788.721	92.02
788.897	89.88
789.074	86.75
789.25	82.7
789.427	77.43
789.603	80.65
789.78	84.68
789.956	85.71
790.133	87.53
790.309	92.29
790.486	89.01
790.662	88.33
790.839	91.21
791.015	90.62
791.192	84.13
791.368	91.93
791.544	82.85
791.721	85.66
791.897	83.91
792.073	88.58
792.249	83.33
792.426	92.8
792.602	87.15
792.778	87.02
792.954	87.09
793.13	88.61
793.307	88.83
793.483	87.11
793.659	89.69
793.835	88.27
794.011	89.09
794.187	85.51
794.363	90
794.539	87.8
794.715	89.49
794.891	90.99
795.067	90
795.243	89.57
795.419	93.43
795.595	93.6
795.771	95
795.947	97.64
796.122	96.98
796.298	98.66
796.474	94.01
796.65	91.8
796.826	90.84
797.001	89.28
797.177	82.72
797.353	85.08
797.529	89.48
797.704	93.54
797.88	94.18
798.056	97.95
798.231	100.59
798.407	92.6
798.582	87.38
798.758	85.52
798.934	90.1
799.109	87.02
799.285	91.34
799.46	92.75
799.636	93.96
799.811	88.32
799.986	84.56
800.162	85.5
800.337	91.04
800.513	90.27
800.688	89.52
800.863	93.67
801.039	91.13
801.214	90.25
801.389	90.89
801.565	88.78
801.74	101.27
801.915	100.22
802.09	94.77
802.265	94.93
802.441	98.67
802.616	83.11
802.791	86.67
802.966	87.73
803.141	83.14
803.316	78.39
803.491	81.2
803.666	75.91
803.841	75.86
804.016	82.09
804.191	84.94
804.366	92.73
804.541	94.28
804.716	88.28
804.891	85.57
805.066	90.25
805.241	85.49
805.416	79.2
805.591	77.42
805.765	75.49
805.94	70.81
806.115	64.73
806.29	64.27
806.464	75.58
806.639	80.53
806.814	79.76
806.989	79.18
807.163	82.93
807.338	77.97
807.512	71.55
807.687	74.99
807.862	74.45
808.036	71.73
808.211	72.84
808.385	73.48
808.56	71.92
808.734	71.5
808.909	75.18
809.083	73.77
809.258	74.27
809.432	75.39
809.606	76.3
809.781	71.1
809.955	69.2
810.13	73.8
810.304	70.3
810.478	72.78
810.652	77.98
810.827	85.61
811.001	85.48
811.175	95.11
811.349	91.4
811.524	85.66
811.698	81.32
811.872	79.52
812.046	77.76
812.22	81.34
812.394	83.8
812.568	87.75
812.742	86.59
812.916	77.96
813.09	75.76
813.264	82.14
813.438	87.39
813.612	94.5
813.786	90.23
813.96	100.67
814.134	94.69
814.308	84.36
814.482	79.41
814.656	87.52
814.83	79.19
815.003	85.22
815.177	90.11
815.351	90.09
815.525	87.5
815.698	90.05
815.872	90.22
816.046	90.33
816.219	91.49
816.393	100.97
816.567	102.82
816.74	98.78
816.914	93.46
817.088	93.04
817.261	86.69
817.435	92.09
817.608	91.53
817.782	87.41
817.955	100.3
818.129	99.97
818.302	92.35
818.475	81.56
818.649	92.33
818.822	80.58
818.996	85.33
819.169	87.38
819.342	90.12
819.516	84.51
819.689	90.27
819.862	92.78
820.035	94.14
820.209	89.7
820.382	98.84
820.555	92.67
820.728	92.93
820.901	78.16
821.075	96.7
821.248	111.03
821.421	104.37
821.594	98.99
821.767	120.51
821.94	109.29
822.113	81.86
822.286	81.51
822.459	82.41
822.632	74.89
822.805	77.59
822.978	84.31
823.151	89.73
823.324	79.59
823.496	75.1
823.669	72.68
823.842	79.21
824.015	73.4
824.188	79.12
824.361	87.39
824.533	92.46
824.706	74.62
824.879	72.26
825.051	64.68
825.224	59.14
825.397	56.57
825.569	59.02
825.742	57.86
825.915	56.06
826.087	60.86
826.26	54.04
826.432	74.3
826.605	88.46
826.777	86.73
826.95	87.35
827.122	79.56
827.295	56.5
827.467	53.43
827.64	48.39
827.812	41.75
827.984	49.74
828.157	66.36
828.329	67.85
828.501	95.66
828.674	90.3
828.846	90.09
829.018	87.96
829.19	86.91
829.363	66.89
829.535	84.06
829.707	73.08
829.879	66.39
830.051	63.5
830.223	81.32
830.395	64.04
830.568	81.67
830.74	92.26
830.912	89.5
831.084	81.86
831.256	76.88
831.428	74.44
831.6	78.8
831.772	88.37
831.943	91.27
832.115	94.3
832.287	96.81
832.459	71.71
832.631	66.69
832.803	59.47
832.975	62.54
833.146	58.67
833.318	79.77
833.49	92.04
833.662	100.52
833.833	87.12
834.005	88.38
834.177	98.65
834.348	100.79
834.52	78.55
834.692	82.58
834.863	80.47
835.035	82.97
835.206	75.58
835.378	76.07
835.549	76.49
835.721	78.31
835.892	70.2
836.064	69.85
836.235	79.29
836.407	80.49
836.578	74.88
836.749	69.16
836.921	64.25
837.092	68.22
837.264	76.31
837.435	85.81
837.606	90.61
837.777	95.18
837.949	86.25
838.12	70.94
838.291	76.86
838.462	87.43
838.633	120.66
838.805	126.19
838.976	138.42
839.147	133.1
839.318	107.64
839.489	92.98
839.66	118.35
839.831	143.23
840.002	132.81
840.173	175.12
840.344	136.72
840.515	85.97
840.686	76.3
840.857	81.6
841.028	84.71
841.199	83.23
841.369	69.79
841.54	77.76
841.711	76.13
841.882	64.93
842.053	60.7
842.223	97.38
842.394	94.1
842.565	87.92
842.736	132.73
842.906	240.49
843.077	194.48
843.248	220.56
843.418	144.96
843.589	106.74
843.759	87.89
843.93	70.63
844.101	69.86
844.271	80.39
844.442	70.51
844.612	86.84
844.783	59.59
844.953	41.02
845.123	38.65
845.294	26.37
845.464	24.42
845.635	55.11
845.805	78.98
845.975	90.17
846.146	120.99
846.316	93.5
846.486	93.38
846.656	64.79
846.827	53.38
846.997	60.01
847.167	61.62
847.337	62.81
847.507	84.38
847.677	91.19
847.848	90.02
848.018	133.01
848.188	142.42
848.358	127.37
848.528	148.39
848.698	155.61
848.868	136.37
849.038	125.16
849.208	98.25
849.378	90.5
849.548	42.83
849.718	51.82
849.887	49.7
850.057	54.61
850.227	49.47
850.397	53.79
850.567	59.45
850.737	85.35
850.906	72.57
851.076	80.67
851.246	97.91
851.415	79.32
851.585	71.89
851.755	79.87
851.924	71.25
852.094	74.77
852.264	75.49
852.433	60.72
852.603	78.36
852.772	93.49
852.942	99.73
853.111	100.91
853.281	102.55
853.45	98.49
853.62	71.53
853.789	35.79
853.959	43.01
854.128	63.85
854.297	32
854.467	65.75
854.636	119.22
854.805	98.91
854.975	106.65
855.144	88.73
855.313	68.57
855.482	65.16
855.652	63.02
855.821	58.57
855.99	64.47
856.159	70.27
856.328	81.23
856.497	71.23
856.667	61.49
856.836	88.93
857.005	67
857.174	28.81
857.343	19.98
857.512	38.58
857.681	-7.17
857.85	24.76
858.019	15.3
858.188	26.33
858.356	14.63
858.525	39.82
858.694	50.6
858.863	79.59
859.032	67.66
859.201	60.09
859.369	77.05
859.538	50.11
859.707	36.47
859.876	41.33
860.044	52.48
860.213	28.39
860.382	40.14
860.55	42.69
860.719	56.48
860.888	116.62
861.056	116.37
861.225	111.37
861.393	132.52
861.562	139.22
861.73	120.85
861.899	106.33
862.067	99.58
862.236	76.73
862.404	69.41
862.572	58.62
862.741	49.57
862.909	54.27
863.078	47.33
863.246	47.82
863.414	56.56
863.582	81.07
863.751	70.78
863.919	66.93
864.087	69.3
864.255	51.65
864.424	55.99
864.592	62.38
864.76	73.79
864.928	63.03
865.096	58.54
865.264	56.52
865.432	49.65
865.6	49.64
865.768	40.02
865.936	45.63
866.104	35.11
866.272	25.47
866.44	33.09
866.608	23.31
866.776	54.49
866.944	57.14
867.112	53.92
867.28	34.53
867.448	63.73
867.615	62.35
867.783	80.68
867.951	79.86
868.119	112.44
868.286	113.69
868.454	97.96
868.622	84.45
868.789	109.93
868.957	88.82
869.125	95.02
869.292	79.78
869.46	72.64
869.627	69.57
869.795	62.4
869.963	56.98
870.13	40.32
870.298	57.64
870.465	61.37
870.632	66.12
870.8	48.28
870.967	56.18
871.135	63.94
871.302	16.46
871.469	43.79
871.637	34.48
871.804	48.99
871.971	47.54
872.139	61.52
872.306	56.86
872.473	72
872.64	60.11
872.807	56.23
872.975	55.3
873.142	41.64
873.309	20.15
873.476	54.79
873.643	27.85
873.81	49.14
873.977	56.11
874.144	72.81
874.311	47.95
874.478	61.45
874.645	44.88
874.812	56.19
874.979	45.5
875.146	60.18
875.313	54.01
875.48	88.08
875.647	100.97
875.813	122.71
875.98	137.36
876.147	116.38
876.314	90.02
876.481	77.62
876.647	69.98
876.814	46.29
876.981	58.45
877.147	45.39
877.314	29.6
877.481	46.9
877.647	57.71
877.814	63.89
877.98	68.56
878.147	69.17
878.314	70.7
878.48	87.55
878.647	73.99
878.813	55.63
878.979	71.28
879.146	75.91
879.312	43.06
879.479	73.6
879.645	66.46
879.811	57.65
879.978	27.53
880.144	54.39
880.31	33.11
880.477	21.82
880.643	40.77
880.809	40.55
880.975	10.03
881.142	9.08
881.308	24.97
881.474	24.49
881.64	35.7
881.806	0
881.972	119.92
882.138	171.09
882.304	85.49
882.47	37.55
882.636	39.22
882.802	16.25
882.968	-8.05
883.134	3.02
883.3	39.55
883.466	56.39
883.632	65.01
883.798	86.63
883.964	66.52
884.129	181.38
884.295	97.94
884.461	154.36
884.627	113.96
884.793	101.17
884.958	80.05
885.124	67.64
885.29	38.42
885.455	77.17
885.621	87.3
885.787	76.81
885.952	87.99
886.118	93.77
886.283	84.95
886.449	69.65
886.614	71.7
886.78	86.6
886.945	83.66
887.111	54.72
887.276	49.26
887.442	35.48
887.607	-19.62
887.773	-41.18
887.938	-19.19
888.103	9.71
888.269	55.38
888.434	42.07
888.599	26.33
888.764	25.75
888.93	28.12
889.095	7.34
889.26	31.34
889.425	72.14
889.59	84.81
889.756	76.4
889.921	54.85
890.086	60.02
890.251	39.26
890.416	-0.67
890.581	-26.47
890.746	51.49
890.911	65.31
891.076	103.69
891.241	128.79
891.406	127.97
891.571	72.24
891.736	48
891.901	38.87
892.065	55.5
892.23	68.15
892.395	107.37
892.56	80.91
892.725	42.34
892.889	-38.1
893.054	-34.59
893.219	-37.59
893.384	0.27
893.548	15.68
893.713	31.56
893.878	35.99
