Data from Ofav_PP_Phys_9IR44_Reflection_1.txt Node
Date: Tue Jul 27 19:05:37 EDT 2021
User: USUARIO
Spectrometer: FLMT01687
Trigger mode: 0
Integration Time (sec): 8.500000E-1
Scans to average: 2
Electric dark correction enabled: true
Nonlinearity correction enabled: false
Boxcar width: 2
XAxis mode: Wavelengths
Number of Pixels in Spectrum: 3648
>>>>>Begin Spectral Data<<<<<
179.494	-1285.19
179.716	-407.53
179.937	-304.18
180.158	-301.46
180.38	-331.62
180.601	-338.67
180.823	178.63
181.044	81.79
181.265	29.13
181.486	-33.06
181.708	-73.78
181.929	162.66
182.15	85.26
182.372	81
182.593	46.13
182.814	60.92
183.035	47.8
183.257	39.09
183.478	35.74
183.699	32.09
183.92	34.56
184.141	51.41
184.363	69.75
184.584	88.58
184.805	99.96
185.026	64.87
185.247	55.11
185.468	42.23
185.689	19.53
185.91	-5.1
186.132	-8.17
186.353	11.18
186.574	-7.19
186.795	-10.42
187.016	14.36
187.237	25.31
187.458	26.59
187.679	41.01
187.9	41.44
188.121	29.3
188.342	31.02
188.563	39.26
188.784	68.3
189.005	71.11
189.226	69.37
189.447	59.61
189.667	58.2
189.888	53.77
190.109	38.72
190.33	52.46
190.551	30.77
190.772	31.36
190.993	16.59
191.214	27.23
191.434	32.91
191.655	66.13
191.876	45.31
192.097	48.32
192.318	57.2
192.538	39.77
192.759	32.83
192.98	48.79
193.201	48.14
193.421	27.68
193.642	16.97
193.863	6.07
194.083	4.75
194.304	-8.23
194.525	-19.67
194.745	-56.58
194.966	-120.3
195.187	-137.94
195.407	-101.1
195.628	-18.49
195.848	42.05
196.069	67.6
196.29	136.69
196.51	117.17
196.731	61.36
196.951	40.05
197.172	51.06
197.392	58.95
197.613	78.1
197.833	65.16
198.054	78.28
198.274	46.06
198.495	30.03
198.715	20.48
198.936	8.16
199.156	29.19
199.377	47.59
199.597	0.66
199.817	11.96
200.038	-36.3
200.258	-41.56
200.479	18.8
200.699	28.88
200.919	10.82
201.14	34.91
201.36	26.46
201.58	9.95
201.801	2.77
202.021	23.39
202.241	7.09
202.461	11.37
202.682	22.38
202.902	17.33
203.122	14.66
203.342	13.03
203.563	32.49
203.783	29.61
204.003	24.14
204.223	11.97
204.443	10.22
204.663	-11.93
204.884	-18.39
205.104	6.53
205.324	18.62
205.544	10.4
205.764	-0.37
205.984	3.13
206.204	-13.18
206.424	-20.1
206.644	21.93
206.864	44.77
207.084	43.88
207.304	44.75
207.525	49
207.745	56.34
207.964	56.19
208.184	41.81
208.404	47.9
208.624	34
208.844	22.91
209.064	22.49
209.284	24.91
209.504	20.87
209.724	-1.91
209.944	-39.75
210.164	-42.29
210.384	-10.64
210.604	-51.83
210.823	37.89
211.043	43
211.263	32.79
211.483	44.58
211.703	50.74
211.922	25.21
212.142	14.11
212.362	-3.78
212.582	-48.87
212.801	-21.86
213.021	-35.28
213.241	2.91
213.461	-12.58
213.68	31.48
213.9	39.42
214.12	44.5
214.339	16.19
214.559	24.91
214.779	10.34
214.998	5.77
215.218	4.11
215.438	30.04
215.657	31.13
215.877	28.74
216.096	39.78
216.316	37.79
216.535	18.77
216.755	17.4
216.974	39.14
217.194	42.95
217.413	43
217.633	40.17
217.852	33
218.072	7.08
218.291	-15.26
218.511	-17.17
218.73	-7.6
218.95	-7.96
219.169	3.09
219.389	-1.21
219.608	16.08
219.827	34.19
220.047	69.4
220.266	63.78
220.485	56.4
220.705	58.26
220.924	40.91
221.143	38.94
221.363	24.52
221.582	22.5
221.801	16.58
222.021	32.7
222.24	31.82
222.459	33.85
222.678	67.22
222.897	66.13
223.117	85.39
223.336	78.73
223.555	48.6
223.774	34.32
223.993	29.64
224.213	6.76
224.432	-5.5
224.651	18.22
224.87	5.82
225.089	4.29
225.308	-0.77
225.527	12.55
225.746	-7.56
225.965	14.71
226.184	18.17
226.404	24.79
226.623	36.45
226.842	39.48
227.061	29.98
227.28	23.82
227.499	25.83
227.718	4.75
227.936	1.06
228.155	11.37
228.374	21.24
228.593	9.27
228.812	35.61
229.031	27.43
229.25	28.08
229.469	23.16
229.688	32.18
229.907	-31.74
230.125	9.58
230.344	15.56
230.563	18.82
230.782	34.77
231.001	49.7
231.22	46.61
231.438	33.68
231.657	27.59
231.876	25.86
232.095	26.29
232.313	30.66
232.532	36.34
232.751	46.58
232.969	30.25
233.188	39.01
233.407	28.66
233.625	43.88
233.844	41.56
234.063	44.16
234.281	30.59
234.5	27.31
234.719	31.99
234.937	12
235.156	9.34
235.374	22.6
235.593	34.3
235.811	15.24
236.03	30.67
236.249	41.07
236.467	34.11
236.686	15.5
236.904	29.09
237.123	22.45
237.341	17.6
237.559	18.81
237.778	25.79
237.996	13.54
238.215	22.26
238.433	30.49
238.652	34.64
238.87	38.48
239.088	31.37
239.307	28.93
239.525	3.56
239.743	-18.94
239.962	-30.13
240.18	-3.75
240.398	-2.53
240.617	7.74
240.835	42.83
241.053	71.8
241.271	69.68
241.49	61.25
241.708	57.6
241.926	24.5
242.144	-23.58
242.363	-19.09
242.581	-7.79
242.799	1.05
243.017	-2.12
243.235	-7.48
243.453	-13.68
243.672	-0.41
243.89	-8.35
244.108	-8.71
244.326	18
244.544	-2.87
244.762	-7.56
244.98	3.05
245.198	-11.39
245.416	-11.54
245.634	8.26
245.852	1.63
246.07	19.01
246.288	29.34
246.506	24.87
246.724	37.43
246.942	30.67
247.16	15.52
247.378	24.93
247.596	24.93
247.814	14.14
248.032	18.47
248.25	32.21
248.468	33.54
248.685	38.38
248.903	41.58
249.121	44.66
249.339	29.96
249.557	32.42
249.775	20.47
249.992	4.64
250.21	0.64
250.428	-4.43
250.646	-15.14
250.863	-16.86
251.081	-12.72
251.299	-9.45
251.517	-5.75
251.734	-8.82
251.952	-15.05
252.17	-5.83
252.387	-22.08
252.605	-12.35
252.823	1.65
253.04	21.39
253.258	29.42
253.475	28.15
253.693	37.42
253.911	45.62
254.128	35.36
254.346	23.85
254.563	31.87
254.781	18.99
254.998	21.38
255.216	-5.17
255.433	4.7
255.651	11.66
255.868	15.8
256.086	5.84
256.303	26.22
256.521	35.46
256.738	27.25
256.956	25.07
257.173	26.43
257.39	17.74
257.608	16.88
257.825	28.03
258.043	33.87
258.26	36.7
258.477	41.01
258.695	30.66
258.912	23.15
259.129	22.27
259.346	19.14
259.564	13.07
259.781	39.55
259.998	27.55
260.216	34.29
260.433	36.2
260.65	47.67
260.867	27.38
261.084	35.54
261.302	18.08
261.519	3.24
261.736	-13.86
261.953	0.32
262.17	-1.2
262.387	4.71
262.604	20.88
262.822	22.08
263.039	14.19
263.256	25.41
263.473	32.98
263.69	35.58
263.907	25.21
264.124	43.23
264.341	40.55
264.558	35.43
264.775	26.48
264.992	38.59
265.209	31.5
265.426	24.61
265.643	21.49
265.86	13.59
266.077	7.25
266.294	28.62
266.51	36.64
266.727	40.15
266.944	50.41
267.161	51.96
267.378	26.2
267.595	32.12
267.812	31.61
268.028	34.55
268.245	46.57
268.462	70.44
268.679	65.67
268.896	57.23
269.112	40.28
269.329	34.73
269.546	31.62
269.763	15.34
269.979	12.24
270.196	18.22
270.413	23.62
270.629	20.89
270.846	42.29
271.063	25
271.279	18.4
271.496	28.06
271.712	4.63
271.929	-18.7
272.146	-32.08
272.362	-9.18
272.579	-7.87
272.795	19.57
273.012	24.36
273.228	40.7
273.445	42.82
273.661	52.68
273.878	33.53
274.094	24.17
274.311	23.38
274.527	21.4
274.744	1.37
274.96	-5.77
275.177	-1.55
275.393	-7.63
275.609	-5.72
275.826	-4.73
276.042	6.01
276.259	22.69
276.475	12.2
276.691	0.47
276.908	9.86
277.124	19.45
277.34	13.79
277.557	11.43
277.773	27.82
277.989	28.03
278.205	27.69
278.422	19.04
278.638	19.98
278.854	24.68
279.07	23.1
279.286	28.99
279.503	51.29
279.719	55.51
279.935	61.93
280.151	70.77
280.367	58.13
280.583	50.12
280.799	56.47
281.016	43.12
281.232	28.75
281.448	26.4
281.664	20.32
281.88	12.12
282.096	8.8
282.312	19.86
282.528	23.04
282.744	13.86
282.96	24.9
283.176	37.7
283.392	46.25
283.608	48.24
283.824	48.86
284.04	9.43
284.256	17.2
284.471	-3.69
284.687	0.63
284.903	-5.41
285.119	17.65
285.335	23.37
285.551	21.88
285.767	31.7
285.982	33.64
286.198	37.87
286.414	9.92
286.63	20.5
286.846	-2.53
287.061	2.77
287.277	-7.16
287.493	-2.85
287.709	11.68
287.924	22.82
288.14	34.9
288.356	57.65
288.571	70.05
288.787	49.92
289.003	48.29
289.218	43.54
289.434	31.75
289.65	32.85
289.865	29.23
290.081	33.38
290.296	20.87
290.512	21.88
290.727	19.74
290.943	36.08
291.159	45.63
291.374	34.78
291.59	39.29
291.805	34.21
292.021	27.48
292.236	24.58
292.451	22.77
292.667	26.93
292.882	24.75
293.098	21.63
293.313	22.65
293.529	41.02
293.744	29.04
293.959	39.83
294.175	43.85
294.39	42.21
294.605	41.31
294.821	46.36
295.036	27.01
295.251	21.71
295.467	33.26
295.682	12.45
295.897	22.04
296.112	27.39
296.328	27.26
296.543	18.11
296.758	30.36
296.973	20.92
297.188	36.94
297.404	31.6
297.619	33.93
297.834	25.44
298.049	18.85
298.264	5.72
298.479	13.8
298.694	8.26
298.909	9.77
299.125	21.9
299.34	29.37
299.555	33.66
299.77	28.02
299.985	35.47
300.2	30.12
300.415	26.65
300.63	17.57
300.845	18.94
301.06	9.26
301.275	0.92
301.49	0.44
301.704	8.71
301.919	16.56
302.134	31.83
302.349	40.08
302.564	33.86
302.779	30.05
302.994	33.81
303.209	32.97
303.423	21.21
303.638	18.83
303.853	2.71
304.068	17.77
304.283	5.03
304.497	13.33
304.712	20
304.927	27.3
305.142	14.56
305.356	0.19
305.571	16.89
305.786	30.12
306	20.9
306.215	13.24
306.43	34.56
306.644	27.75
306.859	17.74
307.074	31.12
307.288	39.02
307.503	26.99
307.717	-0.26
307.932	-0.92
308.147	0.43
308.361	-4.31
308.576	12.69
308.79	24.55
309.005	15.48
309.219	-1.95
309.434	2.28
309.648	-12.46
309.863	-11.11
310.077	1.43
310.292	16.86
310.506	4.49
310.72	8.81
310.935	19.52
311.149	13.66
311.364	6.29
311.578	18.61
311.792	8.31
312.007	5.35
312.221	18.23
312.435	5.76
312.649	4.93
312.864	11.2
313.078	17.69
313.292	22.2
313.507	38.36
313.721	62.61
313.935	45.64
314.149	43.55
314.363	39.16
314.578	39.46
314.792	25.18
315.006	27.03
315.22	19.14
315.434	5.98
315.648	4.73
315.862	6.97
316.077	7.7
316.291	11.37
316.505	11.33
316.719	22.99
316.933	25.9
317.147	14.42
317.361	6.04
317.575	13.15
317.789	5.46
318.003	16.29
318.217	38.13
318.431	41.51
318.645	39.3
318.859	47.01
319.073	9.24
319.287	-9.52
319.5	-17.24
319.714	-18.4
319.928	-20.83
320.142	-13.52
320.356	9.38
320.57	30.62
320.784	31.66
320.997	42.07
321.211	50.15
321.425	33.6
321.639	18.01
321.853	23.38
322.066	10.16
322.28	-3.33
322.494	-1.88
322.707	10.9
322.921	11.86
323.135	4.75
323.349	20.26
323.562	34.02
323.776	23.64
323.989	-0.74
324.203	7.47
324.417	6.8
324.63	5.39
324.844	24.72
325.057	46.57
325.271	56.25
325.485	42.36
325.698	50.49
325.912	39.3
326.125	45.77
326.339	47.37
326.552	42.8
326.766	25.65
326.979	24.97
327.193	18.17
327.406	25.11
327.619	23.95
327.833	29.04
328.046	35.39
328.26	31.82
328.473	14.36
328.686	25.08
328.9	30.89
329.113	24.15
329.326	15.27
329.54	18.88
329.753	2.95
329.966	16.72
330.179	5.38
330.393	36.77
330.606	32.68
330.819	47.24
331.032	27.42
331.246	33.96
331.459	27.59
331.672	25.89
331.885	5.63
332.098	39.79
332.311	45.17
332.525	33.62
332.738	30.47
332.951	40.79
333.164	24.54
333.377	12.78
333.59	24.04
333.803	33.77
334.016	26.25
334.229	20.31
334.442	33.37
334.655	30.01
334.868	23.03
335.081	40.35
335.294	45.17
335.507	46.69
335.72	45.56
335.933	35.63
336.146	13.17
336.359	3.8
336.572	6.04
336.785	-0.78
336.997	13.47
337.21	35.76
337.423	39.69
337.636	14.66
337.849	9.89
338.062	7.25
338.274	-6.87
338.487	10.42
338.7	9.64
338.913	11.1
339.125	12.09
339.338	4.73
339.551	-20.01
339.763	-3.16
339.976	7.54
340.189	10.26
340.402	19.49
340.614	23.55
340.827	25.95
341.039	9.49
341.252	-8.71
341.465	-37.28
341.677	-27.84
341.89	-34.07
342.102	4.03
342.315	25.08
342.527	43.47
342.74	33.71
342.952	28.13
343.165	33.92
343.377	27.63
343.59	15.85
343.802	18.44
344.015	21.05
344.227	-1.74
344.44	-36.51
344.652	-21.52
344.864	-16.97
345.077	-2.35
345.289	6.36
345.502	19.4
345.714	25.69
345.926	12.75
346.139	17.23
346.351	15.2
346.563	9.19
346.775	-2.5
346.988	3.68
347.2	-15.42
347.412	0.22
347.624	9.99
347.837	1.38
348.049	13.66
348.261	29.35
348.473	23.06
348.685	24.19
348.897	36.26
349.11	32.11
349.322	21.34
349.534	10.51
349.746	17.43
349.958	19.65
350.17	22.06
350.382	18.59
350.594	6.7
350.806	15.15
351.018	5.57
351.23	-13.27
351.442	-21.87
351.654	6.98
351.866	-4.15
352.078	2.44
352.29	7.19
352.502	19.36
352.714	20.21
352.926	21.49
353.138	32.72
353.35	41.57
353.561	36.48
353.773	32.55
353.985	28.52
354.197	14.76
354.409	16.16
354.621	15.8
354.832	21.34
355.044	14.53
355.256	24.05
355.468	30.77
355.679	31.88
355.891	33.99
356.103	41.83
356.314	34.84
356.526	33.16
356.738	31.39
356.949	27.82
357.161	31.75
357.373	31.74
357.584	26.12
357.796	42.02
358.008	42.56
358.219	42.53
358.431	38.34
358.642	32.33
358.854	28.79
359.065	25.59
359.277	31.41
359.488	38.59
359.7	42.19
359.911	38.73
360.123	39.5
360.334	27.87
360.546	17.77
360.757	8.35
360.969	-12.86
361.18	-14.16
361.391	-5.09
361.603	11.61
361.814	11.65
362.025	38.82
362.237	36.28
362.448	32.86
362.659	22.3
362.871	32.15
363.082	16.41
363.293	22.37
363.504	22.81
363.716	26.78
363.927	27.96
364.138	25
364.349	17.91
364.56	15.41
364.772	13.72
364.983	13.13
365.194	6.27
365.405	9.11
365.616	11.78
365.827	14.39
366.038	21.04
366.25	33.33
366.461	39.7
366.672	35.33
366.883	22.48
367.094	29.38
367.305	10.92
367.516	3.19
367.727	14.41
367.938	8.04
368.149	-9.32
368.36	-12.87
368.571	-6.66
368.781	-0.51
368.992	-0.67
369.203	-6.15
369.414	-0.46
369.625	-5.13
369.836	-14.81
370.047	-8.68
370.258	-11.44
370.468	-9.67
370.679	-5.96
370.89	-1.29
371.101	-8.24
371.312	3.28
371.522	0.01
371.733	12.42
371.944	12.75
372.155	30.02
372.365	26.91
372.576	34.55
372.787	32.44
372.997	37.36
373.208	24.35
373.419	24.84
373.629	27.88
373.84	28.36
374.05	19.09
374.261	19.6
374.472	30
374.682	23.27
374.893	27.59
375.103	34.2
375.314	37.34
375.524	36.47
375.735	37.38
375.945	23.43
376.156	22.66
376.366	28.98
376.577	23.61
376.787	20.38
376.997	34.64
377.208	34.66
377.418	28.27
377.629	23.28
377.839	35.14
378.049	32.68
378.26	30.81
378.47	35.67
378.68	42.05
378.89	31.47
379.101	29.12
379.311	25.94
379.521	16.57
379.732	16.48
379.942	24.56
380.152	20.41
380.362	37.3
380.572	36.53
380.783	31.57
380.993	15.08
381.203	15.84
381.413	2.41
381.623	4.78
381.833	5.45
382.043	20.33
382.253	19.77
382.463	22.14
382.674	31.14
382.884	24.91
383.094	10.14
383.304	14.95
383.514	10.08
383.724	0.7
383.934	-0.92
384.144	3.92
384.353	-4.02
384.563	0.08
384.773	4.44
384.983	5.67
385.193	10.85
385.403	13.03
385.613	17.38
385.823	17.14
386.033	20.03
386.242	17.77
386.452	17
386.662	17.13
386.872	16.31
387.082	14.84
387.291	7.61
387.501	4.79
387.711	-2.04
387.921	0.76
388.13	4.94
388.34	10.65
388.55	15.68
388.759	16.86
388.969	14.18
389.179	13.66
389.388	15.25
389.598	14.55
389.807	15.6
390.017	16.14
390.227	15.16
390.436	12.56
390.646	11.92
390.855	8.99
391.065	7.1
391.274	6.07
391.484	6.35
391.693	4.77
391.903	5.46
392.112	7.48
392.322	7.57
392.531	6.86
392.74	7.22
392.95	7.59
393.159	6.97
393.369	7.19
393.578	8.06
393.787	8.39
393.997	9.76
394.206	10.79
394.415	10.25
394.625	9.63
394.834	9.68
395.043	8.42
395.252	7.71
395.462	8.38
395.671	8.53
395.88	8.56
396.089	8.56
396.298	7.63
396.508	7.23
396.717	7.51
396.926	7.21
397.135	7.42
397.344	7.74
397.553	8.19
397.762	7.64
397.971	7.71
398.181	7.44
398.39	7.39
398.599	7.03
398.808	7.24
399.017	7.11
399.226	7.63
399.435	7.75
399.644	8.21
399.853	8.28
400.062	8.85
400.27	8.25
400.479	7.78
400.688	7.4
400.897	7.08
401.106	6.75
401.315	7.05
401.524	7.49
401.733	7.48
401.941	7.49
402.15	7.17
402.359	7.06
402.568	6.83
402.777	6.71
402.985	6.87
403.194	7.31
403.403	7.47
403.612	7.51
403.82	7.54
404.029	7.48
404.238	7.33
404.446	7.34
404.655	7.35
404.864	7.43
405.072	7.46
405.281	7.35
405.489	7.14
405.698	7.05
405.906	6.92
406.115	6.75
406.324	6.61
406.532	6.61
406.741	6.56
406.949	6.58
407.158	6.43
407.366	6.53
407.574	6.59
407.783	6.61
407.991	6.56
408.2	6.76
408.408	6.75
408.617	6.66
408.825	6.63
409.033	6.61
409.242	6.56
409.45	6.42
409.658	6.44
409.867	6.54
410.075	6.53
410.283	6.43
410.491	6.52
410.7	6.42
410.908	6.34
411.116	6.47
411.324	6.44
411.533	6.4
411.741	6.28
411.949	6.3
412.157	6.15
412.365	6.31
412.573	6.25
412.781	6.32
412.99	6.33
413.198	6.39
413.406	6.38
413.614	6.49
413.822	6.62
414.03	6.53
414.238	6.34
414.446	6.36
414.654	6.32
414.862	6.29
415.07	6.23
415.278	6.32
415.486	6.16
415.694	6.14
415.902	6.07
416.109	6.11
416.317	6.17
416.525	6.19
416.733	6.07
416.941	6.07
417.149	5.92
417.357	5.89
417.564	5.65
417.772	5.8
417.98	5.84
418.188	5.97
418.395	5.98
418.603	6.16
418.811	6.19
419.019	6.14
419.226	6.22
419.434	6.23
419.642	6.25
419.849	6.21
420.057	6.07
420.265	6.01
420.472	5.82
420.68	5.8
420.887	5.73
421.095	5.8
421.302	5.82
421.51	5.85
421.717	5.85
421.925	5.94
422.132	5.81
422.34	5.74
422.547	5.74
422.755	5.75
422.962	5.58
423.17	5.76
423.377	5.78
423.585	5.87
423.792	5.85
423.999	5.78
424.207	5.53
424.414	5.45
424.621	5.32
424.829	5.14
425.036	5.25
425.243	5.38
425.451	5.35
425.658	5.28
425.865	5.48
426.072	5.37
426.28	5.38
426.487	5.59
426.694	5.55
426.901	5.46
427.108	5.57
427.315	5.32
427.523	5.09
427.73	5.16
427.937	5.17
428.144	5.06
428.351	5.17
428.558	5.41
428.765	5.51
428.972	5.44
429.179	5.45
429.386	5.62
429.593	5.43
429.8	5.33
430.007	5.34
430.214	5.16
430.421	5.24
430.628	5.19
430.835	5.37
431.042	5.42
431.249	5.71
431.456	5.51
431.662	5.73
431.869	5.6
432.076	5.53
432.283	5.44
432.49	5.49
432.697	5.41
432.903	5.53
433.11	5.8
433.317	5.83
433.524	5.79
433.73	5.75
433.937	5.55
434.144	5.37
434.35	5.32
434.557	5.29
434.764	5.24
434.97	5.2
435.177	5.23
435.384	5.25
435.59	5.35
435.797	5.32
436.003	5.4
436.21	5.28
436.416	5.26
436.623	5.29
436.829	5.32
437.036	5.37
437.242	5.41
437.449	5.48
437.655	5.57
437.862	5.59
438.068	5.46
438.275	5.58
438.481	5.57
438.687	5.47
438.894	5.6
439.1	5.53
439.307	5.38
439.513	5.36
439.719	5.41
439.926	5.24
440.132	5.41
440.338	5.46
440.544	5.41
440.751	5.3
440.957	5.4
441.163	5.37
441.369	5.42
441.575	5.29
441.782	5.44
441.988	5.41
442.194	5.42
442.4	5.48
442.606	5.6
442.812	5.49
443.018	5.38
443.224	5.32
443.431	5.18
443.637	5.28
443.843	5.18
444.049	5.3
444.255	5.22
444.461	5.04
444.667	4.88
444.873	4.85
445.079	4.88
445.284	4.85
445.49	4.94
445.696	5
445.902	5.06
446.108	5.02
446.314	5.04
446.52	5.23
446.726	5.28
446.931	5.29
447.137	5.2
447.343	5.2
447.549	5.08
447.755	4.99
447.96	4.99
448.166	5.09
448.372	5.23
448.578	5.23
448.783	5.24
448.989	5.25
449.195	5.14
449.4	5.11
449.606	5.08
449.812	5.09
450.017	5.09
450.223	5.17
450.428	5.11
450.634	5.14
450.84	5.08
451.045	5.09
451.251	5.09
451.456	5.09
451.662	5.05
451.867	5.1
452.073	5.11
452.278	5.05
452.483	5.06
452.689	5.12
452.894	5.12
453.1	5.13
453.305	5.12
453.51	5.1
453.716	5.04
453.921	5.02
454.127	4.97
454.332	4.91
454.537	4.97
454.742	4.88
454.948	4.79
455.153	4.78
455.358	4.79
455.563	4.7
455.769	4.79
455.974	4.79
456.179	4.79
456.384	4.7
456.589	4.72
456.795	4.64
457	4.68
457.205	4.51
457.41	4.55
457.615	4.44
457.82	4.43
458.025	4.42
458.23	4.59
458.435	4.54
458.64	4.54
458.845	4.55
459.05	4.49
459.255	4.48
459.46	4.57
459.665	4.7
459.87	4.71
460.075	4.85
460.28	4.84
460.485	4.83
460.69	4.64
460.895	4.71
461.099	4.62
461.304	4.51
461.509	4.51
461.714	4.59
461.919	4.56
462.123	4.54
462.328	4.58
462.533	4.41
462.738	4.43
462.942	4.34
463.147	4.39
463.352	4.33
463.556	4.5
463.761	4.4
463.966	4.37
464.17	4.38
464.375	4.47
464.58	4.47
464.784	4.58
464.989	4.74
465.193	4.71
465.398	4.7
465.602	4.76
465.807	4.72
466.011	4.57
466.216	4.54
466.42	4.57
466.625	4.47
466.829	4.44
467.034	4.62
467.238	4.72
467.443	4.72
467.647	4.68
467.851	4.64
468.056	4.48
468.26	4.43
468.464	4.46
468.669	4.53
468.873	4.61
469.077	4.59
469.282	4.58
469.486	4.56
469.69	4.5
469.894	4.51
470.099	4.59
470.303	4.57
470.507	4.61
470.711	4.78
470.915	4.77
471.119	4.82
471.324	4.83
471.528	4.84
471.732	4.86
471.936	4.88
472.14	4.91
472.344	5.03
472.548	4.93
472.752	4.81
472.956	4.8
473.16	4.85
473.364	4.72
473.568	4.81
473.772	4.78
473.976	4.74
474.18	4.6
474.384	4.63
474.588	4.65
474.792	4.68
474.995	4.65
475.199	4.63
475.403	4.64
475.607	4.66
475.811	4.69
476.015	4.74
476.218	4.72
476.422	4.69
476.626	4.66
476.83	4.63
477.033	4.68
477.237	4.82
477.441	4.87
477.644	4.86
477.848	4.9
478.052	4.84
478.255	4.82
478.459	4.76
478.663	4.71
478.866	4.65
479.07	4.7
479.273	4.72
479.477	4.74
479.681	4.9
479.884	4.94
480.088	4.9
480.291	4.89
480.495	4.85
480.698	4.77
480.901	4.79
481.105	4.83
481.308	4.86
481.512	4.87
481.715	4.8
481.919	4.77
482.122	4.7
482.325	4.74
482.529	4.8
482.732	4.83
482.935	4.86
483.138	5.02
483.342	4.98
483.545	4.97
483.748	5
483.952	5
484.155	4.93
484.358	5
484.561	5.08
484.764	5.02
484.967	5.09
485.171	5.15
485.374	5.04
485.577	5.05
485.78	5.17
485.983	5.08
486.186	5.05
486.389	5.1
486.592	5.09
486.795	5.14
486.998	5.18
487.201	5.27
487.404	5.39
487.607	5.44
487.81	5.48
488.013	5.57
488.216	5.62
488.419	5.57
488.622	5.57
488.825	5.56
489.028	5.59
489.231	5.57
489.433	5.63
489.636	5.66
489.839	5.73
490.042	5.77
490.245	5.85
490.447	5.91
490.65	5.99
490.853	6.05
491.056	6.24
491.258	6.35
491.461	6.4
491.664	6.43
491.866	6.52
492.069	6.48
492.272	6.57
492.474	6.73
492.677	6.84
492.879	6.94
493.082	7.02
493.285	7.13
493.487	7.25
493.69	7.3
493.892	7.39
494.095	7.61
494.297	7.7
494.5	7.87
494.702	8.05
494.905	8.18
495.107	8.24
495.309	8.28
495.512	8.27
495.714	8.38
495.917	8.48
496.119	8.56
496.321	8.73
496.524	8.85
496.726	8.96
496.928	9.07
497.13	9.26
497.333	9.41
497.535	9.59
497.737	9.73
497.939	9.84
498.142	9.95
498.344	10.08
498.546	10.05
498.748	10.17
498.95	10.27
499.152	10.32
499.355	10.33
499.557	10.48
499.759	10.62
499.961	10.74
500.163	10.84
500.365	10.94
500.567	10.99
500.769	10.94
500.971	10.99
501.173	11.05
501.375	11.11
501.577	11.26
501.779	11.39
501.981	11.42
502.183	11.36
502.385	11.41
502.587	11.34
502.788	11.39
502.99	11.4
503.192	11.42
503.394	11.42
503.596	11.54
503.798	11.49
503.999	11.53
504.201	11.59
504.403	11.63
504.605	11.63
504.806	11.58
505.008	11.58
505.21	11.5
505.411	11.38
505.613	11.3
505.815	11.23
506.016	11.11
506.218	11.18
506.42	11.11
506.621	11.06
506.823	11.08
507.024	11.07
507.226	10.98
507.427	10.98
507.629	10.87
507.83	10.83
508.032	10.77
508.233	10.74
508.435	10.72
508.636	10.82
508.838	10.74
509.039	10.74
509.24	10.72
509.442	10.69
509.643	10.5
509.845	10.47
510.046	10.47
510.247	10.4
510.448	10.34
510.65	10.38
510.851	10.36
511.052	10.27
511.254	10.24
511.455	10.25
511.656	10.19
511.857	10.12
512.058	10.06
512.26	10.04
512.461	9.97
512.662	9.89
512.863	9.81
513.064	9.75
513.265	9.63
513.466	9.6
513.667	9.55
513.868	9.52
514.069	9.58
514.27	9.6
514.471	9.57
514.672	9.62
514.873	9.59
515.074	9.43
515.275	9.43
515.476	9.35
515.677	9.22
515.878	9.21
516.079	9.24
516.28	9.17
516.481	9.09
516.682	9.1
516.882	9.08
517.083	9.06
517.284	9.08
517.485	9.1
517.686	9.03
517.886	8.98
518.087	8.96
518.288	8.92
518.488	8.87
518.689	8.86
518.89	8.81
519.091	8.84
519.291	8.79
519.492	8.8
519.692	8.84
519.893	8.89
520.094	8.77
520.294	8.76
520.495	8.79
520.695	8.8
520.896	8.74
521.096	8.73
521.297	8.75
521.497	8.74
521.698	8.63
521.898	8.61
522.099	8.63
522.299	8.55
522.499	8.55
522.7	8.52
522.9	8.61
523.101	8.58
523.301	8.58
523.501	8.59
523.702	8.7
523.902	8.58
524.102	8.6
524.302	8.61
524.503	8.58
524.703	8.53
524.903	8.57
525.103	8.54
525.304	8.51
525.504	8.48
525.704	8.45
525.904	8.37
526.104	8.42
526.304	8.4
526.504	8.38
526.705	8.38
526.905	8.5
527.105	8.46
527.305	8.47
527.505	8.44
527.705	8.48
527.905	8.36
528.105	8.31
528.305	8.3
528.505	8.3
528.705	8.31
528.905	8.36
529.105	8.41
529.304	8.43
529.504	8.48
529.704	8.46
529.904	8.49
530.104	8.51
530.304	8.51
530.503	8.51
530.703	8.5
530.903	8.45
531.103	8.46
531.303	8.45
531.502	8.44
531.702	8.43
531.902	8.4
532.101	8.4
532.301	8.42
532.501	8.41
532.7	8.39
532.9	8.43
533.1	8.43
533.299	8.48
533.499	8.55
533.698	8.58
533.898	8.56
534.097	8.55
534.297	8.49
534.496	8.46
534.696	8.51
534.895	8.55
535.095	8.63
535.294	8.65
535.494	8.66
535.693	8.71
535.892	8.7
536.092	8.64
536.291	8.67
536.491	8.72
536.69	8.66
536.889	8.67
537.088	8.65
537.288	8.65
537.487	8.67
537.686	8.69
537.886	8.75
538.085	8.78
538.284	8.76
538.483	8.71
538.682	8.72
538.882	8.64
539.081	8.64
539.28	8.7
539.479	8.74
539.678	8.78
539.877	8.8
540.076	8.78
540.275	8.76
540.474	8.7
540.673	8.65
540.872	8.71
541.071	8.76
541.27	8.71
541.469	8.73
541.668	8.74
541.867	8.72
542.066	8.74
542.265	8.86
542.464	8.85
542.663	8.9
542.862	8.95
543.06	8.93
543.259	8.95
543.458	9
543.657	9.02
543.856	9.03
544.054	9.07
544.253	9.06
544.452	9.07
544.651	9.04
544.849	9.04
545.048	8.99
545.247	9.03
545.445	9.09
545.644	9.14
545.843	9.21
546.041	9.3
546.24	9.23
546.438	9.27
546.637	9.27
546.836	9.29
547.034	9.3
547.233	9.42
547.431	9.44
547.63	9.49
547.828	9.54
548.027	9.52
548.225	9.52
548.423	9.54
548.622	9.55
548.82	9.52
549.019	9.61
549.217	9.54
549.415	9.54
549.614	9.58
549.812	9.61
550.01	9.6
550.209	9.7
550.407	9.78
550.605	9.79
550.803	9.8
551.002	9.84
551.2	9.9
551.398	9.92
551.596	10
551.794	10.09
551.993	10.11
552.191	10.11
552.389	10.12
552.587	10.09
552.785	10.11
552.983	10.15
553.181	10.19
553.379	10.24
553.577	10.37
553.775	10.41
553.973	10.45
554.171	10.45
554.369	10.52
554.567	10.52
554.765	10.62
554.963	10.7
555.161	10.8
555.359	10.88
555.557	11.02
555.755	11.08
555.952	11.16
556.15	11.18
556.348	11.2
556.546	11.21
556.744	11.18
556.941	11.25
557.139	11.35
557.337	11.43
557.535	11.41
557.732	11.49
557.93	11.53
558.128	11.56
558.325	11.59
558.523	11.72
558.721	11.73
558.918	11.8
559.116	11.88
559.313	11.99
559.511	12.07
559.708	12.19
559.906	12.27
560.104	12.31
560.301	12.38
560.498	12.46
560.696	12.48
560.893	12.53
561.091	12.6
561.288	12.73
561.486	12.72
561.683	12.89
561.88	12.88
562.078	12.98
562.275	12.91
562.473	13.03
562.67	13.08
562.867	13.2
563.064	13.26
563.262	13.35
563.459	13.49
563.656	13.53
563.853	13.65
564.051	13.73
564.248	13.78
564.445	13.77
564.642	13.79
564.839	13.9
565.036	14
565.234	14.14
565.431	14.25
565.628	14.35
565.825	14.26
566.022	14.3
566.219	14.35
566.416	14.34
566.613	14.45
566.81	14.61
567.007	14.62
567.204	14.72
567.401	14.78
567.598	14.89
567.795	14.9
567.991	15.02
568.188	15.08
568.385	15.16
568.582	15.24
568.779	15.35
568.976	15.4
569.172	15.54
569.369	15.54
569.566	15.58
569.763	15.54
569.96	15.6
570.156	15.5
570.353	15.63
570.55	15.64
570.746	15.73
570.943	15.73
571.14	15.82
571.336	15.92
571.533	15.93
571.729	16.01
571.926	16.05
572.123	16.1
572.319	16.09
572.516	16.15
572.712	16.16
572.909	16.23
573.105	16.26
573.302	16.35
573.498	16.35
573.695	16.38
573.891	16.36
574.087	16.32
574.284	16.24
574.48	16.27
574.677	16.29
574.873	16.3
575.069	16.43
575.266	16.44
575.462	16.36
575.658	16.44
575.854	16.52
576.051	16.5
576.247	16.54
576.443	16.72
576.639	16.79
576.835	16.72
577.032	16.71
577.228	16.76
577.424	16.68
577.62	16.55
577.816	16.56
578.012	16.61
578.208	16.58
578.404	16.63
578.6	16.64
578.796	16.71
578.993	16.72
579.189	16.73
579.384	16.7
579.58	16.73
579.776	16.6
579.972	16.64
580.168	16.65
580.364	16.67
580.56	16.63
580.756	16.71
580.952	16.61
581.148	16.59
581.343	16.55
581.539	16.57
581.735	16.6
581.931	16.62
582.127	16.65
582.322	16.64
582.518	16.64
582.714	16.59
582.909	16.58
583.105	16.5
583.301	16.43
583.496	16.4
583.692	16.38
583.888	16.34
584.083	16.28
584.279	16.29
584.474	16.26
584.67	16.12
584.866	16.07
585.061	16.12
585.257	16.1
585.452	16.11
585.648	16.17
585.843	16.17
586.039	16.2
586.234	16.19
586.429	16.15
586.625	16.13
586.82	16.11
587.015	16.01
587.211	16.06
587.406	16.07
587.601	16.1
587.797	16.14
587.992	16.12
588.187	16.06
588.383	16.03
588.578	15.97
588.773	15.94
588.968	16.02
589.163	15.99
589.359	15.96
589.554	15.99
589.749	16.01
589.944	16.02
590.139	16.14
590.334	16.28
590.529	16.35
590.724	16.35
590.919	16.3
591.114	16.27
591.309	16.14
591.504	16.16
591.699	16.19
591.894	16.11
592.089	16.12
592.284	16.2
592.479	16.12
592.674	16.15
592.869	16.25
593.064	16.29
593.259	16.38
593.454	16.45
593.648	16.43
593.843	16.5
594.038	16.52
594.233	16.47
594.428	16.64
594.622	16.74
594.817	16.87
595.012	16.92
595.206	16.97
595.401	16.97
595.596	17
595.79	16.94
595.985	16.99
596.18	17.05
596.374	17.09
596.569	17.17
596.763	17.29
596.958	17.42
597.153	17.42
597.347	17.44
597.542	17.43
597.736	17.42
597.931	17.36
598.125	17.45
598.319	17.48
598.514	17.56
598.708	17.61
598.903	17.68
599.097	17.79
599.291	17.85
599.486	17.92
599.68	17.9
599.874	17.89
600.069	17.84
600.263	17.79
600.457	17.74
600.651	17.78
600.846	17.78
601.04	17.76
601.234	17.8
601.428	17.86
601.622	17.88
601.817	17.91
602.011	17.98
602.205	18
602.399	18.07
602.593	18.19
602.787	18.18
602.981	18.15
603.175	18.23
603.369	18.15
603.563	18.09
603.757	18.16
603.951	18.2
604.145	18.12
604.339	18.21
604.533	18.14
604.727	18.08
604.921	17.98
605.115	17.93
605.309	17.75
605.502	17.82
605.696	17.79
605.89	17.85
606.084	17.85
606.278	17.96
606.471	17.77
606.665	17.69
606.859	17.69
607.053	17.77
607.246	17.65
607.44	17.68
607.634	17.72
607.827	17.54
608.021	17.38
608.214	17.31
608.408	17.31
608.602	17.21
608.795	17.24
608.989	17.24
609.182	17.22
609.376	17.11
609.569	16.98
609.763	16.85
609.956	16.76
610.15	16.74
610.343	16.62
610.537	16.66
610.73	16.57
610.923	16.55
611.117	16.45
611.31	16.43
611.504	16.41
611.697	16.44
611.89	16.36
612.083	16.21
612.277	16.13
612.47	16.03
612.663	15.99
612.856	15.81
613.05	15.82
613.243	15.75
613.436	15.69
613.629	15.64
613.822	15.68
614.015	15.71
614.209	15.7
614.402	15.65
614.595	15.61
614.788	15.56
614.981	15.45
615.174	15.42
615.367	15.39
615.56	15.33
615.753	15.17
615.946	15.11
616.139	15.07
616.332	14.91
616.525	14.79
616.718	14.84
616.911	14.86
617.103	14.81
617.296	14.86
617.489	14.83
617.682	14.78
617.875	14.71
618.067	14.53
618.26	14.43
618.453	14.35
618.646	14.36
618.838	14.33
619.031	14.36
619.224	14.44
619.417	14.55
619.609	14.48
619.802	14.4
619.994	14.38
620.187	14.25
620.38	14.18
620.572	14.18
620.765	14.14
620.957	14.14
621.15	14.13
621.342	14.01
621.535	13.99
621.727	14.01
621.92	13.94
622.112	13.93
622.305	13.94
622.497	13.83
622.69	13.76
622.882	13.8
623.074	13.74
623.267	13.69
623.459	13.64
623.651	13.55
623.844	13.57
624.036	13.63
624.228	13.75
624.42	13.79
624.613	13.87
624.805	13.77
624.997	13.67
625.189	13.6
625.381	13.64
625.574	13.59
625.766	13.63
625.958	13.59
626.15	13.54
626.342	13.4
626.534	13.36
626.726	13.37
626.918	13.32
627.11	13.3
627.302	13.35
627.494	13.39
627.686	13.37
627.878	13.39
628.07	13.35
628.262	13.28
628.454	13.18
628.646	13.04
628.838	13.05
629.029	13.05
629.221	13.04
629.413	13.06
629.605	13.09
629.797	13.06
629.989	13
630.18	12.93
630.372	12.94
630.564	12.89
630.755	12.79
630.947	12.84
631.139	12.81
631.33	12.73
631.522	12.71
631.714	12.71
631.905	12.63
632.097	12.63
632.289	12.62
632.48	12.49
632.672	12.47
632.863	12.41
633.055	12.43
633.246	12.43
633.438	12.53
633.629	12.52
633.821	12.55
634.012	12.53
634.203	12.54
634.395	12.49
634.586	12.51
634.777	12.42
634.969	12.37
635.16	12.32
635.351	12.26
635.543	12.29
635.734	12.37
635.925	12.35
636.117	12.28
636.308	12.36
636.499	12.34
636.69	12.32
636.881	12.33
637.073	12.39
637.264	12.34
637.455	12.19
637.646	12.16
637.837	12.07
638.028	11.99
638.219	11.94
638.41	11.98
638.601	11.97
638.792	11.96
638.983	12.01
639.174	12
639.365	12.01
639.556	11.99
639.747	12.01
639.938	12.01
640.129	12.02
640.32	11.97
640.511	11.88
640.701	11.89
640.892	11.84
641.083	11.85
641.274	11.81
641.465	11.82
641.655	11.83
641.846	11.84
642.037	11.71
642.228	11.77
642.418	11.74
642.609	11.65
642.8	11.6
642.99	11.68
643.181	11.61
643.372	11.71
643.562	11.63
643.753	11.61
643.943	11.56
644.134	11.5
644.324	11.38
644.515	11.41
644.705	11.38
644.896	11.35
645.086	11.4
645.277	11.43
645.467	11.49
645.658	11.46
645.848	11.52
646.038	11.44
646.229	11.42
646.419	11.36
646.61	11.35
646.8	11.31
646.99	11.35
647.18	11.29
647.371	11.26
647.561	11.26
647.751	11.19
647.941	11.13
648.132	11.16
648.322	11.09
648.512	11.09
648.702	11.15
648.892	11.11
649.082	11.11
649.272	11.11
649.462	11.07
649.653	11.04
649.843	11.04
650.033	11.02
650.223	11.04
650.413	11.01
650.603	10.99
650.793	10.99
650.983	11
651.172	10.95
651.362	10.96
651.552	10.93
651.742	10.85
651.932	10.81
652.122	10.86
652.312	10.77
652.502	10.67
652.691	10.62
652.881	10.54
653.071	10.49
653.261	10.5
653.45	10.49
653.64	10.55
653.83	10.5
654.019	10.37
654.209	10.33
654.399	10.23
654.588	10.08
654.778	9.88
654.968	9.88
655.157	9.73
655.347	9.75
655.536	9.7
655.726	9.71
655.915	9.61
656.105	9.54
656.294	9.42
656.484	9.33
656.673	9.23
656.863	9.11
657.052	9.08
657.241	8.96
657.431	8.89
657.62	8.8
657.809	8.64
657.999	8.57
658.188	8.55
658.377	8.54
658.567	8.46
658.756	8.49
658.945	8.34
659.134	8.22
659.324	8.1
659.513	8.1
659.702	7.98
659.891	7.82
660.08	7.68
660.269	7.53
660.458	7.35
660.648	7.37
660.837	7.46
661.026	7.48
661.215	7.48
661.404	7.39
661.593	7.2
661.782	7.06
661.971	6.88
662.16	6.78
662.349	6.76
662.538	6.72
662.726	6.71
662.915	6.67
663.104	6.7
663.293	6.6
663.482	6.54
663.671	6.4
663.86	6.31
664.048	6.2
664.237	6.17
664.426	6.18
664.615	6.15
664.803	6.11
664.992	6.06
665.181	6.1
665.369	6.03
665.558	5.98
665.747	6.03
665.935	5.98
666.124	5.97
666.312	5.93
666.501	5.94
666.69	5.84
666.878	5.81
667.067	5.63
667.255	5.68
667.444	5.78
667.632	5.98
667.82	6.07
668.009	6.17
668.197	6.11
668.386	6.06
668.574	5.98
668.762	5.83
668.951	5.9
669.139	6.03
669.327	6.07
669.516	6.04
669.704	6.14
669.892	6.17
670.08	6.15
670.269	6.08
670.457	6.06
670.645	6.05
670.833	6.01
671.021	6.03
671.21	5.96
671.398	6
671.586	5.95
671.774	6.04
671.962	5.93
672.15	6.11
672.338	6.15
672.526	6.39
672.714	6.41
672.902	6.5
673.09	6.54
673.278	6.61
673.466	6.64
673.654	6.82
673.842	6.95
674.03	7.01
674.218	7.17
674.405	7.26
674.593	7.11
674.781	7.16
674.969	7.13
675.157	6.96
675.344	6.86
675.532	7.02
675.72	7.16
675.908	7.21
676.095	7.41
676.283	7.58
676.471	7.65
676.658	7.66
676.846	7.76
677.033	7.94
677.221	8.03
677.409	8.05
677.596	8.08
677.784	8.28
677.971	8.22
678.159	8.28
678.346	8.3
678.534	8.5
678.721	8.51
678.909	8.59
679.096	8.6
679.283	8.73
679.471	8.57
679.658	8.62
679.846	8.77
680.033	8.93
680.22	9.04
680.408	9.14
680.595	9.24
680.782	9.2
680.969	9.21
681.157	9.21
681.344	9.32
681.531	9.34
681.718	9.52
681.905	9.59
682.093	9.67
682.28	9.86
682.467	10.19
682.654	10.16
682.841	10.24
683.028	10.26
683.215	10.38
683.402	10.23
683.589	10.52
683.776	10.69
683.963	10.95
684.15	11.03
684.337	11.23
684.524	11.34
684.711	11.4
684.898	11.45
685.085	11.6
685.271	11.91
685.458	11.87
685.645	12.06
685.832	12.38
686.019	12.6
686.205	12.67
686.392	13.06
686.579	13.44
686.766	13.64
686.952	13.81
687.139	14.09
687.326	14.24
687.512	14.38
687.699	14.53
687.886	14.83
688.072	14.93
688.259	15.15
688.445	15.39
688.632	15.75
688.818	16.04
689.005	16.41
689.191	16.8
689.378	17.17
689.564	17.56
689.751	17.95
689.937	18.47
690.124	18.85
690.31	19.27
690.496	19.85
690.683	20.15
690.869	20.54
691.055	21.01
691.242	21.48
691.428	21.93
691.614	22.54
691.8	22.99
691.987	23.59
692.173	24.04
692.359	24.59
692.545	25.2
692.731	25.69
692.918	26.11
693.104	26.66
693.29	27.08
693.476	27.55
693.662	28.35
693.848	29.12
694.034	29.75
694.22	30.21
694.406	30.78
694.592	31.08
694.778	31.61
694.964	32.37
695.15	33.09
695.336	33.57
695.522	34.22
695.708	34.85
695.894	35.09
696.08	35.74
696.265	36.57
696.451	37.25
696.637	37.75
696.823	38.48
697.009	39.2
697.194	39.51
697.38	40.11
697.566	40.9
697.751	41.67
697.937	41.85
698.123	42.83
698.308	43.21
698.494	43.84
698.68	44.31
698.865	45.07
699.051	45.5
699.236	46.24
699.422	46.53
699.607	47.11
699.793	47.9
699.978	48.46
700.164	49.08
700.349	49.7
700.535	50.2
700.72	50.51
700.906	51.08
701.091	51.68
701.276	52.33
701.462	52.94
701.647	53.78
701.832	54.56
702.018	55.02
702.203	55.35
702.388	55.67
702.573	55.9
702.759	55.83
702.944	56.21
703.129	56.76
703.314	57.28
703.499	57.91
703.684	58.86
703.87	59.42
704.055	59.88
704.24	59.88
704.425	60.15
704.61	60.47
704.795	60.82
704.98	60.98
705.165	62.1
705.35	62.59
705.535	63.1
705.72	63.81
705.905	64.39
706.09	64.75
706.275	65.22
706.459	65.5
706.644	65.46
706.829	66.25
707.014	66.85
707.199	66.93
707.384	67.15
707.568	67.59
707.753	67.73
707.938	67.6
708.123	67.94
708.307	68.25
708.492	69.06
708.677	68.96
708.861	69.65
709.046	70.13
709.231	70.31
709.415	70.05
709.6	70.51
709.784	70.29
709.969	70.64
710.153	71.08
710.338	71.64
710.522	72.39
710.707	72.65
710.891	72.99
711.076	73.58
711.26	73.95
711.445	74.2
711.629	74.79
711.813	74.63
711.998	74.76
712.182	74.84
712.366	74.98
712.551	74.81
712.735	75.17
712.919	75.05
713.103	74.88
713.288	74.64
713.472	75.06
713.656	75.21
713.84	75.41
714.024	75.78
714.208	76.09
714.393	76.35
714.577	76.89
714.761	77.08
714.945	77.3
715.129	77.09
715.313	77.25
715.497	77.55
715.681	77.78
715.865	78.26
716.049	78.74
716.233	79.16
716.417	79.46
716.601	79.61
716.785	79.57
716.968	80.13
717.152	79.95
717.336	79.98
717.52	80.36
717.704	80.42
717.888	80.5
718.071	80.28
718.255	79.98
718.439	79.88
718.622	79.73
718.806	79.77
718.99	80.63
719.174	80.8
719.357	81.09
719.541	81.64
719.724	81.94
719.908	81.81
720.092	82.27
720.275	82.4
720.459	82.42
720.642	82.92
720.826	83.45
721.009	83.45
721.193	83.37
721.376	83.72
721.559	83.64
721.743	83.5
721.926	83.57
722.11	83.97
722.293	84.06
722.476	83.95
722.66	84.14
722.843	84.22
723.026	84.62
723.21	84.81
723.393	84.59
723.576	85.23
723.759	84.77
723.942	84.72
724.126	84.85
724.309	85.58
724.492	85.14
724.675	86.12
724.858	86.43
725.041	86.61
725.224	86.95
725.407	87.1
725.59	87.41
725.774	87.51
725.957	87.87
726.14	87.88
726.322	88.06
726.505	88.25
726.688	88.17
726.871	88.46
727.054	88.21
727.237	88.17
727.42	88.1
727.603	88.08
727.786	87.74
727.968	87.64
728.151	87.62
728.334	87.67
728.517	88.18
728.699	87.9
728.882	88.62
729.065	89.1
729.248	89.39
729.43	89.72
729.613	90.52
729.796	90.32
729.978	90.65
730.161	90.6
730.343	90.44
730.526	90.52
730.708	90.56
730.891	91.27
731.073	91.22
731.256	91.7
731.438	91.92
731.621	92.29
731.803	91.61
731.986	92.13
732.168	91.84
732.35	91.41
732.533	90.81
732.715	90.82
732.898	90.35
733.08	91.15
733.262	91.67
733.444	92.4
733.627	92.9
733.809	93.36
733.991	93.02
734.173	93.77
734.355	94.13
734.538	94.15
734.72	94.65
734.902	95.32
735.084	95.61
735.266	95.13
735.448	95.27
735.63	95.32
735.812	94.44
735.994	93.4
736.176	93.81
736.358	95.42
736.54	95.26
736.722	95.66
736.904	96.58
737.086	96.45
737.268	94.85
737.45	94.93
737.632	95.33
737.814	94.77
737.995	95.85
738.177	95.79
738.359	96.2
738.541	95.88
738.723	96.32
738.904	96.22
739.086	96.46
739.268	96.69
739.449	96.34
739.631	96.06
739.813	96.08
739.994	96.6
740.176	96.5
740.358	96.64
740.539	97.19
740.721	97.16
740.902	96.1
741.084	95.5
741.265	95.67
741.447	95.64
741.628	94.22
741.81	95.06
741.991	95.4
742.172	95.61
742.354	96.04
742.535	97.86
742.717	97.69
742.898	97.66
743.079	97.22
743.261	95.91
743.442	95.38
743.623	94.67
743.804	94.23
743.986	95.07
744.167	95.77
744.348	94.37
744.529	95.75
744.71	97.03
744.891	97.47
745.073	97.76
745.254	99.35
745.435	98.07
745.616	97.66
745.797	96.76
745.978	95.93
746.159	96.35
746.34	97.28
746.521	96.58
746.702	95.48
746.883	95.57
747.064	94.72
747.245	94.77
747.426	94.39
747.606	94.89
747.787	96.93
747.968	96.39
748.149	96.61
748.33	97.7
748.51	99.63
748.691	96.69
748.872	98.16
749.053	99.27
749.233	98.14
749.414	96.31
749.595	98.18
749.775	97.4
749.956	95.86
750.137	96.53
750.317	95.51
750.498	95.31
750.678	95.31
750.859	94.93
751.04	93.81
751.22	95.59
751.4	95.3
751.581	96.1
751.761	95.88
751.942	95.72
752.122	95.39
752.303	94.93
752.483	93.74
752.663	94.47
752.844	95.42
753.024	94.97
753.204	95.74
753.385	95.6
753.565	96.8
753.745	98.12
753.925	99.05
754.106	98.64
754.286	99.02
754.466	97.71
754.646	97.48
754.826	96.59
755.006	96.93
755.187	97.77
755.367	97.67
755.547	96.75
755.727	96.07
755.907	95.54
756.087	95.58
756.267	96.66
756.447	97.47
756.627	99.03
756.807	99.95
756.987	98.98
757.167	98.67
757.346	98.5
757.526	98.14
757.706	96.16
757.886	96.37
758.066	96.36
758.246	94.8
758.425	95.87
758.605	98.2
758.785	99.38
758.965	99.07
759.144	101.23
759.324	100.12
759.504	97.82
759.683	97.86
759.863	97.18
760.043	95.75
760.222	94.19
760.402	94.83
760.581	94.19
760.761	92.52
760.94	91.66
761.12	92.9
761.299	92.45
761.479	91.32
761.658	92.45
761.838	93.63
762.017	94.22
762.197	94.2
762.376	94.63
762.555	94.11
762.735	94.4
762.914	91.85
763.093	92.09
763.273	91.53
763.452	91.29
763.631	89.29
763.81	91.37
763.99	91.31
764.169	92.47
764.348	92.83
764.527	94.03
764.706	92.98
764.885	93.07
765.064	92.6
765.243	92.92
765.423	93.28
765.602	92.16
765.781	93.39
765.96	92.46
766.139	92.1
766.318	90.79
766.497	93.32
766.676	90.95
766.854	92.1
767.033	92.46
767.212	92.81
767.391	90.45
767.57	91.74
767.749	88.92
767.928	87.34
768.106	87.91
768.285	87.78
768.464	86.44
768.643	89.31
768.821	90.9
769	92.85
769.179	94.37
769.357	94.76
769.536	93.1
769.715	93.03
769.893	92.28
770.072	91.13
770.25	92.89
770.429	93.34
770.607	92.47
770.786	91.73
770.964	91.28
771.143	89.99
771.321	89.28
771.5	90.52
771.678	89.77
771.857	90.5
772.035	93.08
772.213	93.75
772.392	91.76
772.57	93.1
772.748	94.88
772.927	92.75
773.105	92.36
773.283	91.5
773.461	89.18
773.64	87.14
773.818	87.75
773.996	86.43
774.174	87.43
774.352	87.02
774.531	88.63
774.709	86.49
774.887	90.4
775.065	91.98
775.243	93.06
775.421	91.12
775.599	90.5
775.777	88.94
775.955	86.81
776.133	89.11
776.311	90.45
776.489	91.88
776.667	91.36
776.844	93.02
777.022	91.29
777.2	92.39
777.378	92.15
777.556	91.51
777.734	88.79
777.911	89
778.089	88.05
778.267	85.71
778.445	84.46
778.622	85.11
778.8	85.97
778.978	85.56
779.155	87.21
779.333	87.94
779.511	86.94
779.688	83.93
779.866	81.74
780.043	81.01
780.221	81.05
780.398	81.37
780.576	81.51
780.753	84.71
780.931	86.89
781.108	88.08
781.286	88.63
781.463	90.34
781.64	90.02
781.818	88.27
781.995	85.91
782.172	87.25
782.35	84.98
782.527	83.13
782.704	84.52
782.882	87.73
783.059	87.61
783.236	87.14
783.413	87.59
783.59	85.23
783.768	83.09
783.945	87.09
784.122	87.1
784.299	87.57
784.476	89.18
784.653	89.05
784.83	85
785.007	86.49
785.184	84.34
785.361	82.2
785.538	82.15
785.715	82.1
785.892	79.51
786.069	81.85
786.246	84.17
786.423	85.35
786.6	84.4
786.776	86.07
786.953	83.24
787.13	82.88
787.307	83.53
787.484	83.77
787.66	85.07
787.837	83.65
788.014	84.37
788.191	79.02
788.367	80.49
788.544	83.69
788.721	86.51
788.897	82.56
789.074	84.04
789.25	81.27
789.427	77.33
789.603	74.66
789.78	77.14
789.956	77.13
790.133	81.81
790.309	83.74
790.486	81.24
790.662	82.96
790.839	85.82
791.015	79.26
791.192	76.49
791.368	82.98
791.544	78.02
791.721	75.02
791.897	76.57
792.073	79.36
792.249	76.55
792.426	80.91
792.602	79.53
792.778	80.39
792.954	78.03
793.13	76.64
793.307	77.27
793.483	79.67
793.659	81.15
793.835	81.91
794.011	86.7
794.187	87.31
794.363	84.97
794.539	79.43
794.715	82.01
794.891	80.53
795.067	76.41
795.243	75.9
795.419	80.28
795.595	78.26
795.771	81.5
795.947	79.2
796.122	82.96
796.298	85.16
796.474	84.14
796.65	76.76
796.826	82.34
797.001	82.52
797.177	76.42
797.353	76.17
797.529	77.2
797.704	75.49
797.88	77.56
798.056	79.26
798.231	83.94
798.407	83.01
798.582	82.08
798.758	81.22
798.934	83.52
799.109	79.33
799.285	84.11
799.46	85.52
799.636	82.84
799.811	82.53
799.986	78.86
800.162	75.54
800.337	78.02
800.513	78.45
800.688	76.67
800.863	75.46
801.039	76.03
801.214	71.82
801.389	73.33
801.565	70.7
801.74	80.91
801.915	83.38
802.09	83.54
802.265	81.1
802.441	82
802.616	74.34
802.791	74
802.966	72.44
803.141	73.91
803.316	73.99
803.491	73.15
803.666	71.36
803.841	74.46
804.016	73.01
804.191	75.83
804.366	84.75
804.541	77.22
804.716	74.31
804.891	73.05
805.066	74.29
805.241	69.24
805.416	73.14
805.591	73.16
805.765	78.41
805.94	74.88
806.115	66.72
806.29	74.45
806.464	78.66
806.639	69.97
806.814	66.35
806.989	74.83
807.163	72.74
807.338	74.27
807.512	79.82
807.687	85.77
807.862	77.82
808.036	70.35
808.211	67.16
808.385	66.66
808.56	64.7
808.734	64.66
808.909	68.13
809.083	66.18
809.258	64.55
809.432	71.24
809.606	71.67
809.781	65.3
809.955	60.95
810.13	62.23
810.304	61.32
810.478	68.76
810.652	70.35
810.827	75.64
811.001	75.75
811.175	71.8
811.349	67.02
811.524	65.27
811.698	65.96
811.872	67.72
812.046	72.26
812.22	76.44
812.394	86.55
812.568	88.45
812.742	84.31
812.916	89.85
813.09	81.9
813.264	80.93
813.438	84.27
813.612	85.68
813.786	75.25
813.96	85.45
814.134	77.6
814.308	68.14
814.482	64.92
814.656	61.22
814.83	54.1
815.003	55.72
815.177	50.14
815.351	50.97
815.525	59.09
815.698	58.8
815.872	56.87
816.046	74.93
816.219	72.35
816.393	65.1
816.567	66.15
816.74	68.87
816.914	58.39
817.088	55.36
817.261	58.7
817.435	64.58
817.608	67.93
817.782	69.49
817.955	81.51
818.129	84.6
818.302	71.15
818.475	63.42
818.649	73.92
818.822	70.02
818.996	62.85
819.169	65.59
819.342	68.89
819.516	63.15
819.689	61.74
819.862	68.8
820.035	76.05
820.209	69.62
820.382	74.83
820.555	73.67
820.728	71.7
820.901	61.17
821.075	61.3
821.248	69.05
821.421	66.24
821.594	59.6
821.767	71.28
821.94	73.85
822.113	57.65
822.286	58.05
822.459	66.54
822.632	63.18
822.805	71.8
822.978	80.71
823.151	82.35
823.324	84
823.496	81.5
823.669	72.87
823.842	64.63
824.015	67.42
824.188	56.39
824.361	68.28
824.533	68.82
824.706	75.1
824.879	72.41
825.051	65.24
825.224	45.85
825.397	51.14
825.569	49.99
825.742	51.51
825.915	53.61
826.087	58.22
826.26	53.01
826.432	62.64
826.605	71.59
826.777	69.76
826.95	68.99
827.122	61.24
827.295	51.86
827.467	55.34
827.64	51.94
827.812	48.11
827.984	50.37
828.157	42.36
828.329	31.25
828.501	53.4
828.674	63.79
828.846	69.99
829.018	82.24
829.19	80.08
829.363	63.41
829.535	65.59
829.707	61.35
829.879	51.85
830.051	41.85
830.223	49.77
830.395	36.64
830.568	28.8
830.74	45.75
830.912	49.7
831.084	50.99
831.256	47.98
831.428	51.55
831.6	41.12
831.772	55.86
831.943	61.59
832.115	78.74
832.287	80.09
832.459	82.3
832.631	72.03
832.803	63.62
832.975	61.47
833.146	65.19
833.318	82.69
833.49	96.26
833.662	107.35
833.833	83.47
834.005	79.03
834.177	71.92
834.348	66.44
834.52	47.3
834.692	41.3
834.863	36.79
835.035	40.26
835.206	42.22
835.378	47.24
835.549	60.99
835.721	65.5
835.892	69.15
836.064	67.18
836.235	74.05
836.407	71.74
836.578	64.61
836.749	38.94
836.921	43.03
837.092	59.69
837.264	50.72
837.435	53.6
837.606	67.28
837.777	67.56
837.949	35.86
838.12	41.78
838.291	51.88
838.462	58.05
838.633	37.46
838.805	70.75
838.976	89.55
839.147	94.47
839.318	89.6
839.489	102.08
839.66	109
839.831	113.11
840.002	89.7
840.173	110.9
840.344	97.48
840.515	79.25
840.686	67.18
840.857	73.61
841.028	75.2
841.199	62.53
841.369	70.96
841.54	77.78
841.711	77.63
841.882	66.26
842.053	74.79
842.223	71.48
842.394	75.14
842.565	65.43
842.736	70.75
842.906	29.27
843.077	12.53
843.248	12.86
843.418	71.83
843.589	39.05
843.759	27.42
843.93	51.99
844.101	60.68
844.271	52.34
844.442	65.64
844.612	78.88
844.783	60.37
844.953	43.06
845.123	32.38
845.294	5.37
845.464	20.74
845.635	38.02
845.805	71.38
845.975	67.09
846.146	118.73
846.316	88.51
846.486	84.86
846.656	41.62
846.827	66.79
846.997	55.97
847.167	50.32
847.337	33.85
847.507	35.04
847.677	38.75
847.848	54.95
848.018	69.1
848.188	95.85
848.358	97.58
848.528	102.91
848.698	111.39
848.868	113.62
849.038	101.36
849.208	38
849.378	63.76
849.548	27.72
849.718	41.86
849.887	21.86
850.057	44.42
850.227	14.01
850.397	22.29
850.567	-11.27
850.737	13.95
850.906	14.32
851.076	22.84
851.246	25.4
851.415	41.46
851.585	46.8
851.755	39.87
851.924	40.63
852.094	40.35
852.264	31.94
852.433	8.8
852.603	31.23
852.772	34.22
852.942	45.37
853.111	64.67
853.281	78.53
853.45	65.26
853.62	47.52
853.789	28.39
853.959	25.13
854.128	44.69
854.297	58.92
854.467	104.14
854.636	125.01
854.805	102.26
854.975	86.22
855.144	52.79
855.313	40.8
855.482	61.1
855.652	62.59
855.821	77.08
855.99	81.06
856.159	71.9
856.328	53.62
856.497	22.08
856.667	29.98
856.836	53.59
857.005	46.42
857.174	33.74
857.343	60.39
857.512	42.67
857.681	-37.24
857.85	-5.18
858.019	-28.44
858.188	-21.25
858.356	-9.6
858.525	39.32
858.694	67.74
858.863	88.53
859.032	72.97
859.201	64.76
859.369	46.83
859.538	4.92
859.707	-12.61
859.876	-17.55
860.044	19.85
860.213	11.98
860.382	13.95
860.55	38.08
860.719	41.91
860.888	83.23
861.056	94.39
861.225	92.75
861.393	86.83
861.562	92.06
861.73	77.38
861.899	60.84
862.067	78.63
862.236	65.87
862.404	57.45
862.572	60.89
862.741	55.84
862.909	40.63
863.078	43.07
863.246	49.99
863.414	39.34
863.582	79.69
863.751	67.58
863.919	76.45
864.087	94.07
864.255	77.5
864.424	49.05
864.592	48.12
864.76	49.35
864.928	37.34
865.096	31.28
865.264	27.14
865.432	23.65
865.6	28.77
865.768	29.03
865.936	27.46
866.104	34.59
866.272	6.18
866.44	-14.29
866.608	-33.77
866.776	-37.12
866.944	13.75
867.112	43.39
867.28	42.69
867.448	69.11
867.615	75.2
867.783	67.17
867.951	66.1
868.119	65.16
868.286	70.4
868.454	55.26
868.622	50.17
868.789	78.06
868.957	76.32
869.125	74.71
869.292	77.74
869.46	90.87
869.627	77.09
869.795	85.61
869.963	103.3
870.13	99.07
870.298	85.95
870.465	79.92
870.632	62.59
870.8	14.34
870.967	17.24
871.135	20.91
871.302	-26.54
871.469	7.28
871.637	19.02
871.804	13.49
871.971	0.29
872.139	44.08
872.306	50.24
872.473	69.33
872.64	82.43
872.807	59.89
872.975	29.34
873.142	15.01
873.309	-1.36
873.476	13.17
873.643	3.47
873.81	47.73
873.977	34.96
874.144	46.76
874.311	46.26
874.478	60.47
874.645	31.39
874.812	54.14
874.979	36.04
875.146	30.11
875.313	37.33
875.48	65.93
875.647	48.93
875.813	54.29
875.98	47.57
876.147	26.38
876.314	17.35
876.481	18.56
876.647	16.83
876.814	33.79
876.981	47.77
877.147	39.54
877.314	43.36
877.481	53.52
877.647	34
877.814	33.56
877.98	15.71
878.147	-3.26
878.314	-26.42
878.48	14.11
878.647	8.82
878.813	63.34
878.979	34.58
879.146	45.12
879.312	26.89
879.479	34.45
879.645	6.72
879.811	36.12
879.978	19.02
880.144	30.19
880.31	24.59
880.477	6.82
880.643	19.74
880.809	3.79
880.975	-6.39
881.142	-117.29
881.308	-65.07
881.474	-126
881.64	-166.84
881.806	-388.44
881.972	-81.95
882.138	78.88
882.304	37.45
882.47	22.23
882.636	40.71
882.802	29.51
882.968	0.21
883.134	-3.61
883.3	30.8
883.466	39.29
883.632	53.15
883.798	70.76
883.964	137.6
884.129	198.3
884.295	62.32
884.461	57.39
884.627	-6.72
884.793	23.13
884.958	31.85
885.124	36.44
885.29	39.09
885.455	47.84
885.621	52.02
885.787	30.06
885.952	48.88
886.118	51.89
886.283	56.76
886.449	34.43
886.614	38.33
886.78	41.62
886.945	42.23
887.111	35.5
887.276	46.9
887.442	52.29
887.607	20.55
887.773	28.26
887.938	28.09
888.103	46.28
888.269	74.6
888.434	67.86
888.599	48.65
888.764	52.61
888.93	59.32
889.095	35.03
889.26	31.66
889.425	52.53
889.59	62.72
889.756	33.17
889.921	18.74
890.086	6.63
890.251	-22.58
890.416	-51.78
890.581	-106.69
890.746	-35.1
890.911	-18.26
891.076	-7.54
891.241	-4.19
891.406	43.53
891.571	14.25
891.736	14.07
891.901	20.15
892.065	57.39
892.23	21.72
892.395	13.41
892.56	-49.84
892.725	-21.43
892.889	-22.09
893.054	23.09
893.219	42.76
893.384	68.41
893.548	70
893.713	74.9
893.878	79.47
