Data from Ofav_PP_Phys_369_Reflection_2.txt Node
Date: Tue Jul 27 19:07:31 EDT 2021
User: USUARIO
Spectrometer: FLMT01687
Trigger mode: 0
Integration Time (sec): 8.500000E-1
Scans to average: 2
Electric dark correction enabled: true
Nonlinearity correction enabled: false
Boxcar width: 2
XAxis mode: Wavelengths
Number of Pixels in Spectrum: 3648
>>>>>Begin Spectral Data<<<<<
179.494	-1233.33
179.716	-479.84
179.937	-300
180.158	-295.95
180.38	-293.5
180.601	-231.67
180.823	-16.64
181.044	63.42
181.265	39.64
181.486	-7
181.708	2.28
181.929	52.89
182.15	133.27
182.372	344.56
182.593	25.8
182.814	55.59
183.035	38.8
183.257	19.89
183.478	19.05
183.699	35.14
183.92	40.11
184.141	44.34
184.363	54.58
184.584	62.1
184.805	93.09
185.026	86.88
185.247	108.78
185.468	98.63
185.689	88.94
185.91	60.76
186.132	35.4
186.353	30.2
186.574	25.49
186.795	36.93
187.016	31.06
187.237	33.7
187.458	44.85
187.679	64.34
187.9	32.49
188.121	45.4
188.342	69.3
188.563	60.44
188.784	52.5
189.005	70.93
189.226	61.07
189.447	48.13
189.667	61.74
189.888	63.21
190.109	63.35
190.33	82.85
190.551	59.92
190.772	38.44
190.993	33.36
191.214	41.56
191.434	32.36
191.655	36.31
191.876	37.86
192.097	33.12
192.318	29.21
192.538	44.91
192.759	61.37
192.98	48.45
193.201	35.77
193.421	45.15
193.642	23
193.863	3.48
194.083	21.76
194.304	26.91
194.525	6.24
194.745	-8.06
194.966	-34.08
195.187	-67.04
195.407	-24.97
195.628	-22.03
195.848	11.33
196.069	46.09
196.29	100.99
196.51	75.71
196.731	69.76
196.951	75.98
197.172	77.16
197.392	47.94
197.613	56.88
197.833	43.56
198.054	45.95
198.274	41.16
198.495	59.35
198.715	60.77
198.936	94.19
199.156	112.13
199.377	160.22
199.597	145.33
199.817	125.58
200.038	152.61
200.258	89.9
200.479	39.31
200.699	61.99
200.919	25.56
201.14	48.44
201.36	26.06
201.58	24.23
201.801	4.81
202.021	21.65
202.241	8.9
202.461	30.05
202.682	38.59
202.902	51.02
203.122	69.45
203.342	68.07
203.563	54.43
203.783	54.68
204.003	41.84
204.223	33.56
204.443	36.77
204.663	6.27
204.884	-13.51
205.104	15.09
205.324	27.01
205.544	15.73
205.764	35.62
205.984	47.81
206.204	34.29
206.424	16.12
206.644	31.82
206.864	39.39
207.084	40.71
207.304	48.62
207.525	51.51
207.745	59.35
207.964	59.02
208.184	69.64
208.404	65.49
208.624	69.12
208.844	74.69
209.064	62.54
209.284	45.72
209.504	53.37
209.724	34.95
209.944	-8.36
210.164	16.96
210.384	42.96
210.604	2.79
210.823	39.36
211.043	53.22
211.263	46.26
211.483	59.19
211.703	70.47
211.922	69.73
212.142	106.37
212.362	72.1
212.582	51.41
212.801	56.89
213.021	50.68
213.241	1.9
213.461	-11.58
213.68	4.22
213.9	-45.72
214.12	-14.94
214.339	27.46
214.559	36.45
214.779	28.55
214.998	46.06
215.218	19.53
215.438	19.08
215.657	35.73
215.877	41.58
216.096	41.7
216.316	85.21
216.535	66.5
216.755	83.27
216.974	88.21
217.194	79.83
217.413	59.54
217.633	72.77
217.852	39.76
218.072	24.11
218.291	24.79
218.511	9.47
218.73	11.85
218.95	6.96
219.169	16.67
219.389	0.05
219.608	-10.96
219.827	2.35
220.047	18.57
220.266	35.66
220.485	45.32
220.705	59.73
220.924	47.98
221.143	32.88
221.363	3.25
221.582	4.14
221.801	-2.51
222.021	8.24
222.24	23.69
222.459	27.98
222.678	33.65
222.897	49.04
223.117	61.07
223.336	66.86
223.555	54.75
223.774	45.18
223.993	45.79
224.213	31.95
224.432	34.59
224.651	48.48
224.87	39.33
225.089	37.11
225.308	38.19
225.527	46.57
225.746	48.66
225.965	62.83
226.184	48.96
226.404	47.66
226.623	36.01
226.842	23.08
227.061	18.28
227.28	34.12
227.499	50.21
227.718	42.83
227.936	48.05
228.155	48.4
228.374	49.24
228.593	41.05
228.812	55.65
229.031	60.47
229.25	63.78
229.469	69.72
229.688	78.46
229.907	54.05
230.125	57.68
230.344	79.06
230.563	76.74
230.782	74.81
231.001	65.4
231.22	51.24
231.438	25.78
231.657	6.1
231.876	-2.12
232.095	8.42
232.313	23.74
232.532	37.61
232.751	63.27
232.969	58.38
233.188	55.47
233.407	45.89
233.625	31.05
233.844	8.21
234.063	17.36
234.281	30.42
234.5	18.12
234.719	44.56
234.937	32.12
235.156	29
235.374	26.03
235.593	42.49
235.811	19.3
236.03	23.45
236.249	19.9
236.467	18.81
236.686	18.89
236.904	32.1
237.123	46.79
237.341	53.54
237.559	47.63
237.778	49.34
237.996	44.77
238.215	31.75
238.433	33.76
238.652	34.66
238.87	29.6
239.088	11.3
239.307	19.61
239.525	-11.61
239.743	-23.7
239.962	-12.95
240.18	15.86
240.398	15.66
240.617	35.94
240.835	51.02
241.053	53.5
241.271	37.7
241.49	38.33
241.708	54.13
241.926	29.03
242.144	14.38
242.363	47.34
242.581	67.6
242.799	35.84
243.017	41.84
243.235	79.89
243.453	55.94
243.672	49.6
243.89	41.86
244.108	35.32
244.326	36.18
244.544	19.1
244.762	8.79
244.98	39.05
245.198	59.98
245.416	58.69
245.634	71.9
245.852	98.39
246.07	81.76
246.288	70.49
246.506	72.28
246.724	78.98
246.942	66.49
247.16	58.51
247.378	55.86
247.596	43.14
247.814	40.12
248.032	24.65
248.25	24.94
248.468	15.78
248.685	16.25
248.903	7.57
249.121	12.72
249.339	28.27
249.557	40.1
249.775	26.6
249.992	24.66
250.21	36.02
250.428	22.43
250.646	8.53
250.863	28.31
251.081	44.52
251.299	23.03
251.517	25.45
251.734	42.66
251.952	31.26
252.17	24.48
252.387	24.37
252.605	46.94
252.823	48.93
253.04	53.01
253.258	49.73
253.475	58.85
253.693	60.92
253.911	64.59
254.128	66.91
254.346	81.85
254.563	81.73
254.781	74.64
254.998	77.33
255.216	48.78
255.433	30.18
255.651	26.91
255.868	19.4
256.086	4.64
256.303	21.69
256.521	45.94
256.738	40.76
256.956	33.64
257.173	43.47
257.39	35.61
257.608	21.29
257.825	39.39
258.043	51.96
258.26	51.4
258.477	57.14
258.695	43.28
258.912	33.41
259.129	20.5
259.346	14.86
259.564	24.92
259.781	57.74
259.998	40.03
260.216	57.16
260.433	60.41
260.65	58.37
260.867	58.74
261.084	66.91
261.302	43.52
261.519	41.07
261.736	23.28
261.953	17.06
262.17	18.31
262.387	23.06
262.604	30.51
262.822	43.41
263.039	37.16
263.256	39.53
263.473	54.5
263.69	53.19
263.907	40.32
264.124	51.24
264.341	61.04
264.558	55.41
264.775	54.84
264.992	66.24
265.209	52.89
265.426	40.95
265.643	42.36
265.86	29.43
266.077	22.06
266.294	37.8
266.51	48.22
266.727	49.27
266.944	50.58
267.161	-11.6
267.378	-33.88
267.595	-25.47
267.812	-25.33
268.028	-16.07
268.245	59.21
268.462	70.48
268.679	38.94
268.896	12.86
269.112	-12.71
269.329	-12.39
269.546	8.11
269.763	9.01
269.979	24.99
270.196	55.32
270.413	66.07
270.629	64.57
270.846	81.81
271.063	64.83
271.279	46
271.496	20.93
271.712	0.93
271.929	-19.92
272.146	-19.73
272.362	20.96
272.579	33.42
272.795	46.6
273.012	41
273.228	33.85
273.445	36.12
273.661	37.49
273.878	20.5
274.094	20.54
274.311	37.21
274.527	29.81
274.744	20.88
274.96	28.26
275.177	26.47
275.393	17.71
275.609	17.26
275.826	22.43
276.042	29.49
276.259	48.58
276.475	53.51
276.691	41.16
276.908	45.37
277.124	41.81
277.34	32.79
277.557	17
277.773	28
277.989	22.74
278.205	30.81
278.422	28.29
278.638	37.49
278.854	45.18
279.07	43.15
279.286	31.11
279.503	22.47
279.719	37.52
279.935	48.96
280.151	56.77
280.367	69.91
280.583	82.42
280.799	84.96
281.016	65.38
281.232	55.15
281.448	44.48
281.664	30.36
281.88	11.28
282.096	24.76
282.312	27.16
282.528	15.05
282.744	25.97
282.96	25.54
283.176	32.62
283.392	43.86
283.608	75.31
283.824	62.68
284.04	35.82
284.256	26.71
284.471	23.25
284.687	13.1
284.903	10.56
285.119	39.5
285.335	40.06
285.551	29.96
285.767	45.56
285.982	49.3
286.198	42.67
286.414	21.35
286.63	15.58
286.846	-3.46
287.061	0.82
287.277	-5.09
287.493	11.32
287.709	28.58
287.924	40.91
288.14	58.13
288.356	62.42
288.571	75.33
288.787	61.9
289.003	53.43
289.218	27.52
289.434	19.43
289.65	3.99
289.865	-17.23
290.081	-13.34
290.296	-7.53
290.512	-6.99
290.727	6.56
290.943	11.42
291.159	38.94
291.374	52.48
291.59	54.77
291.805	48.79
292.021	55.13
292.236	44.76
292.451	37.2
292.667	36.21
292.882	33.61
293.098	34.2
293.313	41.77
293.529	61.55
293.744	65.77
293.959	61.04
294.175	62.16
294.39	47.61
294.605	34.88
294.821	30.61
295.036	30.47
295.251	32.59
295.467	53.2
295.682	36.8
295.897	32.68
296.112	66.76
296.328	58.37
296.543	57.55
296.758	58.1
296.973	53.86
297.188	52.87
297.404	47.88
297.619	34.8
297.834	39.24
298.049	48.73
298.264	39.74
298.479	39.18
298.694	41.29
298.909	40.94
299.125	31.79
299.34	20.26
299.555	31.73
299.77	37.58
299.985	29.87
300.2	34.74
300.415	43.36
300.63	29.98
300.845	36.36
301.06	41.32
301.275	39.9
301.49	23.93
301.704	31.06
301.919	27.56
302.134	38.77
302.349	31.18
302.564	38.47
302.779	20.36
302.994	20.91
303.209	19.24
303.423	8.7
303.638	-0.13
303.853	25.33
304.068	29.26
304.283	24.27
304.497	32.4
304.712	32.74
304.927	28.92
305.142	30.99
305.356	10.94
305.571	22.9
305.786	30.15
306	23.41
306.215	19.88
306.43	33.85
306.644	33.53
306.859	28.39
307.074	36.69
307.288	37.36
307.503	35.24
307.717	31.4
307.932	44.63
308.147	48.34
308.361	43.74
308.576	41.22
308.79	52.24
309.005	18.27
309.219	13.92
309.434	15.59
309.648	29.63
309.863	15.45
310.077	32.31
310.292	21.74
310.506	16.57
310.72	16.41
310.935	18.24
311.149	28
311.364	36.8
311.578	35.34
311.792	43.66
312.007	41.4
312.221	33.31
312.435	36.59
312.649	51.88
312.864	41.21
313.078	32.13
313.292	14.76
313.507	24.43
313.721	29.13
313.935	27.79
314.149	35.91
314.363	42.63
314.578	42.83
314.792	31.53
315.006	37.28
315.22	31.91
315.434	36.78
315.648	13.55
315.862	12.98
316.077	7.92
316.291	5.62
316.505	-6.67
316.719	28.26
316.933	32.71
317.147	18.65
317.361	31.18
317.575	23.47
317.789	19.77
318.003	18.01
318.217	30.71
318.431	34.16
318.645	48.37
318.859	49.93
319.073	34.35
319.287	25.76
319.5	7.24
319.714	6.4
319.928	7.3
320.142	9.5
320.356	37.53
320.57	47.77
320.784	48.92
320.997	45.59
321.211	56.06
321.425	44.74
321.639	28.11
321.853	26.72
322.066	29.79
322.28	11.51
322.494	13.28
322.707	27.19
322.921	22.17
323.135	15.84
323.349	21.25
323.562	15.39
323.776	3.75
323.989	-0.71
324.203	11.48
324.417	22.59
324.63	51
324.844	62.45
325.057	81.81
325.271	96.59
325.485	59.54
325.698	49.2
325.912	58.63
326.125	57.99
326.339	45.75
326.552	54.11
326.766	36.4
326.979	23.46
327.193	1.18
327.406	-4.78
327.619	-5.25
327.833	-0.7
328.046	17.59
328.26	14.93
328.473	8.49
328.686	11.24
328.9	18.04
329.113	3.98
329.326	18.83
329.54	18.44
329.753	-0.2
329.966	-7.09
330.179	1.26
330.393	23.67
330.606	14.41
330.819	28.13
331.032	33.54
331.246	39.88
331.459	25.82
331.672	44.57
331.885	52.35
332.098	69.84
332.311	64.89
332.525	67.68
332.738	52.63
332.951	57.95
333.164	28.41
333.377	27.32
333.59	35.62
333.803	49
334.016	24.89
334.229	38.83
334.442	35.9
334.655	41.74
334.868	37.68
335.081	38.13
335.294	43.83
335.507	56.95
335.72	56.71
335.933	41.73
336.146	45.84
336.359	38.9
336.572	33.2
336.785	28.58
336.997	49
337.21	55.23
337.423	53.08
337.636	54.87
337.849	39.54
338.062	36.51
338.274	30.58
338.487	36.95
338.7	20.78
338.913	12.08
339.125	8.75
339.338	11.34
339.551	-21.98
339.763	-0.35
339.976	21
340.189	12.81
340.402	15.74
340.614	34.54
340.827	30.53
341.039	15.72
341.252	14.87
341.465	-7.41
341.677	-3.92
341.89	-18.49
342.102	7.56
342.315	23.86
342.527	30.87
342.74	23.55
342.952	13.22
343.165	26.61
343.377	18.68
343.59	21.44
343.802	30.62
344.015	35.84
344.227	11.11
344.44	-13.24
344.652	0.54
344.864	-20.51
345.077	-15.52
345.289	-17.14
345.502	-11.24
345.714	-7.89
345.926	-0.99
346.139	16.56
346.351	25.86
346.563	31.16
346.775	35.74
346.988	24.83
347.2	19.9
347.412	30.25
347.624	18.68
347.837	-8.35
348.049	5.47
348.261	19.85
348.473	18.39
348.685	33.06
348.897	39.27
349.11	37.41
349.322	15.34
349.534	17.12
349.746	16.24
349.958	15.47
350.17	17.09
350.382	22.82
350.594	24.83
350.806	29.98
351.018	29.04
351.23	30.69
351.442	33.8
351.654	27.38
351.866	15.75
352.078	19.18
352.29	12.2
352.502	21.23
352.714	28.05
352.926	27.82
353.138	35.66
353.35	50.44
353.561	39.8
353.773	28.58
353.985	28.21
354.197	15.76
354.409	18.03
354.621	24.45
354.832	36.15
355.044	48.78
355.256	57.17
355.468	59.35
355.679	59.04
355.891	63.56
356.103	62.34
356.314	59.73
356.526	54.16
356.738	57.6
356.949	44.39
357.161	46.27
357.373	42.84
357.584	42.36
357.796	42.26
358.008	40.62
358.219	37.97
358.431	38.11
358.642	35.26
358.854	41.96
359.065	36.71
359.277	37.61
359.488	40.37
359.7	46.75
359.911	47.3
360.123	58.66
360.334	46.97
360.546	36.27
360.757	36.8
360.969	11.79
361.18	18.41
361.391	19.6
361.603	39.67
361.814	37.95
362.025	49.76
362.237	39.47
362.448	47.59
362.659	28.76
362.871	27.09
363.082	26.08
363.293	13.68
363.504	6.82
363.716	9.44
363.927	-6.61
364.138	-2.22
364.349	17.49
364.56	11.66
364.772	14.17
364.983	36.19
365.194	29.98
365.405	41.19
365.616	35
365.827	40.5
366.038	37.15
366.25	44.84
366.461	42.51
366.672	42.08
366.883	40.29
367.094	29.57
367.305	23.92
367.516	13.95
367.727	39.99
367.938	39.12
368.149	46.39
368.36	42.75
368.571	36.24
368.781	21.33
368.992	22.48
369.203	21.91
369.414	24.61
369.625	30.74
369.836	35.4
370.047	33.45
370.258	31.14
370.468	29.22
370.679	16.82
370.89	6.68
371.101	6.15
371.312	9.24
371.522	1.05
371.733	14
371.944	17.43
372.155	24.22
372.365	11.35
372.576	21.7
372.787	22.86
372.997	29.88
373.208	31.76
373.419	40.92
373.629	37.79
373.84	39.17
374.05	37.8
374.261	29.2
374.472	21.53
374.682	24.55
374.893	18.8
375.103	16.24
375.314	23.99
375.524	37.89
375.735	37
375.945	38.31
376.156	34.73
376.366	28.88
376.577	22.08
376.787	17.75
376.997	19.3
377.208	25.54
377.418	29.44
377.629	30.07
377.839	40.47
378.049	51.22
378.26	49.83
378.47	50.47
378.68	46.26
378.89	51
379.101	38.95
379.311	40.68
379.521	39.63
379.732	43.85
379.942	45.22
380.152	40.4
380.362	38.28
380.572	29.79
380.783	21.25
380.993	7.51
381.203	15.18
381.413	7.42
381.623	21.72
381.833	30.78
382.043	31.31
382.253	29.45
382.463	26
382.674	28.98
382.884	26.24
383.094	22.75
383.304	27.6
383.514	36.14
383.724	18.75
383.934	12.97
384.144	6.66
384.353	1.84
384.563	0.67
384.773	9.43
384.983	10.28
385.193	12.55
385.403	17.58
385.613	21.09
385.823	18
386.033	20.57
386.242	26.25
386.452	19.41
386.662	22.35
386.872	25.69
387.082	22.32
387.291	12.83
387.501	13.08
387.711	8.37
387.921	7.11
388.13	7
388.34	12.95
388.55	13.84
388.759	10.33
388.969	6.93
389.179	7.81
389.388	6.63
389.598	7.84
389.807	8.67
390.017	9
390.227	10.67
390.436	12.79
390.646	11.52
390.855	11.21
391.065	8.99
391.274	7.83
391.484	4.72
391.693	5.29
391.903	7.4
392.112	10.01
392.322	7.26
392.531	7.82
392.74	7.96
392.95	6.31
393.159	6.58
393.369	8.88
393.578	9.01
393.787	8.22
393.997	9.39
394.206	9.7
394.415	8.93
394.625	9.06
394.834	8.45
395.043	7.6
395.252	7.13
395.462	7.88
395.671	7.43
395.88	8.63
396.089	9.25
396.298	8.65
396.508	8.21
396.717	8.77
396.926	8.32
397.135	7.84
397.344	8.22
397.553	8.66
397.762	7.92
397.971	7.79
398.181	7.45
398.39	6.86
398.599	6.88
398.808	7.03
399.017	7.3
399.226	7.81
399.435	8.37
399.644	8.33
399.853	8.41
400.062	8.26
400.27	7.9
400.479	7.62
400.688	7.35
400.897	7.43
401.106	7.69
401.315	8.14
401.524	8.37
401.733	8.33
401.941	8.3
402.15	8.1
402.359	7.66
402.568	7.59
402.777	7.54
402.985	7.57
403.194	8.01
403.403	8.28
403.612	8.05
403.82	8.22
404.029	8.07
404.238	7.76
404.446	7.72
404.655	7.73
404.864	7.61
405.072	7.59
405.281	7.45
405.489	7.26
405.698	7.33
405.906	7.37
406.115	7.38
406.324	7.26
406.532	7.27
406.741	7.25
406.949	7.27
407.158	7.15
407.366	7.13
407.574	7.29
407.783	7.33
407.991	7.15
408.2	7.27
408.408	7.35
408.617	7.14
408.825	7
409.033	7.08
409.242	7.01
409.45	7.05
409.658	7.2
409.867	7.19
410.075	7.1
410.283	7.02
410.491	6.9
410.7	6.71
410.908	6.73
411.116	6.78
411.324	6.77
411.533	6.74
411.741	6.58
411.949	6.48
412.157	6.47
412.365	6.61
412.573	6.63
412.781	6.75
412.99	6.88
413.198	7.05
413.406	7.01
413.614	7.11
413.822	7.15
414.03	7.03
414.238	6.79
414.446	6.76
414.654	6.63
414.862	6.59
415.07	6.44
415.278	6.53
415.486	6.3
415.694	6.18
415.902	6.16
416.109	6.22
416.317	6.26
416.525	6.38
416.733	6.51
416.941	6.6
417.149	6.59
417.357	6.44
417.564	6.28
417.772	6.38
417.98	6.4
418.188	6.62
418.395	6.52
418.603	6.58
418.811	6.49
419.019	6.27
419.226	6.16
419.434	6.37
419.642	6.55
419.849	6.52
420.057	6.46
420.265	6.5
420.472	6.27
420.68	6.09
420.887	6.13
421.095	6.24
421.302	6.11
421.51	6.17
421.717	6.22
421.925	6.14
422.132	6.12
422.34	6.07
422.547	6.03
422.755	6.16
422.962	6.08
423.17	6.19
423.377	6.28
423.585	6.35
423.792	6.2
423.999	6.08
424.207	5.83
424.414	5.55
424.621	5.57
424.829	5.42
425.036	5.6
425.243	5.64
425.451	5.85
425.658	5.71
425.865	6.02
426.072	5.93
426.28	6.01
426.487	5.98
426.694	5.95
426.901	5.85
427.108	5.89
427.315	5.78
427.523	5.83
427.73	5.85
427.937	5.65
428.144	5.71
428.351	5.6
428.558	5.66
428.765	5.72
428.972	5.77
429.179	5.71
429.386	5.92
429.593	5.77
429.8	5.82
430.007	5.78
430.214	5.83
430.421	5.86
430.628	5.96
430.835	5.96
431.042	6.05
431.249	6.08
431.456	6.19
431.662	6.3
431.869	6.3
432.076	6.27
432.283	6.21
432.49	6.12
432.697	6
432.903	5.91
433.11	6.04
433.317	5.94
433.524	5.86
433.73	5.81
433.937	5.86
434.144	5.78
434.35	5.89
434.557	5.89
434.764	5.91
434.97	5.79
435.177	5.97
435.384	5.85
435.59	5.88
435.797	5.85
436.003	6.03
436.21	5.79
436.416	5.8
436.623	5.68
436.829	5.68
437.036	5.6
437.242	5.61
437.449	5.64
437.655	5.87
437.862	5.95
438.068	5.88
438.275	5.97
438.481	5.97
438.687	5.84
438.894	5.79
439.1	5.79
439.307	5.67
439.513	5.66
439.719	5.78
439.926	5.68
440.132	5.81
440.338	5.82
440.544	5.76
440.751	5.63
440.957	5.74
441.163	5.68
441.369	5.76
441.575	5.93
441.782	6.02
441.988	5.96
442.194	6
442.4	5.99
442.606	6.02
442.812	6.07
443.018	6.08
443.224	6
443.431	5.86
443.637	5.81
443.843	5.6
444.049	5.6
444.255	5.58
444.461	5.65
444.667	5.55
444.873	5.65
445.079	5.74
445.284	5.78
445.49	5.7
445.696	5.71
445.902	5.65
446.108	5.62
446.314	5.67
446.52	5.83
446.726	5.97
446.931	6.02
447.137	5.99
447.343	5.84
447.549	5.73
447.755	5.6
447.96	5.59
448.166	5.57
448.372	5.72
448.578	5.75
448.783	5.77
448.989	5.79
449.195	5.82
449.4	5.77
449.606	5.76
449.812	5.68
450.017	5.71
450.223	5.67
450.428	5.68
450.634	5.72
450.84	5.75
451.045	5.78
451.251	5.79
451.456	5.81
451.662	5.79
451.867	5.85
452.073	5.79
452.278	5.8
452.483	5.72
452.689	5.73
452.894	5.78
453.1	5.76
453.305	5.79
453.51	5.87
453.716	5.86
453.921	5.81
454.127	5.87
454.332	5.8
454.537	5.78
454.742	5.72
454.948	5.68
455.153	5.72
455.358	5.86
455.563	5.9
455.769	5.95
455.974	5.98
456.179	5.88
456.384	5.71
456.589	5.7
456.795	5.65
457	5.6
457.205	5.54
457.41	5.51
457.615	5.42
457.82	5.4
458.025	5.43
458.23	5.53
458.435	5.52
458.64	5.52
458.845	5.5
459.05	5.52
459.255	5.5
459.46	5.56
459.665	5.74
459.87	5.8
460.075	5.91
460.28	5.97
460.485	6.02
460.69	5.91
460.895	5.97
461.099	5.89
461.304	5.81
461.509	5.82
461.714	5.88
461.919	5.91
462.123	5.98
462.328	5.95
462.533	5.95
462.738	5.93
462.942	5.83
463.147	5.84
463.352	5.8
463.556	5.84
463.761	5.75
463.966	5.73
464.17	5.77
464.375	5.88
464.58	5.82
464.784	5.92
464.989	6.01
465.193	5.92
465.398	6
465.602	6.1
465.807	6.08
466.011	6.03
466.216	6.02
466.42	6.13
466.625	6.06
466.829	6.04
467.034	6.18
467.238	6.22
467.443	6.18
467.647	6.18
467.851	6.25
468.056	6.11
468.26	6.06
468.464	5.96
468.669	5.99
468.873	6.01
469.077	6.05
469.282	6.1
469.486	6.11
469.69	6.07
469.894	6.05
470.099	6.1
470.303	6.08
470.507	6.02
470.711	6.12
470.915	6.18
471.119	6.26
471.324	6.23
471.528	6.27
471.732	6.29
471.936	6.17
472.14	6.13
472.344	6.17
472.548	6.16
472.752	6.11
472.956	6.12
473.16	6.21
473.364	6.2
473.568	6.25
473.772	6.24
473.976	6.27
474.18	6.08
474.384	6.08
474.588	6.09
474.792	6.11
474.995	6.08
475.199	6.15
475.403	6.15
475.607	6.13
475.811	6.14
476.015	6.21
476.218	6.15
476.422	6.13
476.626	6.16
476.83	6.21
477.033	6.15
477.237	6.17
477.441	6.18
477.644	6.16
477.848	6.09
478.052	6.02
478.255	6.05
478.459	5.99
478.663	5.96
478.866	5.87
479.07	6.05
479.273	6.03
479.477	6.04
479.681	6.12
479.884	6.19
480.088	6.1
480.291	6.13
480.495	6.22
480.698	6.14
480.901	6.17
481.105	6.15
481.308	6.12
481.512	6.08
481.715	6.01
481.919	5.99
482.122	5.96
482.325	5.94
482.529	5.92
482.732	5.97
482.935	5.91
483.138	6.02
483.342	5.98
483.545	5.98
483.748	5.94
483.952	5.98
484.155	5.82
484.358	5.95
484.561	6
484.764	5.98
484.967	5.96
485.171	6.02
485.374	5.9
485.577	5.82
485.78	5.86
485.983	5.88
486.186	5.88
486.389	5.92
486.592	5.99
486.795	6.06
486.998	6.05
487.201	5.99
487.404	6.02
487.607	6.02
487.81	5.96
488.013	5.93
488.216	6.07
488.419	5.98
488.622	5.87
488.825	5.85
489.028	5.92
489.231	5.88
489.433	5.89
489.636	5.99
489.839	5.94
490.042	5.82
490.245	5.77
490.447	5.77
490.65	5.74
490.853	5.72
491.056	5.82
491.258	5.77
491.461	5.81
491.664	5.73
491.866	5.75
492.069	5.7
492.272	5.74
492.474	5.79
492.677	5.85
492.879	5.89
493.082	5.8
493.285	5.89
493.487	5.81
493.69	5.74
493.892	5.7
494.095	5.78
494.297	5.66
494.5	5.63
494.702	5.68
494.905	5.71
495.107	5.73
495.309	5.69
495.512	5.67
495.714	5.71
495.917	5.71
496.119	5.69
496.321	5.79
496.524	5.81
496.726	5.8
496.928	5.78
497.13	5.83
497.333	5.8
497.535	5.8
497.737	5.73
497.939	5.74
498.142	5.72
498.344	5.74
498.546	5.79
498.748	5.87
498.95	5.85
499.152	5.83
499.355	5.73
499.557	5.7
499.759	5.74
499.961	5.81
500.163	5.85
500.365	5.94
500.567	5.91
500.769	5.85
500.971	5.86
501.173	5.84
501.375	5.85
501.577	5.98
501.779	5.97
501.981	5.98
502.183	5.94
502.385	5.92
502.587	5.81
502.788	5.84
502.99	5.76
503.192	5.76
503.394	5.78
503.596	5.84
503.798	5.93
503.999	5.96
504.201	5.97
504.403	5.99
504.605	6.01
504.806	5.94
505.008	6.02
505.21	5.99
505.411	5.92
505.613	5.88
505.815	5.87
506.016	5.78
506.218	5.88
506.42	5.84
506.621	5.91
506.823	5.95
507.024	5.97
507.226	5.99
507.427	6.03
507.629	5.99
507.83	5.9
508.032	5.82
508.233	5.78
508.435	5.79
508.636	5.82
508.838	5.84
509.039	5.89
509.24	5.83
509.442	5.85
509.643	5.76
509.845	5.75
510.046	5.76
510.247	5.84
510.448	5.9
510.65	5.94
510.851	5.95
511.052	5.98
511.254	5.96
511.455	5.97
511.656	6
511.857	5.98
512.058	5.97
512.26	6
512.461	5.98
512.662	5.97
512.863	5.92
513.064	5.92
513.265	5.88
513.466	5.89
513.667	5.88
513.868	5.9
514.069	5.92
514.27	5.89
514.471	5.86
514.672	5.87
514.873	5.97
515.074	5.97
515.275	6.01
515.476	6
515.677	5.99
515.878	5.92
516.079	5.92
516.28	5.91
516.481	5.91
516.682	5.95
516.882	5.93
517.083	5.93
517.284	5.95
517.485	5.95
517.686	5.97
517.886	6.03
518.087	6
518.288	6.03
518.488	6.02
518.689	5.98
518.89	5.95
519.091	6
519.291	5.96
519.492	5.99
519.692	6
519.893	6.03
520.094	5.96
520.294	5.99
520.495	5.98
520.695	6.02
520.896	6.04
521.096	6.08
521.297	6.08
521.497	6.1
521.698	6.02
521.898	5.98
522.099	5.99
522.299	5.95
522.499	5.91
522.7	5.9
522.9	5.94
523.101	5.93
523.301	5.95
523.501	6
523.702	6.08
523.902	6.04
524.102	6.1
524.302	6.12
524.503	6.13
524.703	6.14
524.903	6.19
525.103	6.12
525.304	6.09
525.504	6.08
525.704	6.04
525.904	6.02
526.104	6.04
526.304	6.07
526.504	6.05
526.705	6.02
526.905	6.05
527.105	6.05
527.305	6.02
527.505	6.04
527.705	6.07
527.905	6.04
528.105	6.01
528.305	5.99
528.505	6.01
528.705	6.05
528.905	5.99
529.105	6.03
529.304	6.03
529.504	6.04
529.704	5.99
529.904	6.06
530.104	6.09
530.304	6.08
530.503	6.1
530.703	6.08
530.903	6.1
531.103	6.1
531.303	6.16
531.502	6.17
531.702	6.21
531.902	6.18
532.101	6.14
532.301	6.18
532.501	6.08
532.7	6.13
532.9	6.08
533.1	6.12
533.299	6.07
533.499	6.18
533.698	6.11
533.898	6.14
534.097	6.14
534.297	6.16
534.496	6.12
534.696	6.13
534.895	6.15
535.095	6.16
535.294	6.14
535.494	6.09
535.693	6.12
535.892	6.1
536.092	6.1
536.291	6.09
536.491	6.18
536.69	6.15
536.889	6.17
537.088	6.13
537.288	6.14
537.487	6.14
537.686	6.18
537.886	6.27
538.085	6.32
538.284	6.32
538.483	6.32
538.682	6.35
538.882	6.34
539.081	6.36
539.28	6.44
539.479	6.42
539.678	6.47
539.877	6.43
540.076	6.43
540.275	6.35
540.474	6.39
540.673	6.35
540.872	6.45
541.071	6.5
541.27	6.57
541.469	6.54
541.668	6.52
541.867	6.48
542.066	6.45
542.265	6.52
542.464	6.51
542.663	6.6
542.862	6.64
543.06	6.71
543.259	6.66
543.458	6.76
543.657	6.78
543.856	6.79
544.054	6.75
544.253	6.74
544.452	6.72
544.651	6.69
544.849	6.68
545.048	6.7
545.247	6.81
545.445	6.81
545.644	6.82
545.843	6.87
546.041	6.9
546.24	6.87
546.438	6.94
546.637	6.98
546.836	7.03
547.034	7.11
547.233	7.18
547.431	7.17
547.63	7.21
547.828	7.22
548.027	7.24
548.225	7.21
548.423	7.21
548.622	7.21
548.82	7.19
549.019	7.14
549.217	7.11
549.415	7.16
549.614	7.17
549.812	7.16
550.01	7.16
550.209	7.27
550.407	7.31
550.605	7.3
550.803	7.32
551.002	7.35
551.2	7.4
551.398	7.45
551.596	7.56
551.794	7.62
551.993	7.63
552.191	7.58
552.389	7.59
552.587	7.63
552.785	7.67
552.983	7.82
553.181	7.92
553.379	7.92
553.577	7.95
553.775	7.98
553.973	7.91
554.171	7.88
554.369	7.91
554.567	7.93
554.765	8
554.963	8.1
555.161	8.17
555.359	8.24
555.557	8.35
555.755	8.39
555.952	8.43
556.15	8.48
556.348	8.46
556.546	8.42
556.744	8.42
556.941	8.39
557.139	8.46
557.337	8.6
557.535	8.62
557.732	8.67
557.93	8.79
558.128	8.78
558.325	8.76
558.523	8.81
558.721	8.85
558.918	8.83
559.116	8.97
559.313	9.02
559.511	9.06
559.708	9.05
559.906	9.12
560.104	9.1
560.301	9.16
560.498	9.22
560.696	9.27
560.893	9.37
561.091	9.4
561.288	9.43
561.486	9.44
561.683	9.51
561.88	9.45
562.078	9.45
562.275	9.4
562.473	9.48
562.67	9.45
562.867	9.5
563.064	9.52
563.262	9.63
563.459	9.65
563.656	9.77
563.853	9.87
564.051	9.92
564.248	9.95
564.445	10
564.642	9.98
564.839	10.04
565.036	10.14
565.234	10.17
565.431	10.2
565.628	10.19
565.825	10.12
566.022	10.24
566.219	10.3
566.416	10.31
566.613	10.45
566.81	10.59
567.007	10.48
567.204	10.48
567.401	10.62
567.598	10.67
567.795	10.73
567.991	10.8
568.188	10.91
568.385	10.87
568.582	10.9
568.779	10.95
568.976	11.04
569.172	11.11
569.369	11.16
569.566	11.24
569.763	11.19
569.96	11.24
570.156	11.23
570.353	11.25
570.55	11.22
570.746	11.41
570.943	11.41
571.14	11.47
571.336	11.56
571.533	11.56
571.729	11.58
571.926	11.61
572.123	11.65
572.319	11.68
572.516	11.79
572.712	11.74
572.909	11.81
573.105	11.87
573.302	11.88
573.498	11.88
573.695	11.95
573.891	11.97
574.087	11.91
574.284	12.01
574.48	12.06
574.677	12.03
574.873	12.16
575.069	12.32
575.266	12.39
575.462	12.39
575.658	12.49
575.854	12.59
576.051	12.62
576.247	12.65
576.443	12.85
576.639	12.95
576.835	12.89
577.032	12.81
577.228	12.86
577.424	12.82
577.62	12.85
577.816	12.79
578.012	12.94
578.208	12.95
578.404	12.93
578.6	12.93
578.796	13.05
578.993	13.06
579.189	13.1
579.384	13.13
579.58	13.15
579.776	13.08
579.972	13.1
580.168	13.07
580.364	13.03
580.56	13.04
580.756	13.08
580.952	13.06
581.148	13.03
581.343	13.19
581.539	13.16
581.735	13.17
581.931	13.18
582.127	13.27
582.322	13.24
582.518	13.18
582.714	13.2
582.909	13.2
583.105	13.13
583.301	13.14
583.496	13.21
583.692	13.22
583.888	13.23
584.083	13.15
584.279	13.07
584.474	13.15
584.67	13.12
584.866	13.17
585.061	13.3
585.257	13.26
585.452	13.24
585.648	13.25
585.843	13.21
586.039	13.33
586.234	13.35
586.429	13.33
586.625	13.35
586.82	13.35
587.015	13.27
587.211	13.21
587.406	13.26
587.601	13.23
587.797	13.3
587.992	13.28
588.187	13.35
588.383	13.34
588.578	13.35
588.773	13.3
588.968	13.3
589.163	13.37
589.359	13.37
589.554	13.43
589.749	13.4
589.944	13.41
590.139	13.44
590.334	13.47
590.529	13.55
590.724	13.64
590.919	13.71
591.114	13.66
591.309	13.63
591.504	13.59
591.699	13.6
591.894	13.54
592.089	13.61
592.284	13.65
592.479	13.69
592.674	13.72
592.869	13.83
593.064	13.93
593.259	14.02
593.454	14.03
593.648	14
593.843	13.99
594.038	14
594.233	13.85
594.428	13.93
594.622	14.01
594.817	14.06
595.012	14.02
595.206	14.17
595.401	14.25
595.596	14.26
595.79	14.24
595.985	14.28
596.18	14.33
596.374	14.31
596.569	14.3
596.763	14.39
596.958	14.46
597.153	14.42
597.347	14.4
597.542	14.61
597.736	14.63
597.931	14.59
598.125	14.71
598.319	14.84
598.514	14.72
598.708	14.67
598.903	14.72
599.097	14.76
599.291	14.7
599.486	14.77
599.68	14.86
599.874	14.94
600.069	14.99
600.263	15.08
600.457	15.12
600.651	15.15
600.846	15.23
601.04	15.22
601.234	15.23
601.428	15.26
601.622	15.28
601.817	15.16
602.011	15.15
602.205	15.16
602.399	15.19
602.593	15.24
602.787	15.21
602.981	15.21
603.175	15.26
603.369	15.21
603.563	15.21
603.757	15.26
603.951	15.26
604.145	15.14
604.339	15.05
604.533	14.98
604.727	14.97
604.921	14.92
605.115	14.96
605.309	14.99
605.502	14.98
605.696	14.95
605.89	14.9
606.084	14.9
606.278	14.92
606.471	14.79
606.665	14.63
606.859	14.62
607.053	14.55
607.246	14.46
607.44	14.46
607.634	14.58
607.827	14.49
608.021	14.3
608.214	14.23
608.408	14.14
608.602	14.06
608.795	14.1
608.989	14.15
609.182	14.2
609.376	14.24
609.569	14.15
609.763	14
609.956	14
610.15	14
610.343	13.9
610.537	13.87
610.73	13.81
610.923	13.81
611.117	13.69
611.31	13.59
611.504	13.57
611.697	13.48
611.89	13.37
612.083	13.23
612.277	13.3
612.47	13.14
612.663	13.19
612.856	13.07
613.05	13.08
613.243	13
613.436	13.02
613.629	12.94
613.822	12.99
614.015	12.99
614.209	12.82
614.402	12.77
614.595	12.74
614.788	12.7
614.981	12.62
615.174	12.63
615.367	12.57
615.56	12.41
615.753	12.25
615.946	12.15
616.139	12.18
616.332	12.17
616.525	12.22
616.718	12.23
616.911	12.23
617.103	12.18
617.296	12.18
617.489	12.09
617.682	12.08
617.875	12
618.067	11.9
618.26	11.77
618.453	11.76
618.646	11.71
618.838	11.71
619.031	11.73
619.224	11.83
619.417	11.91
619.609	11.93
619.802	11.86
619.994	11.84
620.187	11.72
620.38	11.62
620.572	11.54
620.765	11.51
620.957	11.54
621.15	11.54
621.342	11.53
621.535	11.47
621.727	11.54
621.92	11.44
622.112	11.44
622.305	11.36
622.497	11.33
622.69	11.23
622.882	11.28
623.074	11.27
623.267	11.26
623.459	11.23
623.651	11.18
623.844	11.12
624.036	11.15
624.228	11.19
624.42	11.27
624.613	11.34
624.805	11.33
624.997	11.22
625.189	11.24
625.381	11.21
625.574	11.17
625.766	11.22
625.958	11.16
626.15	11.1
626.342	11.07
626.534	11.07
626.726	10.98
626.918	11.01
627.11	10.99
627.302	10.99
627.494	10.92
627.686	10.95
627.878	10.93
628.07	10.88
628.262	10.79
628.454	10.68
628.646	10.58
628.838	10.67
629.029	10.69
629.221	10.65
629.413	10.71
629.605	10.73
629.797	10.65
629.989	10.7
630.18	10.7
630.372	10.75
630.564	10.8
630.755	10.75
630.947	10.65
631.139	10.65
631.33	10.61
631.522	10.51
631.714	10.45
631.905	10.43
632.097	10.41
632.289	10.35
632.48	10.3
632.672	10.31
632.863	10.28
633.055	10.25
633.246	10.31
633.438	10.35
633.629	10.27
633.821	10.25
634.012	10.29
634.203	10.22
634.395	10.23
634.586	10.32
634.777	10.39
634.969	10.35
635.16	10.3
635.351	10.24
635.543	10.24
635.734	10.2
635.925	10.08
636.117	10.02
636.308	10.07
636.499	9.98
636.69	9.94
636.881	10.05
637.073	10.12
637.264	10.1
637.455	10.03
637.646	10.05
637.837	9.94
638.028	9.81
638.219	9.75
638.41	9.8
638.601	9.75
638.792	9.79
638.983	9.88
639.174	9.92
639.365	9.85
639.556	9.87
639.747	9.83
639.938	9.81
640.129	9.71
640.32	9.82
640.511	9.8
640.701	9.79
640.892	9.72
641.083	9.78
641.274	9.7
641.465	9.67
641.655	9.68
641.846	9.72
642.037	9.65
642.228	9.7
642.418	9.68
642.609	9.61
642.8	9.65
642.99	9.7
643.181	9.63
643.372	9.65
643.562	9.68
643.753	9.61
643.943	9.61
644.134	9.5
644.324	9.47
644.515	9.5
644.705	9.42
644.896	9.33
645.086	9.4
645.277	9.44
645.467	9.35
645.658	9.41
645.848	9.37
646.038	9.35
646.229	9.29
646.419	9.31
646.61	9.26
646.8	9.25
646.99	9.24
647.18	9.2
647.371	9.21
647.561	9.18
647.751	9.22
647.941	9.18
648.132	9.17
648.322	9.12
648.512	9.15
648.702	9.08
648.892	9.05
649.082	9.04
649.272	8.98
649.462	9
649.653	9.01
649.843	9.06
650.033	9.01
650.223	8.98
650.413	8.89
650.603	8.88
650.793	8.76
650.983	8.74
651.172	8.77
651.362	8.78
651.552	8.72
651.742	8.71
651.932	8.71
652.122	8.73
652.312	8.75
652.502	8.8
652.691	8.87
652.881	8.9
653.071	8.85
653.261	8.76
653.45	8.66
653.64	8.65
653.83	8.62
654.019	8.5
654.209	8.42
654.399	8.38
654.588	8.25
654.778	8.07
654.968	8.05
655.157	7.99
655.347	7.97
655.536	7.91
655.726	7.9
655.915	7.89
656.105	7.81
656.294	7.71
656.484	7.69
656.673	7.69
656.863	7.63
657.052	7.65
657.241	7.57
657.431	7.49
657.62	7.34
657.809	7.15
657.999	7.09
658.188	7.06
658.377	6.96
658.567	6.97
658.756	7
658.945	6.95
659.134	6.88
659.324	6.86
659.513	6.73
659.702	6.64
659.891	6.57
660.08	6.4
660.269	6.27
660.458	6.17
660.648	6.23
660.837	6.18
661.026	6.25
661.215	6.26
661.404	6.25
661.593	6.15
661.782	6.01
661.971	5.84
662.16	5.78
662.349	5.69
662.538	5.65
662.726	5.73
662.915	5.84
663.104	5.88
663.293	5.9
663.482	5.82
663.671	5.69
663.86	5.61
664.048	5.54
664.237	5.46
664.426	5.46
664.615	5.41
664.803	5.33
664.992	5.31
665.181	5.47
665.369	5.46
665.558	5.52
665.747	5.64
665.935	5.67
666.124	5.66
666.312	5.68
666.501	5.71
666.69	5.62
666.878	5.53
667.067	5.42
667.255	5.44
667.444	5.62
667.632	5.8
667.82	5.94
668.009	5.97
668.197	6.05
668.386	6
668.574	5.93
668.762	5.93
668.951	6.09
669.139	6.17
669.327	6.16
669.516	6.29
669.704	6.3
669.892	6.3
670.08	6.25
670.269	6.25
670.457	6.17
670.645	6.19
670.833	6.2
671.021	6.27
671.21	6.25
671.398	6.26
671.586	6.35
671.774	6.38
671.962	6.44
672.15	6.57
672.338	6.77
672.526	6.93
672.714	7.1
672.902	7.1
673.09	7.27
673.278	7.28
673.466	7.25
673.654	7.34
673.842	7.47
674.03	7.48
674.218	7.59
674.405	7.76
674.593	7.71
674.781	7.76
674.969	7.82
675.157	7.64
675.344	7.65
675.532	7.68
675.72	7.86
675.908	7.87
676.095	8.1
676.283	8.13
676.471	8.34
676.658	8.34
676.846	8.39
677.033	8.59
677.221	8.76
677.409	8.76
677.596	8.79
677.784	8.96
677.971	8.95
678.159	8.99
678.346	8.93
678.534	9.03
678.721	9.11
678.909	9.18
679.096	9.18
679.283	9.47
679.471	9.41
679.658	9.38
679.846	9.45
680.033	9.53
680.22	9.45
680.408	9.57
680.595	9.63
680.782	9.64
680.969	9.7
681.157	9.82
681.344	9.77
681.531	9.91
681.718	10.06
681.905	10.12
682.093	10.12
682.28	10.28
682.467	10.34
682.654	10.29
682.841	10.31
683.028	10.32
683.215	10.49
683.402	10.47
683.589	10.58
683.776	10.81
683.963	10.93
684.15	11.1
684.337	11.31
684.524	11.47
684.711	11.55
684.898	11.59
685.085	11.62
685.271	11.85
685.458	11.81
685.645	11.96
685.832	12.1
686.019	12.29
686.205	12.31
686.392	12.64
686.579	12.66
686.766	12.98
686.952	12.97
687.139	13
687.326	13.04
687.512	13.2
687.699	13.25
687.886	13.42
688.072	13.59
688.259	13.74
688.445	13.96
688.632	14.17
688.818	14.47
689.005	14.73
689.191	15.07
689.378	15.35
689.564	15.61
689.751	15.8
689.937	16.27
690.124	16.43
690.31	16.62
690.496	17
690.683	17.41
690.869	17.44
691.055	17.84
691.242	18.22
691.428	18.48
691.614	18.76
691.8	19.09
691.987	19.39
692.173	19.94
692.359	20.47
692.545	20.79
692.731	21.37
692.918	21.77
693.104	22.08
693.29	22.36
693.476	22.97
693.662	23.49
693.848	24.04
694.034	24.17
694.22	24.33
694.406	24.67
694.592	24.99
694.778	25.4
694.964	26.14
695.15	26.93
695.336	27.36
695.522	28.01
695.708	28.65
695.894	29.22
696.08	29.79
696.265	30.48
696.451	30.94
696.637	31.54
696.823	31.95
697.009	32.36
697.194	32.87
697.38	33.44
697.566	33.83
697.751	34.68
697.937	35.51
698.123	36.04
698.308	36.25
698.494	36.89
698.68	37.29
698.865	37.53
699.051	37.87
699.236	38.85
699.422	39.3
699.607	39.87
699.793	40.74
699.978	41.5
700.164	41.81
700.349	42.18
700.535	42.61
700.72	43.05
700.906	43.43
701.091	44.08
701.276	44.51
701.462	45.22
701.647	45.61
701.832	46.4
702.018	46.97
702.203	47.76
702.388	47.98
702.573	48.62
702.759	49.02
702.944	49.35
703.129	50
703.314	50.71
703.499	50.9
703.684	51.49
703.87	52.07
704.055	52.32
704.24	52.55
704.425	53.54
704.61	54.14
704.795	54.41
704.98	55.01
705.165	55.84
705.35	56.33
705.535	56.73
705.72	57.56
705.905	57.97
706.09	58.15
706.275	58.1
706.459	58.69
706.644	59.14
706.829	59.8
707.014	60.71
707.199	61.41
707.384	61.62
707.568	61.84
707.753	62.02
707.938	62
708.123	62.49
708.307	62.81
708.492	63.6
708.677	63.74
708.861	64.4
709.046	64.79
709.231	65.21
709.415	65.26
709.6	65.95
709.784	66.09
709.969	66.48
710.153	66.81
710.338	67.07
710.522	67.55
710.707	67.48
710.891	67.42
711.076	67.91
711.26	68.45
711.445	68.81
711.629	69.52
711.813	69.84
711.998	70.45
712.182	70.63
712.366	71.26
712.551	71.43
712.735	71.7
712.919	71.82
713.103	71.5
713.288	71.36
713.472	71.47
713.656	71.87
713.84	71.96
714.024	72.52
714.208	72.52
714.393	73.3
714.577	73.86
714.761	74.03
714.945	74.82
715.129	75.06
715.313	75.47
715.497	75.89
715.681	76.05
715.865	76.32
716.049	76.83
716.233	77.03
716.417	77.55
716.601	77.83
716.785	77.89
716.968	78.03
717.152	78.1
717.336	78.26
717.52	78.49
717.704	78.75
717.888	79.24
718.071	79.57
718.255	79.27
718.439	79.48
718.622	79.63
718.806	79.31
718.99	79.28
719.174	79.18
719.357	79.72
719.541	80.08
719.724	80.52
719.908	80.7
720.092	81.65
720.275	81.85
720.459	82.43
720.642	82.65
720.826	83.41
721.009	83.23
721.193	83.4
721.376	83.24
721.559	83.91
721.743	84.03
721.926	84.42
722.11	84.81
722.293	84.65
722.476	84.53
722.66	84.42
722.843	84.61
723.026	84.52
723.21	84.91
723.393	84.67
723.576	85.15
723.759	85.26
723.942	85.37
724.126	86.05
724.309	87.32
724.492	87.45
724.675	87.68
724.858	88.08
725.041	88.04
725.224	87.76
725.407	87.58
725.59	88.04
725.774	88.4
725.957	88.74
726.14	89.46
726.322	90.14
726.505	90.29
726.688	90.08
726.871	89.45
727.054	89.8
727.237	89.56
727.42	89.45
727.603	89.81
727.786	91.11
727.968	90.72
728.151	90.83
728.334	91.37
728.517	91.57
728.699	91.55
728.882	91.83
729.065	92.53
729.248	92.62
729.43	93.03
729.613	93.52
729.796	92.45
729.978	92.89
730.161	92.56
730.343	92.18
730.526	92.68
730.708	94.2
730.891	94.66
731.073	94.94
731.256	96.42
731.438	95.19
731.621	95.04
731.803	94.66
731.986	95.56
732.168	94.99
732.35	95.51
732.533	95.59
732.715	95.72
732.898	95.55
733.08	96.22
733.262	96.88
733.444	96.45
733.627	96.59
733.809	96.15
733.991	95.8
734.173	96.05
734.355	97.13
734.538	96.75
734.72	97.47
734.902	98.08
735.084	98.19
735.266	98.12
735.448	98.95
735.63	99.65
735.812	99.2
735.994	98.11
736.176	98.61
736.358	99.89
736.54	99.48
736.722	100.3
736.904	101.55
737.086	101.62
737.268	100
737.45	100.29
737.632	99.58
737.814	99.6
737.995	99.55
738.177	99.54
738.359	100.26
738.541	100.42
738.723	100.76
738.904	101.33
739.086	101.82
739.268	100.9
739.449	102.14
739.631	101.59
739.813	101.58
739.994	103.19
740.176	103.76
740.358	102.91
740.539	103.06
740.721	103.44
740.902	102.1
741.084	101.97
741.265	102.03
741.447	101.91
741.628	100.96
741.81	100.89
741.991	101.01
742.172	101.87
742.354	102.97
742.535	104.13
742.717	103.98
742.898	104.85
743.079	103.46
743.261	102.25
743.442	101.57
743.623	102.17
743.804	101.71
743.986	103.06
744.167	104.73
744.348	104.29
744.529	105.03
744.71	105.14
744.891	105.58
745.073	105.43
745.254	106.66
745.435	105.82
745.616	104.74
745.797	103.06
745.978	102.55
746.159	102.73
746.34	102.9
746.521	102.93
746.702	103.17
746.883	103.08
747.064	101.85
747.245	102.57
747.426	102.8
747.606	102.65
747.787	103.66
747.968	103.92
748.149	104.17
748.33	104.8
748.51	106.28
748.691	104.74
748.872	107.1
749.053	106.19
749.233	107.06
749.414	106.84
749.595	107.7
749.775	106.54
749.956	106.67
750.137	105.51
750.317	104.44
750.498	105.58
750.678	105.39
750.859	105.39
751.04	106.75
751.22	106.92
751.4	105.61
751.581	105.1
751.761	105.26
751.942	103.89
752.122	104.61
752.303	104.27
752.483	103.67
752.663	104.3
752.844	105.53
753.024	105.52
753.204	105.65
753.385	105.92
753.565	106.7
753.745	105.78
753.925	104.99
754.106	105.19
754.286	106.6
754.466	105.24
754.646	106.13
754.826	105.08
755.006	106.37
755.187	106.2
755.367	105.84
755.547	104.14
755.727	104.48
755.907	102.4
756.087	101.48
756.267	100.32
756.447	101.61
756.627	103.45
756.807	104.57
756.987	102.99
757.167	104.64
757.346	104.56
757.526	103.69
757.706	102.76
757.886	102.92
758.066	102.93
758.246	102.67
758.425	103.69
758.605	104.65
758.785	106.65
758.965	107.74
759.144	109.04
759.324	107.67
759.504	106.99
759.683	105.97
759.863	104.77
760.043	103.68
760.222	103.57
760.402	103.06
760.581	105.24
760.761	103.19
760.94	102.77
761.12	103.14
761.299	103.7
761.479	102.02
761.658	103.14
761.838	104.08
762.017	104.66
762.197	103.43
762.376	104
762.555	104.57
762.735	104.72
762.914	101.87
763.093	102.44
763.273	101.12
763.452	101.48
763.631	99.07
763.81	101.2
763.99	102.15
764.169	103.79
764.348	103.75
764.527	106.11
764.706	104.55
764.885	104.42
765.064	104.36
765.243	103.31
765.423	102.19
765.602	102.54
765.781	103.1
765.96	100.91
766.139	100.58
766.318	100.03
766.497	101.17
766.676	101.62
766.854	101.67
767.033	102.43
767.212	103.23
767.391	102.09
767.57	101.63
767.749	100.49
767.928	101.4
768.106	101.98
768.285	102.18
768.464	101.19
768.643	103.52
768.821	102.23
769	103.44
769.179	104.44
769.357	104.32
769.536	102.31
769.715	101.89
769.893	100.87
770.072	100.06
770.25	100.66
770.429	103.16
770.607	101.94
770.786	101.51
770.964	100.06
771.143	98.65
771.321	97
771.5	99.56
771.678	98.21
771.857	99.49
772.035	101.51
772.213	102.74
772.392	101.87
772.57	102.8
772.748	103
772.927	100.87
773.105	99.93
773.283	98.73
773.461	96.61
773.64	95.69
773.818	97.25
773.996	95.64
774.174	98.51
774.352	96.54
774.531	96.93
774.709	96.06
774.887	99.67
775.065	97.84
775.243	103.38
775.421	105.55
775.599	104.24
775.777	103.7
775.955	100.06
776.133	99.02
776.311	97.38
776.489	97.5
776.667	96.9
776.844	100.21
777.022	99.66
777.2	101.47
777.378	101.96
777.556	102.26
777.734	100.62
777.911	100.3
778.089	99.77
778.267	98.06
778.445	95.75
778.622	96.22
778.8	97
778.978	97.04
779.155	97.49
779.333	96.03
779.511	94
779.688	91.87
779.866	88.53
780.043	89.88
780.221	90.9
780.398	93.46
780.576	94.03
780.753	95.73
780.931	94.99
781.108	95.85
781.286	94.15
781.463	94.01
781.64	96.8
781.818	96.47
781.995	95.75
782.172	97.45
782.35	97.99
782.527	95.81
782.704	97.43
782.882	100.92
783.059	99.55
783.236	97.37
783.413	96.58
783.59	94.26
783.768	89.48
783.945	93.7
784.122	94.19
784.299	94.11
784.476	95.29
784.653	99.41
784.83	96.19
785.007	99.4
785.184	99.89
785.361	97.65
785.538	95.03
785.715	93.35
785.892	90.57
786.069	91.41
786.246	92.8
786.423	95.45
786.6	98.17
786.776	100.67
786.953	96.89
787.13	99.64
787.307	99.8
787.484	99.17
787.66	100.26
787.837	102.71
788.014	103.18
788.191	98.92
788.367	99.94
788.544	97.77
788.721	92.18
788.897	87.46
789.074	86.14
789.25	81.24
789.427	79.09
789.603	84
789.78	85.78
789.956	90
790.133	93.24
790.309	95.98
790.486	92.64
790.662	96.92
790.839	96.45
791.015	93.32
791.192	89.2
791.368	94.09
791.544	85.63
791.721	83.8
791.897	84.26
792.073	84.95
792.249	79.66
792.426	84.17
792.602	82.5
792.778	86.91
792.954	87.92
793.13	91.33
793.307	93.08
793.483	91.74
793.659	93.24
793.835	91.47
794.011	93.26
794.187	92.29
794.363	95.69
794.539	89.51
794.715	94.24
794.891	95.48
795.067	90.94
795.243	93.35
795.419	92.98
795.595	92.24
795.771	90.34
795.947	94.93
796.122	90.56
796.298	93.77
796.474	91.67
796.65	92.07
796.826	91.13
797.001	94.19
797.177	92.22
797.353	88.09
797.529	86.89
797.704	86.69
797.88	81.52
798.056	81.35
798.231	88.2
798.407	85.17
798.582	81.89
798.758	84.58
798.934	90.16
799.109	85.21
799.285	90.61
799.46	92.32
799.636	95.36
799.811	87.54
799.986	88.4
800.162	84.34
800.337	83.26
800.513	80.41
800.688	81.35
800.863	81.84
801.039	82.54
801.214	86.04
801.389	89.44
801.565	85.5
801.74	89.51
801.915	95.41
802.09	96.04
802.265	92.04
802.441	97.54
802.616	88.37
802.791	85.83
802.966	84.59
803.141	85.19
803.316	84.56
803.491	90.66
803.666	87.32
803.841	88.3
804.016	89.21
804.191	91.85
804.366	96.87
804.541	97.63
804.716	95.64
804.891	95.17
805.066	96.31
805.241	91.53
805.416	86.83
805.591	82.61
805.765	83.39
805.94	79.53
806.115	73.51
806.29	72.74
806.464	82.08
806.639	81.52
806.814	74.23
806.989	78.48
807.163	81.31
807.338	76.5
807.512	76.04
807.687	85.92
807.862	82.42
808.036	83.41
808.211	83.24
808.385	79.58
808.56	79.48
808.734	80.73
808.909	80.93
809.083	79.95
809.258	85.67
809.432	90.64
809.606	84.27
809.781	81.69
809.955	77.69
810.13	76.99
810.304	67.18
810.478	73.64
810.652	78.89
810.827	85.35
811.001	83.19
811.175	86.35
811.349	87.37
811.524	79.86
811.698	72.83
811.872	73.01
812.046	80.26
812.22	76.04
812.394	80.26
812.568	86.91
812.742	89.58
812.916	83.71
813.09	84.7
813.264	84.43
813.438	85.37
813.612	89.61
813.786	82.43
813.96	91.39
814.134	93.87
814.308	89.26
814.482	84.49
814.656	95.98
814.83	95.27
815.003	92.85
815.177	102.25
815.351	104.22
815.525	99.69
815.698	98.51
815.872	105.32
816.046	105.21
816.219	106.31
816.393	121.99
816.567	111.58
816.74	105.34
816.914	92.07
817.088	90.24
817.261	79.32
817.435	90.85
817.608	95.86
817.782	100.46
817.955	111.49
818.129	115.95
818.302	100.12
818.475	96.68
818.649	102.13
818.822	98.49
818.996	86.39
819.169	93.1
819.342	81.47
819.516	67.8
819.689	71.94
819.862	88.87
820.035	82.3
820.209	84.45
820.382	98.66
820.555	88.99
820.728	79.92
820.901	74.23
821.075	79.75
821.248	93.07
821.421	95.46
821.594	87.52
821.767	104.95
821.94	106.93
822.113	84.39
822.286	79.71
822.459	94.15
822.632	93.82
822.805	92.57
822.978	100
823.151	111.03
823.324	96.86
823.496	90.08
823.669	84.28
823.842	82.23
824.015	73.64
824.188	64.82
824.361	74.08
824.533	88.32
824.706	84.76
824.879	84.06
825.051	88.38
825.224	76.56
825.397	59.18
825.569	67.94
825.742	75.16
825.915	70.08
826.087	90.27
826.26	94.3
826.432	106.72
826.605	109.58
826.777	105.71
826.95	85.14
827.122	76.69
827.295	58.11
827.467	54.83
827.64	45.34
827.812	57.54
827.984	64.37
828.157	64.05
828.329	58.26
828.501	76.5
828.674	68.41
828.846	74.73
829.018	82.04
829.19	87.92
829.363	83.04
829.535	87.94
829.707	88.91
829.879	82.92
830.051	77.14
830.223	83.16
830.395	72.05
830.568	68.3
830.74	66.68
830.912	71.52
831.084	82.14
831.256	76.13
831.428	75.66
831.6	77.61
831.772	80.96
831.943	58.16
832.115	61.91
832.287	60.64
832.459	53.35
832.631	46.42
832.803	56.16
832.975	66.56
833.146	73.12
833.318	79.65
833.49	88.87
833.662	87.51
833.833	72.95
834.005	69.86
834.177	80.86
834.348	86.59
834.52	78.13
834.692	69.72
834.863	75.01
835.035	71.46
835.206	67.39
835.378	62.25
835.549	75.45
835.721	68.09
835.892	63.98
836.064	74.77
836.235	79.16
836.407	84.04
836.578	78.71
836.749	83.03
836.921	69.56
837.092	70.8
837.264	56.17
837.435	54.71
837.606	52.95
837.777	47.07
837.949	34.74
838.12	38.94
838.291	43.26
838.462	46.7
838.633	89.92
838.805	116.34
838.976	123.23
839.147	134.31
839.318	119.85
839.489	79.07
839.66	90.47
839.831	100
840.002	95.27
840.173	99.61
840.344	119.77
840.515	104.33
840.686	98.81
840.857	93.95
841.028	103.81
841.199	106.54
841.369	97.68
841.54	105.41
841.711	110.8
841.882	87.1
842.053	86.57
842.223	94.21
842.394	87.35
842.565	91.28
842.736	100.9
842.906	137.14
843.077	127.85
843.248	203.07
843.418	146.4
843.589	103.96
843.759	89.83
843.93	92.99
844.101	90.64
844.271	84.83
844.442	97.14
844.612	98.4
844.783	80.39
844.953	61.2
845.123	81.15
845.294	66.36
845.464	79.27
845.635	110.09
845.805	130.92
845.975	122.21
846.146	143.63
846.316	103.82
846.486	90.04
846.656	73.46
846.827	84.18
846.997	90.85
847.167	76.05
847.337	62.47
847.507	63.04
847.677	66.27
847.848	75.08
848.018	108.03
848.188	119.05
848.358	135.54
848.528	127.04
848.698	139.91
848.868	126.79
849.038	128.44
849.208	64.7
849.378	83.43
849.548	47.15
849.718	57.51
849.887	63.22
850.057	54.27
850.227	31.68
850.397	25.94
850.567	31.08
850.737	29.91
850.906	46.45
851.076	57.72
851.246	72.57
851.415	67.98
851.585	58.83
851.755	65.86
851.924	65.54
852.094	66.77
852.264	73
852.433	66.79
852.603	79.03
852.772	82.52
852.942	96.78
853.111	96.74
853.281	101.73
853.45	66.75
853.62	50.3
853.789	16.2
853.959	3.79
854.128	19.91
854.297	49.91
854.467	51.11
854.636	103.29
854.805	82.36
854.975	71.07
855.144	43.96
855.313	69.02
855.482	69.83
855.652	79.88
855.821	108.77
855.99	133.14
856.159	103.23
856.328	129.31
856.497	125.78
856.667	103.35
856.836	117.85
857.005	130.92
857.174	84.37
857.343	81.69
857.512	91.07
857.681	43.13
857.85	62.65
858.019	29.44
858.188	13.8
858.356	-4.55
858.525	31.55
858.694	15.17
858.863	43.28
859.032	42.59
859.201	49.42
859.369	60.29
859.538	49.03
859.707	32.52
859.876	46.3
860.044	63.75
860.213	43.93
860.382	71.33
860.55	107.12
860.719	133.43
860.888	142.87
861.056	153.55
861.225	156.18
861.393	147.17
861.562	139.51
861.73	129.73
861.899	83.41
862.067	71.36
862.236	51.93
862.404	54.19
862.572	50.1
862.741	60.97
862.909	42.06
863.078	49.59
863.246	34.41
863.414	40.92
863.582	31.32
863.751	64.4
863.919	65.18
864.087	107.42
864.255	80.26
864.424	75.2
864.592	66.39
864.76	75.12
864.928	73.28
865.096	59.78
865.264	64.72
865.432	66.61
865.6	55.53
865.768	37.96
865.936	55.23
866.104	45.98
866.272	36.18
866.44	50.99
866.608	38.53
866.776	43.86
866.944	89.15
867.112	84.76
867.28	70.53
867.448	100.25
867.615	88.72
867.783	79.18
867.951	71.98
868.119	97.77
868.286	84.38
868.454	86.37
868.622	80.85
868.789	113.11
868.957	87.48
869.125	81.38
869.292	67.49
869.46	61.58
869.627	57.06
869.795	49.93
869.963	57.48
870.13	59.39
870.298	44.78
870.465	41.89
870.632	34.17
870.8	33.47
870.967	48.91
871.135	108.67
871.302	70.44
871.469	94.36
871.637	97.37
871.804	97.8
871.971	68.4
872.139	108.87
872.306	100.25
872.473	115.65
872.64	104.51
872.807	108.65
872.975	71.35
873.142	84.46
873.309	41.48
873.476	55.29
873.643	39.7
873.81	59.17
873.977	41.77
874.144	68.9
874.311	60.15
874.478	59.3
874.645	54.49
874.812	72.6
874.979	48.54
875.146	34.3
875.313	51.99
875.48	73.88
875.647	90.85
875.813	123.25
875.98	152.37
876.147	125.98
876.314	108.35
876.481	97.97
876.647	80.14
876.814	66.24
876.981	60.34
877.147	73.55
877.314	37.48
877.481	62.66
877.647	44.28
877.814	48.2
877.98	41.34
878.147	68.16
878.314	31.58
878.48	84.21
878.647	108.32
878.813	71.82
878.979	72.3
879.146	75.34
879.312	25.12
879.479	35.96
879.645	101.67
879.811	87.24
879.978	64.49
880.144	80.91
880.31	70.43
880.477	43.46
880.643	46.3
880.809	67.56
880.975	54.26
881.142	26.09
881.308	28.65
881.474	90.02
881.64	52.76
881.806	-14.29
881.972	99.23
882.138	146.13
882.304	70.82
882.47	33.06
882.636	43.7
882.802	28.65
882.968	7.9
883.134	10.33
883.3	35.31
883.466	49.91
883.632	101.98
883.798	134.92
883.964	197.98
884.129	284.98
884.295	162.24
884.461	51.25
884.627	63.33
884.793	80.33
884.958	77.53
885.124	81.14
885.29	83.38
885.455	75.37
885.621	80.92
885.787	72.89
885.952	85.29
886.118	106.45
886.283	110.37
886.449	87.06
886.614	80.36
886.78	88.24
886.945	102.54
887.111	86.51
887.276	96.19
887.442	95.94
887.607	63.43
887.773	29.48
887.938	8
888.103	-42.89
888.269	17.83
888.434	29.73
888.599	23.88
888.764	35.84
888.93	74.44
889.095	53.71
889.26	77.83
889.425	90.86
889.59	88.52
889.756	69.73
889.921	44.63
890.086	19.58
890.251	-3.49
890.416	-58.12
890.581	-79.72
890.746	14.75
890.911	56.24
891.076	89.78
891.241	140.23
891.406	122.38
891.571	79.25
891.736	51.35
891.901	85.68
892.065	122.2
892.23	139.88
892.395	141.3
892.56	112.85
892.725	81.04
892.889	-7.59
893.054	22.1
893.219	41.2
893.384	75.88
893.548	59.04
893.713	63.44
893.878	46.02
