Data from Ofav_PP_2HS2_Reflection_3.txt Node
Date: Tue Jul 27 19:03:00 EDT 2021
User: USUARIO
Spectrometer: FLMT01687
Trigger mode: 0
Integration Time (sec): 8.500000E-1
Scans to average: 2
Electric dark correction enabled: true
Nonlinearity correction enabled: false
Boxcar width: 2
XAxis mode: Wavelengths
Number of Pixels in Spectrum: 3648
>>>>>Begin Spectral Data<<<<<
179.494	-1056.3
179.716	-302.69
179.937	-185.79
180.158	-147.16
180.38	-151.94
180.601	-159.67
180.823	88.35
181.044	77.1
181.265	49.2
181.486	-63.92
181.708	-54.52
181.929	84.83
182.15	73.7
182.372	-8.64
182.593	17.77
182.814	36.28
183.035	53.66
183.257	48.64
183.478	45.4
183.699	29.39
183.92	31.24
184.141	22.72
184.363	26.38
184.584	42.78
184.805	72.28
185.026	65.56
185.247	91.37
185.468	72.52
185.689	50.91
185.91	19.22
186.132	21.26
186.353	10.39
186.574	10.18
186.795	12.71
187.016	22.86
187.237	24.27
187.458	28.29
187.679	59.15
187.9	54.1
188.121	43.99
188.342	43.11
188.563	68.68
188.784	39.04
189.005	57.88
189.226	65.16
189.447	66.27
189.667	52.58
189.888	64.35
190.109	67.8
190.33	52.71
190.551	22.19
190.772	19.72
190.993	7.81
191.214	5.82
191.434	23.94
191.655	41.25
191.876	47.33
192.097	53.66
192.318	45.86
192.538	28.74
192.759	30.54
192.98	31.31
193.201	44.72
193.421	46.68
193.642	35.11
193.863	20.1
194.083	23.17
194.304	-2
194.525	-18.41
194.745	-34.71
194.966	-43.52
195.187	-102.83
195.407	-42.41
195.628	-28.1
195.848	-1.05
196.069	-7.97
196.29	36.19
196.51	44.6
196.731	56.11
196.951	46.5
197.172	37.05
197.392	54.72
197.613	24.13
197.833	6.07
198.054	23.88
198.274	18.15
198.495	1.17
198.715	0.61
198.936	-0.06
199.156	34.32
199.377	77.96
199.597	37.26
199.817	15.29
200.038	1.42
200.258	-123.72
200.479	-105.34
200.699	-37.34
200.919	-23.01
201.14	2.78
201.36	11.57
201.58	42.71
201.801	29.19
202.021	29.12
202.241	39.07
202.461	35.88
202.682	22.85
202.902	20.52
203.122	23.18
203.342	-14.24
203.563	21.87
203.783	21.07
204.003	13.36
204.223	-2.97
204.443	-17.26
204.663	-91.48
204.884	-55.9
205.104	-17.57
205.324	3.78
205.544	45.97
205.764	53.52
205.984	54.38
206.204	51.43
206.424	27.15
206.644	3.9
206.864	12.81
207.084	10.78
207.304	18.67
207.525	24.88
207.745	34.28
207.964	29.75
208.184	29.54
208.404	34.28
208.624	29.21
208.844	34.22
209.064	46.1
209.284	25.99
209.504	26.92
209.724	35.66
209.944	-17.43
210.164	-66.3
210.384	-45.75
210.604	-78.93
210.823	-1.19
211.043	25.35
211.263	41.29
211.483	55.77
211.703	53.68
211.922	61.58
212.142	59.63
212.362	32.93
212.582	16.45
212.801	26.77
213.021	20.2
213.241	9.4
213.461	-3.84
213.68	8.52
213.9	36.78
214.12	24.07
214.339	30.51
214.559	39.2
214.779	37.34
214.998	19.8
215.218	-7.83
215.438	11.32
215.657	23.14
215.877	14.25
216.096	10.43
216.316	30.08
216.535	12.53
216.755	1.7
216.974	35.72
217.194	43.78
217.413	34.93
217.633	29.61
217.852	20.49
218.072	-4.91
218.291	-19.75
218.511	-7.79
218.73	11.79
218.95	3.69
219.169	9.01
219.389	7.75
219.608	-12.5
219.827	-35.07
220.047	-20.8
220.266	33.67
220.485	43.37
220.705	72.01
220.924	74.08
221.143	50.75
221.363	36.62
221.582	45.55
221.801	27.37
222.021	47.17
222.24	61.19
222.459	52.38
222.678	37.39
222.897	26.53
223.117	-0.72
223.336	-11.43
223.555	2.57
223.774	16.06
223.993	22.74
224.213	6.92
224.432	6.92
224.651	41.19
224.87	31.8
225.089	25.48
225.308	42.95
225.527	52.46
225.746	28.16
225.965	5.75
226.184	9.79
226.404	-7.14
226.623	-33.35
226.842	-7.44
227.061	-0.45
227.28	2.43
227.499	18.96
227.718	24.17
227.936	21.16
228.155	33.15
228.374	38.22
228.593	27.91
228.812	30.53
229.031	22.09
229.25	11.38
229.469	-11.86
229.688	-19.57
229.907	-35.21
230.125	-13.67
230.344	-9.97
230.563	19.11
230.782	25.32
231.001	27.18
231.22	27.3
231.438	30.2
231.657	6.99
231.876	1.78
232.095	20.93
232.313	22.6
232.532	25.21
232.751	25.46
232.969	21.85
233.188	13.23
233.407	7.82
233.625	24
233.844	33.89
234.063	45.08
234.281	52.47
234.5	45.15
234.719	47.54
234.937	34.75
235.156	28.28
235.374	26.13
235.593	29.54
235.811	14.85
236.03	15.75
236.249	6.98
236.467	-12.18
236.686	-3.56
236.904	9.88
237.123	6.77
237.341	21.44
237.559	23.55
237.778	31.18
237.996	7.45
238.215	13.35
238.433	25.17
238.652	29.1
238.87	23.44
239.088	17.67
239.307	35.4
239.525	12.67
239.743	-5.01
239.962	-2.63
240.18	19.09
240.398	0.99
240.617	-1.23
240.835	19.02
241.053	19.65
241.271	13.59
241.49	27.3
241.708	27.11
241.926	11.19
242.144	5.98
242.363	-0.04
242.581	21.1
242.799	21.77
243.017	16.1
243.235	25.76
243.453	42.13
243.672	18.76
243.89	3.35
244.108	17.61
244.326	18.75
244.544	16.47
244.762	15.29
244.98	54.34
245.198	39.21
245.416	33.14
245.634	38
245.852	63.45
246.07	33.19
246.288	41.83
246.506	36.98
246.724	25.27
246.942	16.52
247.16	15.18
247.378	10.89
247.596	29.34
247.814	22.85
248.032	5.16
248.25	-0.03
248.468	1.83
248.685	-8.56
248.903	-6.56
249.121	12.23
249.339	15.26
249.557	15.81
249.775	-20.67
249.992	-13.41
250.21	-14.57
250.428	-27.2
250.646	-28
250.863	27.09
251.081	34.93
251.299	46.14
251.517	64.59
251.734	86.99
251.952	36.18
252.17	24.88
252.387	-10.35
252.605	-12.18
252.823	-14.75
253.04	5.63
253.258	21.27
253.475	29.1
253.693	53.38
253.911	58.7
254.128	53.14
254.346	45.34
254.563	41.2
254.781	2.75
254.998	-4.3
255.216	-29.27
255.433	-21.41
255.651	-11.87
255.868	5.61
256.086	-1.62
256.303	6.81
256.521	15.33
256.738	20.27
256.956	18.32
257.173	31.52
257.39	37.28
257.608	32.34
257.825	27.22
258.043	19.77
258.26	17.78
258.477	17.69
258.695	13.59
258.912	19.4
259.129	25.81
259.346	13.33
259.564	35.9
259.781	50.92
259.998	33.62
260.216	37.63
260.433	45.29
260.65	38.32
260.867	31.88
261.084	44.2
261.302	41.54
261.519	33.47
261.736	23.37
261.953	28.64
262.17	25.91
262.387	23.37
262.604	20.97
262.822	37.05
263.039	35.78
263.256	41.1
263.473	47.08
263.69	67.82
263.907	27.64
264.124	38.34
264.341	37.35
264.558	44.08
264.775	37.54
264.992	56.68
265.209	44.34
265.426	43.23
265.643	38.03
265.86	39.36
266.077	39.03
266.294	43.38
266.51	52.96
266.727	44.73
266.944	34.28
267.161	31.84
267.378	25.17
267.595	33.12
267.812	48.31
268.028	64.62
268.245	64.25
268.462	64.7
268.679	41.37
268.896	32.36
269.112	6.97
269.329	-2.45
269.546	11.81
269.763	-3.47
269.979	-6.06
270.196	16.19
270.413	26.84
270.629	21.48
270.846	45.53
271.063	42.92
271.279	40.56
271.496	41.71
271.712	42.8
271.929	30.57
272.146	18.55
272.362	28.19
272.579	36.2
272.795	40.18
273.012	34.78
273.228	39.72
273.445	40.81
273.661	21.61
273.878	9.47
274.094	11.42
274.311	18.14
274.527	14.1
274.744	17.19
274.96	4.05
275.177	-9.76
275.393	-18.78
275.609	-8.36
275.826	3.38
276.042	28.14
276.259	38.78
276.475	33.29
276.691	27.08
276.908	19.25
277.124	22.18
277.34	25.72
277.557	24.11
277.773	30.99
277.989	40.67
278.205	38.52
278.422	40.44
278.638	41.07
278.854	42.59
279.07	48.35
279.286	39.89
279.503	26.99
279.719	39.43
279.935	37.9
280.151	36.52
280.367	32.53
280.583	48.08
280.799	39.3
281.016	35.68
281.232	23.02
281.448	30.88
281.664	22.17
281.88	15.02
282.096	10.4
282.312	10.96
282.528	5.38
282.744	-6.85
282.96	14.9
283.176	34.17
283.392	39.81
283.608	49.82
283.824	48.17
284.04	25.55
284.256	21.29
284.471	13.36
284.687	2.62
284.903	4.9
285.119	13.13
285.335	11.08
285.551	15.76
285.767	32.11
285.982	17.78
286.198	13.2
286.414	-4.7
286.63	8.09
286.846	0.93
287.061	10.75
287.277	5.1
287.493	-7.81
287.709	-15.48
287.924	1.66
288.14	8.87
288.356	31.56
288.571	47.57
288.787	49.89
289.003	21.81
289.218	23.94
289.434	9.28
289.65	14.69
289.865	-8.48
290.081	20.42
290.296	0.4
290.512	4.66
290.727	21.48
290.943	43.28
291.159	50.8
291.374	70.83
291.59	66.79
291.805	48.37
292.021	46.06
292.236	32.92
292.451	35.22
292.667	35.15
292.882	28.56
293.098	28.94
293.313	49.21
293.529	54.86
293.744	40.99
293.959	51.92
294.175	50.13
294.39	28.3
294.605	24.74
294.821	31.24
295.036	20.26
295.251	20.59
295.467	24.9
295.682	18.05
295.897	20.95
296.112	37.55
296.328	36.23
296.543	46.48
296.758	39.65
296.973	38.02
297.188	40.55
297.404	29.27
297.619	21.75
297.834	19.9
298.049	23.84
298.264	12.19
298.479	19.31
298.694	15.65
298.909	18.12
299.125	11.24
299.34	9.5
299.555	16.56
299.77	20.58
299.985	24.45
300.2	18.51
300.415	22.7
300.63	17.15
300.845	27.87
301.06	7.06
301.275	16.39
301.49	9.68
301.704	-13.07
301.919	-2.05
302.134	9.78
302.349	21.14
302.564	22.22
302.779	36.28
302.994	30.65
303.209	30.89
303.423	28.45
303.638	11.88
303.853	2.22
304.068	2.63
304.283	9.44
304.497	-3.75
304.712	16.52
304.927	18.7
305.142	19.08
305.356	-11.45
305.571	3.6
305.786	-3.51
306	-14.45
306.215	-9.1
306.43	4.11
306.644	15.79
306.859	23.23
307.074	39.48
307.288	31.99
307.503	29.79
307.717	17.6
307.932	12.49
308.147	19.16
308.361	29.39
308.576	35.34
308.79	34.23
309.005	31.23
309.219	13.04
309.434	9.37
309.648	3.65
309.863	3.47
310.077	12.77
310.292	23.34
310.506	16.97
310.72	6.48
310.935	-1.91
311.149	-4.29
311.364	-21.68
311.578	-0.04
311.792	18.3
312.007	30.19
312.221	31.8
312.435	31.55
312.649	30.29
312.864	32.5
313.078	32.04
313.292	25.29
313.507	30.99
313.721	32.88
313.935	31.36
314.149	28.31
314.363	24.06
314.578	23
314.792	23.94
315.006	25.09
315.22	33.44
315.434	36.71
315.648	38.39
315.862	40.41
316.077	38.22
316.291	39.59
316.505	40.45
316.719	34.02
316.933	35.67
317.147	24.23
317.361	11.84
317.575	-6.5
317.789	-12.62
318.003	-40.39
318.217	-21.34
318.431	-23.17
318.645	-17.24
318.859	-1.19
319.073	0.67
319.287	0.65
319.5	-0.21
319.714	-10.41
319.928	-17.24
320.142	-18.2
320.356	0.96
320.57	3.91
320.784	22.83
320.997	26.31
321.211	38.43
321.425	29.87
321.639	33.72
321.853	29.98
322.066	26.44
322.28	9.99
322.494	18.28
322.707	18.83
322.921	21.68
323.135	17.04
323.349	33.49
323.562	31.19
323.776	26
323.989	11.68
324.203	13.9
324.417	-20.98
324.63	-2.31
324.844	-5.8
325.057	-7.66
325.271	-5.96
325.485	5.46
325.698	-6.44
325.912	1.88
326.125	21.61
326.339	28.53
326.552	25.03
326.766	27.21
326.979	29.93
327.193	16.14
327.406	11.21
327.619	11.17
327.833	10.49
328.046	13.6
328.26	20.3
328.473	15.68
328.686	25.33
328.9	33.2
329.113	30.1
329.326	8.17
329.54	14.81
329.753	14.04
329.966	11.88
330.179	11.55
330.393	34.09
330.606	29.09
330.819	31.85
331.032	36.69
331.246	32.77
331.459	31
331.672	21.19
331.885	19.23
332.098	18.46
332.311	22.97
332.525	22.53
332.738	33.39
332.951	35.04
333.164	31.63
333.377	18.89
333.59	23.54
333.803	17.07
334.016	3.84
334.229	0.12
334.442	21.98
334.655	26.5
334.868	37.5
335.081	47.66
335.294	54.92
335.507	50.28
335.72	33.52
335.933	6.7
336.146	1.51
336.359	-2.66
336.572	-4.63
336.785	0.6
336.997	26.12
337.21	46.31
337.423	56.81
337.636	43.11
337.849	38.43
338.062	25.67
338.274	28.01
338.487	30.45
338.7	36.55
338.913	38.46
339.125	50.41
339.338	32
339.551	21.27
339.763	23.41
339.976	32.21
340.189	10.85
340.402	6.17
340.614	-7.44
340.827	-8.37
341.039	-37.59
341.252	-34.39
341.465	-46.92
341.677	-31.66
341.89	-15.81
342.102	20.53
342.315	27.84
342.527	38.42
342.74	42.86
342.952	21.64
343.165	25.16
343.377	23.11
343.59	15.82
343.802	8.04
344.015	19.32
344.227	12.44
344.44	-9.7
344.652	-3.67
344.864	-6.97
345.077	6.74
345.289	5.7
345.502	15.24
345.714	15
345.926	14.03
346.139	17.06
346.351	15.05
346.563	12.88
346.775	6.27
346.988	6.67
347.2	-2.98
347.412	9.7
347.624	-0.6
347.837	-13.5
348.049	-7.59
348.261	-7.28
348.473	-21.6
348.685	-9.02
348.897	14.41
349.11	20.25
349.322	12.67
349.534	25.83
349.746	30.87
349.958	26.8
350.17	28.05
350.382	31.31
350.594	24.76
350.806	33.24
351.018	22.34
351.23	23.64
351.442	16.84
351.654	36.54
351.866	24.77
352.078	34.31
352.29	25.39
352.502	32.83
352.714	19.79
352.926	28.33
353.138	28.07
353.35	39.57
353.561	38.8
353.773	43.53
353.985	16.46
354.197	11.64
354.409	8.89
354.621	14.28
354.832	10.77
355.044	21.7
355.256	31.74
355.468	36.11
355.679	40.94
355.891	43.32
356.103	34.87
356.314	30.54
356.526	26.52
356.738	8.85
356.949	10.53
357.161	33.53
357.373	28.09
357.584	24.37
357.796	33.81
358.008	38.73
358.219	34.19
358.431	20.2
358.642	17.96
358.854	16.76
359.065	2.43
359.277	5.95
359.488	24.66
359.7	31.53
359.911	38.48
360.123	55.9
360.334	42.12
360.546	39.65
360.757	39.14
360.969	13.82
361.18	2.47
361.391	9.48
361.603	13.63
361.814	11.75
362.025	30.3
362.237	33.34
362.448	28.74
362.659	9.9
362.871	11.79
363.082	3.68
363.293	2.97
363.504	-1.18
363.716	5.76
363.927	-16.16
364.138	-10.18
364.349	-13.04
364.56	-7.73
364.772	3.26
364.983	17.22
365.194	10.55
365.405	18.18
365.616	10.21
365.827	14.36
366.038	18.91
366.25	11.34
366.461	2.42
366.672	8.94
366.883	15.2
367.094	11.98
367.305	17.37
367.516	14.04
367.727	18.05
367.938	4.68
368.149	2.22
368.36	11.2
368.571	11.48
368.781	15.01
368.992	18.61
369.203	11.64
369.414	15.15
369.625	14.72
369.836	6.91
370.047	-2.2
370.258	3.1
370.468	4.34
370.679	8.93
370.89	8.32
371.101	7.73
371.312	11.65
371.522	-2.05
371.733	6.48
371.944	10.33
372.155	17.15
372.365	8.39
372.576	16.39
372.787	8.2
372.997	14.13
373.208	13.4
373.419	18.36
373.629	17.45
373.84	19.74
374.05	14.12
374.261	14.98
374.472	17.66
374.682	19.14
374.893	24.37
375.103	23.68
375.314	21.07
375.524	14.33
375.735	9.99
375.945	-3.64
376.156	3.89
376.366	5.09
376.577	1.43
376.787	3.7
376.997	8.26
377.208	4.81
377.418	15.16
377.629	24.95
377.839	31.1
378.049	35.39
378.26	45.21
378.47	31.01
378.68	18.41
378.89	4.26
379.101	-4.92
379.311	-12.39
379.521	-14.9
379.732	2.22
379.942	22.68
380.152	22.22
380.362	25.7
380.572	20.59
380.783	22.47
380.993	13.51
381.203	11.45
381.413	8.17
381.623	10.05
381.833	7.15
382.043	7.47
382.253	7.7
382.463	13.23
382.674	19.5
382.884	15.63
383.094	14.19
383.304	14.31
383.514	10.23
383.724	3.19
383.934	-2.03
384.144	-7.36
384.353	0.14
384.563	0.49
384.773	5.97
384.983	9.93
385.193	12.46
385.403	4.93
385.613	3.62
385.823	1.09
386.033	3.57
386.242	13.55
386.452	11.96
386.662	18.02
386.872	17.72
387.082	14.42
387.291	5.63
387.501	10.38
387.711	5.21
387.921	9.42
388.13	11.81
388.34	13.66
388.55	15.6
388.759	11.48
388.969	10.64
389.179	9.43
389.388	8.37
389.598	7.33
389.807	9.6
390.017	8.61
390.227	9.98
390.436	10.16
390.646	10.43
390.855	9
391.065	6.66
391.274	4.64
391.484	3.76
391.693	2.94
391.903	2.83
392.112	2.85
392.322	2.05
392.531	2.18
392.74	2.91
392.95	4.37
393.159	5.59
393.369	5.95
393.578	7.02
393.787	6.24
393.997	5.71
394.206	6.18
394.415	5.41
394.625	4.94
394.834	4.39
395.043	4.93
395.252	4.91
395.462	6.02
395.671	5.51
395.88	6.05
396.089	6.22
396.298	5.38
396.508	5.37
396.717	5.55
396.926	4.96
397.135	4.58
397.344	4.72
397.553	4.39
397.762	4.25
397.971	4.37
398.181	3.6
398.39	3.46
398.599	3.23
398.808	3.58
399.017	3.81
399.226	4.31
399.435	4.57
399.644	4.89
399.853	5.04
400.062	5.1
400.27	4.8
400.479	4.31
400.688	4.14
400.897	4.05
401.106	4.1
401.315	4.47
401.524	4.6
401.733	4.77
401.941	4.78
402.15	4.48
402.359	4.17
402.568	4.3
402.777	4.01
402.985	3.86
403.194	4.17
403.403	4.46
403.612	4.32
403.82	4.47
404.029	4.61
404.238	4.62
404.446	4.45
404.655	4.61
404.864	4.6
405.072	4.35
405.281	4.17
405.489	4.1
405.698	4.03
405.906	3.92
406.115	3.89
406.324	3.84
406.532	3.78
406.741	3.81
406.949	3.92
407.158	3.83
407.366	3.72
407.574	3.93
407.783	3.88
407.991	3.76
408.2	3.99
408.408	4.05
408.617	3.94
408.825	3.86
409.033	3.91
409.242	3.81
409.45	3.79
409.658	3.75
409.867	3.73
410.075	3.68
410.283	3.67
410.491	3.73
410.7	3.68
410.908	3.72
411.116	3.74
411.324	3.67
411.533	3.61
411.741	3.54
411.949	3.53
412.157	3.49
412.365	3.66
412.573	3.58
412.781	3.69
412.99	3.64
413.198	3.73
413.406	3.65
413.614	3.82
413.822	3.75
414.03	3.84
414.238	3.71
414.446	3.69
414.654	3.48
414.862	3.53
415.07	3.38
415.278	3.4
415.486	3.4
415.694	3.47
415.902	3.56
416.109	3.65
416.317	3.68
416.525	3.51
416.733	3.54
416.941	3.52
417.149	3.5
417.357	3.55
417.564	3.53
417.772	3.53
417.98	3.49
418.188	3.58
418.395	3.45
418.603	3.5
418.811	3.63
419.019	3.49
419.226	3.55
419.434	3.75
419.642	3.98
419.849	3.74
420.057	3.79
420.265	3.59
420.472	3.3
420.68	3.07
420.887	3.17
421.095	3.11
421.302	3
421.51	3.11
421.717	3.01
421.925	3.11
422.132	2.93
422.34	3
422.547	2.84
422.755	3.12
422.962	2.97
423.17	3.26
423.377	3.36
423.585	3.59
423.792	3.48
423.999	3.46
424.207	3.39
424.414	3.22
424.621	3.26
424.829	3.05
425.036	3.04
425.243	2.97
425.451	3.03
425.658	2.83
425.865	3.02
426.072	3.04
426.28	3.06
426.487	3.23
426.694	3.18
426.901	3.04
427.108	3.01
427.315	3
427.523	2.79
427.73	2.7
427.937	2.69
428.144	2.75
428.351	2.64
428.558	2.89
428.765	3.01
428.972	3.05
429.179	3.03
429.386	3.16
429.593	2.87
429.8	2.98
430.007	2.87
430.214	2.78
430.421	2.81
430.628	2.87
430.835	2.81
431.042	2.76
431.249	2.75
431.456	2.75
431.662	2.93
431.869	2.99
432.076	3.09
432.283	3.13
432.49	3.08
432.697	2.99
432.903	2.97
433.11	3.27
433.317	3.25
433.524	3.23
433.73	3.28
433.937	3.21
434.144	2.98
434.35	3.09
434.557	3.18
434.764	3.08
434.97	3.06
435.177	3.11
435.384	3.04
435.59	3.07
435.797	3.09
436.003	3.24
436.21	3.1
436.416	3.04
436.623	2.98
436.829	2.93
437.036	2.81
437.242	2.83
437.449	2.89
437.655	2.88
437.862	2.95
438.068	2.88
438.275	2.96
438.481	2.89
438.687	2.92
438.894	3.02
439.1	2.96
439.307	2.88
439.513	2.92
439.719	2.97
439.926	2.82
440.132	3.09
440.338	3.13
440.544	3.09
440.751	2.91
440.957	2.93
441.163	2.8
441.369	2.79
441.575	2.83
441.782	2.98
441.988	2.93
442.194	2.88
442.4	2.95
442.606	2.87
442.812	2.82
443.018	2.79
443.224	2.76
443.431	2.72
443.637	2.87
443.843	2.79
444.049	2.9
444.255	2.98
444.461	2.95
444.667	2.81
444.873	2.84
445.079	2.95
445.284	2.86
445.49	2.87
445.696	2.9
445.902	2.9
446.108	2.7
446.314	2.75
446.52	2.78
446.726	2.85
446.931	2.91
447.137	2.95
447.343	2.89
447.549	2.77
447.755	2.65
447.96	2.65
448.166	2.7
448.372	2.85
448.578	2.97
448.783	3.12
448.989	3.08
449.195	3.03
449.4	2.94
449.606	2.94
449.812	2.79
450.017	2.8
450.223	2.74
450.428	2.68
450.634	2.68
450.84	2.72
451.045	2.77
451.251	2.84
451.456	2.91
451.662	2.91
451.867	2.88
452.073	2.75
452.278	2.74
452.483	2.64
452.689	2.65
452.894	2.77
453.1	2.88
453.305	2.93
453.51	3.14
453.716	3.01
453.921	2.97
454.127	2.92
454.332	2.79
454.537	2.75
454.742	2.73
454.948	2.56
455.153	2.62
455.358	2.72
455.563	2.65
455.769	2.78
455.974	2.77
456.179	2.62
456.384	2.47
456.589	2.55
456.795	2.41
457	2.46
457.205	2.59
457.41	2.59
457.615	2.46
457.82	2.55
458.025	2.55
458.23	2.46
458.435	2.56
458.64	2.54
458.845	2.56
459.05	2.51
459.255	2.64
459.46	2.62
459.665	2.72
459.87	2.72
460.075	2.87
460.28	2.84
460.485	2.84
460.69	2.73
460.895	2.73
461.099	2.7
461.304	2.63
461.509	2.7
461.714	2.87
461.919	2.84
462.123	2.78
462.328	2.75
462.533	2.64
462.738	2.59
462.942	2.55
463.147	2.6
463.352	2.58
463.556	2.69
463.761	2.63
463.966	2.59
464.17	2.63
464.375	2.71
464.58	2.69
464.784	2.65
464.989	2.76
465.193	2.73
465.398	2.69
465.602	2.65
465.807	2.6
466.011	2.5
466.216	2.46
466.42	2.55
466.625	2.57
466.829	2.64
467.034	2.77
467.238	2.81
467.443	2.79
467.647	2.79
467.851	2.86
468.056	2.74
468.26	2.74
468.464	2.73
468.669	2.69
468.873	2.66
469.077	2.67
469.282	2.62
469.486	2.62
469.69	2.6
469.894	2.59
470.099	2.61
470.303	2.63
470.507	2.56
470.711	2.76
470.915	2.77
471.119	2.8
471.324	2.85
471.528	2.92
471.732	2.79
471.936	2.79
472.14	2.82
472.344	2.85
472.548	2.82
472.752	2.85
472.956	2.89
473.16	2.85
473.364	2.8
473.568	2.85
473.772	2.84
473.976	2.74
474.18	2.74
474.384	2.75
474.588	2.73
474.792	2.69
474.995	2.67
475.199	2.64
475.403	2.64
475.607	2.66
475.811	2.66
476.015	2.67
476.218	2.68
476.422	2.66
476.626	2.61
476.83	2.72
477.033	2.81
477.237	2.89
477.441	2.92
477.644	2.9
477.848	2.77
478.052	2.71
478.255	2.73
478.459	2.79
478.663	2.83
478.866	2.92
479.07	2.95
479.273	2.91
479.477	2.89
479.681	2.96
479.884	2.93
480.088	2.92
480.291	2.94
480.495	2.9
480.698	2.85
480.901	2.86
481.105	2.89
481.308	2.82
481.512	2.8
481.715	2.71
481.919	2.65
482.122	2.59
482.325	2.68
482.529	2.7
482.732	2.76
482.935	2.76
483.138	2.89
483.342	2.8
483.545	2.88
483.748	2.89
483.952	2.97
484.155	2.87
484.358	3
484.561	3.01
484.764	2.98
484.967	2.97
485.171	3.01
485.374	2.94
485.577	2.86
485.78	2.9
485.983	2.84
486.186	2.8
486.389	2.77
486.592	2.75
486.795	2.81
486.998	2.83
487.201	2.87
487.404	2.95
487.607	2.99
487.81	3
488.013	3.05
488.216	3.17
488.419	3.13
488.622	3.06
488.825	3.06
489.028	3.06
489.231	2.93
489.433	2.93
489.636	3.01
489.839	2.98
490.042	2.95
490.245	2.94
490.447	2.91
490.65	2.9
490.853	2.83
491.056	2.85
491.258	2.86
491.461	2.88
491.664	2.88
491.866	2.96
492.069	2.99
492.272	2.99
492.474	3.05
492.677	3.07
492.879	3.04
493.082	2.96
493.285	2.98
493.487	2.98
493.69	2.98
493.892	2.92
494.095	2.99
494.297	2.96
494.5	2.95
494.702	2.96
494.905	3.04
495.107	3.09
495.309	3.09
495.512	3.1
495.714	3.12
495.917	3.12
496.119	3.02
496.321	3.06
496.524	3.04
496.726	3.03
496.928	3.04
497.13	3.12
497.333	3.23
497.535	3.3
497.737	3.31
497.939	3.31
498.142	3.32
498.344	3.24
498.546	3.2
498.748	3.27
498.95	3.34
499.152	3.31
499.355	3.31
499.557	3.28
499.759	3.27
499.961	3.29
500.163	3.3
500.365	3.27
500.567	3.3
500.769	3.29
500.971	3.25
501.173	3.26
501.375	3.36
501.577	3.41
501.779	3.43
501.981	3.51
502.183	3.56
502.385	3.58
502.587	3.55
502.788	3.6
502.99	3.56
503.192	3.56
503.394	3.52
503.596	3.57
503.798	3.62
503.999	3.65
504.201	3.65
504.403	3.66
504.605	3.68
504.806	3.6
505.008	3.62
505.21	3.59
505.411	3.55
505.613	3.53
505.815	3.62
506.016	3.61
506.218	3.66
506.42	3.72
506.621	3.72
506.823	3.65
507.024	3.66
507.226	3.72
507.427	3.68
507.629	3.64
507.83	3.65
508.032	3.59
508.233	3.54
508.435	3.57
508.636	3.67
508.838	3.73
509.039	3.72
509.24	3.72
509.442	3.71
509.643	3.64
509.845	3.56
510.046	3.61
510.247	3.62
510.448	3.61
510.65	3.72
510.851	3.77
511.052	3.76
511.254	3.81
511.455	3.89
511.656	3.86
511.857	3.81
512.058	3.82
512.26	3.81
512.461	3.76
512.662	3.72
512.863	3.78
513.064	3.77
513.265	3.74
513.466	3.78
513.667	3.84
513.868	3.8
514.069	3.84
514.27	3.81
514.471	3.82
514.672	3.8
514.873	3.88
515.074	3.88
515.275	3.92
515.476	3.86
515.677	3.85
515.878	3.79
516.079	3.81
516.28	3.77
516.481	3.86
516.682	3.89
516.882	3.88
517.083	3.81
517.284	3.86
517.485	3.79
517.686	3.79
517.886	3.82
518.087	3.89
518.288	3.88
518.488	3.91
518.689	3.95
518.89	3.95
519.091	3.95
519.291	4
519.492	3.97
519.692	3.99
519.893	4.03
520.094	4
520.294	4.02
520.495	4.1
520.695	4.05
520.896	4.01
521.096	4.1
521.297	4.11
521.497	4.11
521.698	4.13
521.898	4.15
522.099	4.17
522.299	4.15
522.499	4.08
522.7	4.09
522.9	4.11
523.101	4.06
523.301	4.04
523.501	4.09
523.702	4.13
523.902	4.17
524.102	4.2
524.302	4.2
524.503	4.19
524.703	4.23
524.903	4.19
525.103	4.19
525.304	4.21
525.504	4.24
525.704	4.22
525.904	4.27
526.104	4.27
526.304	4.34
526.504	4.34
526.705	4.3
526.905	4.27
527.105	4.27
527.305	4.26
527.505	4.25
527.705	4.31
527.905	4.32
528.105	4.33
528.305	4.31
528.505	4.34
528.705	4.34
528.905	4.32
529.105	4.35
529.304	4.34
529.504	4.42
529.704	4.39
529.904	4.43
530.104	4.42
530.304	4.47
530.503	4.45
530.703	4.45
530.903	4.52
531.103	4.53
531.303	4.55
531.502	4.53
531.702	4.54
531.902	4.48
532.101	4.48
532.301	4.52
532.501	4.48
532.7	4.56
532.9	4.6
533.1	4.65
533.299	4.67
533.499	4.71
533.698	4.71
533.898	4.69
534.097	4.76
534.297	4.7
534.496	4.73
534.696	4.72
534.895	4.75
535.095	4.75
535.294	4.82
535.494	4.82
535.693	4.87
535.892	4.92
536.092	4.91
536.291	4.9
536.491	4.89
536.69	4.91
536.889	4.91
537.088	4.86
537.288	4.88
537.487	4.99
537.686	5
537.886	5.09
538.085	5.18
538.284	5.22
538.483	5.23
538.682	5.25
538.882	5.22
539.081	5.2
539.28	5.22
539.479	5.22
539.678	5.26
539.877	5.27
540.076	5.27
540.275	5.26
540.474	5.27
540.673	5.25
540.872	5.28
541.071	5.4
541.27	5.47
541.469	5.5
541.668	5.5
541.867	5.53
542.066	5.49
542.265	5.53
542.464	5.53
542.663	5.62
542.862	5.61
543.06	5.66
543.259	5.64
543.458	5.69
543.657	5.74
543.856	5.82
544.054	5.86
544.253	5.86
544.452	5.95
544.651	5.93
544.849	5.93
545.048	5.97
545.247	6.09
545.445	6.09
545.644	6.16
545.843	6.22
546.041	6.28
546.24	6.23
546.438	6.24
546.637	6.28
546.836	6.32
547.034	6.33
547.233	6.47
547.431	6.51
547.63	6.57
547.828	6.63
548.027	6.65
548.225	6.63
548.423	6.71
548.622	6.74
548.82	6.84
549.019	6.95
549.217	7.01
549.415	7.05
549.614	7.08
549.812	7.05
550.01	7.07
550.209	7.12
550.407	7.2
550.605	7.27
550.803	7.32
551.002	7.4
551.2	7.52
551.398	7.57
551.596	7.64
551.794	7.71
551.993	7.7
552.191	7.7
552.389	7.69
552.587	7.78
552.785	7.89
552.983	8
553.181	8.05
553.379	8.16
553.577	8.2
553.775	8.25
553.973	8.32
554.171	8.38
554.369	8.51
554.567	8.58
554.765	8.65
554.963	8.7
555.161	8.82
555.359	8.88
555.557	8.99
555.755	9.05
555.952	9.21
556.15	9.23
556.348	9.29
556.546	9.31
556.744	9.42
556.941	9.42
557.139	9.53
557.337	9.62
557.535	9.73
557.732	9.76
557.93	9.85
558.128	9.96
558.325	10.02
558.523	10.1
558.721	10.23
558.918	10.3
559.116	10.48
559.313	10.55
559.511	10.66
559.708	10.7
559.906	10.83
560.104	10.77
560.301	10.88
560.498	10.94
560.696	11.04
560.893	11.13
561.091	11.31
561.288	11.48
561.486	11.54
561.683	11.68
561.88	11.81
562.078	11.86
562.275	11.83
562.473	11.98
562.67	12.07
562.867	12.16
563.064	12.29
563.262	12.47
563.459	12.6
563.656	12.65
563.853	12.75
564.051	12.78
564.248	12.92
564.445	12.97
564.642	13.08
564.839	13.2
565.036	13.41
565.234	13.47
565.431	13.57
565.628	13.66
565.825	13.72
566.022	13.76
566.219	13.93
566.416	14
566.613	14.1
566.81	14.21
567.007	14.21
567.204	14.15
567.401	14.27
567.598	14.41
567.795	14.47
567.991	14.64
568.188	14.84
568.385	14.95
568.582	15.01
568.779	15.1
568.976	15.17
569.172	15.19
569.369	15.19
569.566	15.2
569.763	15.18
569.96	15.25
570.156	15.3
570.353	15.44
570.55	15.56
570.746	15.67
570.943	15.74
571.14	15.76
571.336	15.79
571.533	15.78
571.729	15.87
571.926	15.87
572.123	15.98
572.319	16.05
572.516	16.13
572.712	16.15
572.909	16.21
573.105	16.28
573.302	16.22
573.498	16.19
573.695	16.21
573.891	16.19
574.087	16.12
574.284	16.25
574.48	16.3
574.677	16.36
574.873	16.43
575.069	16.52
575.266	16.54
575.462	16.54
575.658	16.57
575.854	16.64
576.051	16.64
576.247	16.67
576.443	16.79
576.639	16.89
576.835	16.91
577.032	16.88
577.228	16.84
577.424	16.79
577.62	16.77
577.816	16.7
578.012	16.83
578.208	16.87
578.404	16.94
578.6	17
578.796	17.06
578.993	17.06
579.189	17.08
579.384	17.03
579.58	16.93
579.776	16.86
579.972	16.82
580.168	16.75
580.364	16.75
580.56	16.74
580.756	16.79
580.952	16.77
581.148	16.84
581.343	16.85
581.539	16.8
581.735	16.81
581.931	16.81
582.127	16.82
582.322	16.81
582.518	16.81
582.714	16.76
582.909	16.73
583.105	16.7
583.301	16.55
583.496	16.6
583.692	16.64
583.888	16.54
584.083	16.54
584.279	16.61
584.474	16.54
584.67	16.45
584.866	16.41
585.061	16.34
585.257	16.3
585.452	16.37
585.648	16.35
585.843	16.41
586.039	16.47
586.234	16.46
586.429	16.43
586.625	16.42
586.82	16.37
587.015	16.29
587.211	16.23
587.406	16.26
587.601	16.28
587.797	16.4
587.992	16.32
588.187	16.31
588.383	16.24
588.578	16.26
588.773	16.14
588.968	16.26
589.163	16.32
589.359	16.31
589.554	16.25
589.749	16.35
589.944	16.34
590.139	16.36
590.334	16.49
590.529	16.68
590.724	16.72
590.919	16.78
591.114	16.79
591.309	16.71
591.504	16.59
591.699	16.58
591.894	16.53
592.089	16.58
592.284	16.56
592.479	16.57
592.674	16.56
592.869	16.69
593.064	16.81
593.259	16.95
593.454	17.05
593.648	17.13
593.843	17.13
594.038	17.15
594.233	17.18
594.428	17.28
594.622	17.37
594.817	17.44
595.012	17.44
595.206	17.44
595.401	17.55
595.596	17.58
595.79	17.66
595.985	17.77
596.18	17.87
596.374	17.85
596.569	17.8
596.763	17.88
596.958	17.93
597.153	18.01
597.347	18.08
597.542	18.34
597.736	18.36
597.931	18.38
598.125	18.54
598.319	18.54
598.514	18.55
598.708	18.61
598.903	18.68
599.097	18.7
599.291	18.77
599.486	18.78
599.68	18.88
599.874	18.96
600.069	19.04
600.263	19.15
600.457	19.25
600.651	19.25
600.846	19.32
601.04	19.36
601.234	19.35
601.428	19.35
601.622	19.42
601.817	19.43
602.011	19.4
602.205	19.43
602.399	19.52
602.593	19.58
602.787	19.63
602.981	19.56
603.175	19.74
603.369	19.69
603.563	19.64
603.757	19.61
603.951	19.69
604.145	19.52
604.339	19.53
604.533	19.44
604.727	19.44
604.921	19.47
605.115	19.47
605.309	19.35
605.502	19.46
605.696	19.46
605.89	19.35
606.084	19.25
606.278	19.26
606.471	19.1
606.665	19
606.859	18.98
607.053	18.93
607.246	18.88
607.44	18.91
607.634	18.92
607.827	18.81
608.021	18.75
608.214	18.67
608.408	18.57
608.602	18.47
608.795	18.45
608.989	18.45
609.182	18.41
609.376	18.35
609.569	18.27
609.763	18.13
609.956	17.99
610.15	17.95
610.343	17.9
610.537	17.79
610.73	17.73
610.923	17.72
611.117	17.68
611.31	17.47
611.504	17.41
611.697	17.42
611.89	17.36
612.083	17.15
612.277	17.17
612.47	17.11
612.663	17.03
612.856	16.89
613.05	16.88
613.243	16.84
613.436	16.77
613.629	16.6
613.822	16.59
614.015	16.49
614.209	16.37
614.402	16.32
614.595	16.34
614.788	16.32
614.981	16.34
615.174	16.26
615.367	16.26
615.56	16.11
615.753	15.89
615.946	15.67
616.139	15.64
616.332	15.41
616.525	15.4
616.718	15.37
616.911	15.45
617.103	15.41
617.296	15.38
617.489	15.27
617.682	15.29
617.875	15.25
618.067	15.05
618.26	15.06
618.453	14.98
618.646	14.91
618.838	14.8
619.031	14.91
619.224	14.87
619.417	14.94
619.609	14.93
619.802	14.8
619.994	14.74
620.187	14.64
620.38	14.6
620.572	14.53
620.765	14.54
620.957	14.48
621.15	14.49
621.342	14.42
621.535	14.42
621.727	14.39
621.92	14.35
622.112	14.32
622.305	14.25
622.497	14.22
622.69	14.21
622.882	14.18
623.074	14.24
623.267	14.23
623.459	14.14
623.651	14.06
623.844	14.04
624.036	13.91
624.228	13.95
624.42	13.9
624.613	13.96
624.805	13.92
624.997	13.99
625.189	13.88
625.381	13.95
625.574	13.8
625.766	13.81
625.958	13.72
626.15	13.73
626.342	13.59
626.534	13.67
626.726	13.65
626.918	13.56
627.11	13.6
627.302	13.69
627.494	13.61
627.686	13.57
627.878	13.65
628.07	13.61
628.262	13.54
628.454	13.52
628.646	13.5
628.838	13.42
629.029	13.37
629.221	13.34
629.413	13.3
629.605	13.24
629.797	13.19
629.989	13.04
630.18	13.01
630.372	13.02
630.564	13.04
630.755	13.01
630.947	13.03
631.139	12.97
631.33	12.88
631.522	12.83
631.714	12.8
631.905	12.77
632.097	12.79
632.289	12.73
632.48	12.63
632.672	12.59
632.863	12.57
633.055	12.51
633.246	12.57
633.438	12.55
633.629	12.52
633.821	12.52
634.012	12.53
634.203	12.51
634.395	12.54
634.586	12.63
634.777	12.65
634.969	12.64
635.16	12.58
635.351	12.53
635.543	12.49
635.734	12.49
635.925	12.42
636.117	12.42
636.308	12.37
636.499	12.28
636.69	12.2
636.881	12.25
637.073	12.28
637.264	12.33
637.455	12.33
637.646	12.32
637.837	12.22
638.028	12.12
638.219	12.09
638.41	12.15
638.601	12.11
638.792	12.11
638.983	12.12
639.174	12.11
639.365	12.02
639.556	11.98
639.747	12
639.938	12.08
640.129	12.02
640.32	11.99
640.511	12
640.701	11.95
640.892	11.9
641.083	11.9
641.274	11.86
641.465	11.81
641.655	11.77
641.846	11.73
642.037	11.71
642.228	11.76
642.418	11.75
642.609	11.66
642.8	11.58
642.99	11.52
643.181	11.47
643.372	11.46
643.562	11.42
643.753	11.43
643.943	11.45
644.134	11.42
644.324	11.35
644.515	11.39
644.705	11.25
644.896	11.2
645.086	11.14
645.277	11.12
645.467	11.13
645.658	11.2
645.848	11.17
646.038	11.13
646.229	11.19
646.419	11.17
646.61	11.14
646.8	11.18
646.99	11.19
647.18	11.17
647.371	11.18
647.561	11.12
647.751	11.15
647.941	11.09
648.132	11.08
648.322	10.99
648.512	11.04
648.702	10.92
648.892	10.89
649.082	10.87
649.272	10.9
649.462	10.91
649.653	10.96
649.843	10.93
650.033	10.9
650.223	10.78
650.413	10.75
650.603	10.72
650.793	10.71
650.983	10.68
651.172	10.8
651.362	10.79
651.552	10.73
651.742	10.7
651.932	10.62
652.122	10.63
652.312	10.51
652.502	10.5
652.691	10.52
652.881	10.43
653.071	10.31
653.261	10.32
653.45	10.15
653.64	10.06
653.83	10.11
654.019	9.95
654.209	9.85
654.399	9.83
654.588	9.69
654.778	9.52
654.968	9.48
655.157	9.38
655.347	9.33
655.536	9.3
655.726	9.21
655.915	9.21
656.105	9.08
656.294	8.94
656.484	8.8
656.673	8.72
656.863	8.55
657.052	8.44
657.241	8.31
657.431	8.24
657.62	8.07
657.809	7.82
657.999	7.75
658.188	7.68
658.377	7.57
658.567	7.49
658.756	7.44
658.945	7.33
659.134	7.2
659.324	7.06
659.513	6.95
659.702	6.82
659.891	6.67
660.08	6.44
660.269	6.29
660.458	6.16
660.648	6.17
660.837	6.14
661.026	6.14
661.215	6.07
661.404	6.04
661.593	5.76
661.782	5.56
661.971	5.39
662.16	5.26
662.349	5.06
662.538	5
662.726	5.01
662.915	5
663.104	4.9
663.293	4.88
663.482	4.87
663.671	4.68
663.86	4.57
664.048	4.49
664.237	4.39
664.426	4.27
664.615	4.29
664.803	4.12
664.992	4.15
665.181	4.21
665.369	4.17
665.558	4.04
665.747	4.13
665.935	4.05
666.124	3.96
666.312	3.9
666.501	3.9
666.69	3.93
666.878	3.92
667.067	3.76
667.255	3.85
667.444	3.9
667.632	3.89
667.82	3.93
668.009	4.07
668.197	4.09
668.386	4.14
668.574	4.01
668.762	3.93
668.951	3.94
669.139	3.96
669.327	3.86
669.516	3.98
669.704	3.97
669.892	4.01
670.08	3.96
670.269	3.95
670.457	3.88
670.645	3.88
670.833	3.83
671.021	3.87
671.21	3.79
671.398	3.84
671.586	3.89
671.774	3.92
671.962	3.89
672.15	4.05
672.338	4.06
672.526	4.17
672.714	4.16
672.902	4.17
673.09	4.24
673.278	4.33
673.466	4.29
673.654	4.49
673.842	4.58
674.03	4.57
674.218	4.57
674.405	4.64
674.593	4.45
674.781	4.55
674.969	4.59
675.157	4.61
675.344	4.61
675.532	4.74
675.72	4.83
675.908	4.95
676.095	5.03
676.283	5.11
676.471	5.24
676.658	5.34
676.846	5.34
677.033	5.46
677.221	5.59
677.409	5.55
677.596	5.56
677.784	5.58
677.971	5.46
678.159	5.46
678.346	5.45
678.534	5.43
678.721	5.57
678.909	5.85
679.096	5.81
679.283	6.01
679.471	5.96
679.658	5.98
679.846	5.98
680.033	6.11
680.22	6.16
680.408	6.31
680.595	6.42
680.782	6.35
680.969	6.48
681.157	6.59
681.344	6.63
681.531	6.6
681.718	6.84
681.905	6.82
682.093	6.81
682.28	6.8
682.467	7.21
682.654	7.24
682.841	7.36
683.028	7.53
683.215	7.69
683.402	7.52
683.589	7.59
683.776	7.67
683.963	7.69
684.15	7.85
684.337	7.93
684.524	8.13
684.711	8.38
684.898	8.62
685.085	8.93
685.271	9.26
685.458	9.42
685.645	9.62
685.832	9.79
686.019	10
686.205	10.28
686.392	10.62
686.579	10.85
686.766	11.24
686.952	11.57
687.139	11.69
687.326	12
687.512	12.27
687.699	12.39
687.886	12.77
688.072	13.16
688.259	13.39
688.445	13.77
688.632	14.39
688.818	14.56
689.005	14.89
689.191	15.4
689.378	15.84
689.564	16.35
689.751	16.98
689.937	17.6
690.124	18.14
690.31	18.67
690.496	19.24
690.683	19.7
690.869	20.32
691.055	20.78
691.242	21.39
691.428	21.91
691.614	22.59
691.8	23.11
691.987	23.89
692.173	24.59
692.359	25.23
692.545	25.74
692.731	26.52
692.918	27.14
693.104	27.83
693.29	28.47
693.476	29.32
693.662	30.28
693.848	31.27
694.034	32
694.22	32.79
694.406	33.55
694.592	33.88
694.778	34.34
694.964	35.06
695.15	35.73
695.336	36.38
695.522	37.19
695.708	38.17
695.894	39.09
696.08	39.94
696.265	40.78
696.451	41.77
696.637	42.33
696.823	42.74
697.009	43.48
697.194	44.28
697.38	45.07
697.566	45.95
697.751	46.91
697.937	47.61
698.123	48.3
698.308	48.7
698.494	49.45
698.68	50.16
698.865	50.86
699.051	51.29
699.236	52.21
699.422	52.78
699.607	53.34
699.793	54.14
699.978	55.2
700.164	55.83
700.349	56.53
700.535	57.25
700.72	57.72
700.906	58.29
701.091	58.85
701.276	59.28
701.462	60.06
701.647	61.05
701.832	61.84
702.018	62.34
702.203	63.04
702.388	63.43
702.573	63.69
702.759	63.89
702.944	64.45
703.129	65.41
703.314	65.79
703.499	66.16
703.684	66.91
703.87	67.71
704.055	67.79
704.24	68.1
704.425	68.57
704.61	69
704.795	69.22
704.98	69.99
705.165	70.72
705.35	71.5
705.535	72.03
705.72	72.62
705.905	72.87
706.09	73.42
706.275	73.81
706.459	74.24
706.644	74.28
706.829	74.59
707.014	75.08
707.199	75.37
707.384	75.71
707.568	76.41
707.753	76.89
707.938	76.96
708.123	77.18
708.307	77.43
708.492	78.2
708.677	78.2
708.861	78.95
709.046	79.36
709.231	79.55
709.415	79.28
709.6	79.45
709.784	79.63
709.969	79.67
710.153	80.02
710.338	80.38
710.522	81.12
710.707	81.13
710.891	81.9
711.076	82.19
711.26	82.56
711.445	82.71
711.629	83.07
711.813	83.12
711.998	83.31
712.182	83.54
712.366	83.67
712.551	83.85
712.735	83.97
712.919	84.35
713.103	83.91
713.288	83.66
713.472	83.47
713.656	83.65
713.84	83.7
714.024	84.06
714.208	84.59
714.393	85.13
714.577	85.23
714.761	85.39
714.945	85.6
715.129	85.49
715.313	85.53
715.497	86
715.681	85.88
715.865	86.44
716.049	86.85
716.233	87.55
716.417	87.9
716.601	88.37
716.785	88.1
716.968	88.2
717.152	87.75
717.336	87.75
717.52	87.35
717.704	87.63
717.888	88.2
718.071	88.31
718.255	87.75
718.439	88.41
718.622	88.38
718.806	88.49
718.99	89.03
719.174	89.22
719.357	89.15
719.541	89.8
719.724	89.82
719.908	89.73
720.092	89.68
720.275	89.9
720.459	89.58
720.642	89.61
720.826	89.45
721.009	89.85
721.193	90.14
721.376	90.26
721.559	90.23
721.743	90.06
721.926	89.78
722.11	89.28
722.293	89.38
722.476	89.91
722.66	90.18
722.843	90.7
723.026	90.93
723.21	91.08
723.393	90.15
723.576	90.83
723.759	90.82
723.942	91.12
724.126	91.17
724.309	92.17
724.492	91.64
724.675	91.62
724.858	91.15
725.041	91.19
725.224	91.33
725.407	91.45
725.59	91.94
725.774	92.73
725.957	92.99
726.14	93.04
726.322	93.4
726.505	93.49
726.688	93.45
726.871	93.21
727.054	93.11
727.237	92.84
727.42	92.79
727.603	92.37
727.786	92.74
727.968	92.6
728.151	92.71
728.334	92.46
728.517	92.7
728.699	92.58
728.882	92.27
729.065	93.18
729.248	93.56
729.43	93.94
729.613	94.82
729.796	94.72
729.978	95.04
730.161	95.17
730.343	94.72
730.526	94.8
730.708	95.47
730.891	95.43
731.073	95.2
731.256	96.4
731.438	95.66
731.621	96.1
731.803	95.87
731.986	96.41
732.168	95.91
732.35	95.94
732.533	95.19
732.715	94.39
732.898	94.36
733.08	94.59
733.262	94.66
733.444	95.26
733.627	96.11
733.809	96.04
733.991	95.97
734.173	96.41
734.355	96.65
734.538	96.54
734.72	96.94
734.902	97.39
735.084	97.58
735.266	97.29
735.448	97.87
735.63	97.75
735.812	97.09
735.994	95.58
736.176	95.22
736.358	95.61
736.54	95.15
736.722	95.84
736.904	96.83
737.086	96.77
737.268	95.65
737.45	95.68
737.632	94.98
737.814	94.95
737.995	95.51
738.177	95.81
738.359	96.29
738.541	96.35
738.723	95.85
738.904	96.37
739.086	96.29
739.268	96.37
739.449	96.45
739.631	97.35
739.813	97.12
739.994	97.28
740.176	96.87
740.358	96.71
740.539	97.32
740.721	96.81
740.902	96.25
741.084	96.65
741.265	96.65
741.447	95.48
741.628	95.71
741.81	95.52
741.991	94.32
742.172	95.15
742.354	95.67
742.535	96.04
742.717	96.31
742.898	98.39
743.079	97.8
743.261	97.24
743.442	96.8
743.623	97.14
743.804	95.46
743.986	95.99
744.167	97.18
744.348	95.96
744.529	95.64
744.71	97.04
744.891	97.91
745.073	97.48
745.254	98.79
745.435	98.87
745.616	97.16
745.797	94.78
745.978	93.72
746.159	94.96
746.34	94.8
746.521	95.2
746.702	96.2
746.883	96.83
747.064	94.56
747.245	95.67
747.426	95.67
747.606	94.23
747.787	95.29
747.968	96.65
748.149	95.26
748.33	95.62
748.51	98.44
748.691	98.07
748.872	97.68
749.053	98.46
749.233	98.68
749.414	96.7
749.595	96.84
749.775	97.63
749.956	97.42
750.137	96.86
750.317	96.65
750.498	96.36
750.678	96.33
750.859	96.82
751.04	96.9
751.22	97.3
751.4	96.87
751.581	96.28
751.761	96.09
751.942	96.09
752.122	97.45
752.303	96.79
752.483	96.14
752.663	95.99
752.844	97.14
753.024	96.04
753.204	95.66
753.385	94.86
753.565	95.88
753.745	94.61
753.925	93.45
754.106	94.11
754.286	95.55
754.466	94.52
754.646	95.32
754.826	96.34
755.006	97.57
755.187	97.68
755.367	97.59
755.547	97.5
755.727	96.51
755.907	95.34
756.087	95.26
756.267	93.71
756.447	93.33
756.627	94.47
756.807	94.5
756.987	93.45
757.167	94.33
757.346	95.06
757.526	93.5
757.706	93.45
757.886	93.21
758.066	94.05
758.246	92.99
758.425	94.78
758.605	94.85
758.785	96.52
758.965	97.76
759.144	99.54
759.324	98.6
759.504	98.16
759.683	96.46
759.863	93.38
760.043	91.93
760.222	91.4
760.402	91.8
760.581	94.07
760.761	93.9
760.94	93.33
761.12	94.12
761.299	93.99
761.479	92.95
761.658	94.33
761.838	94.65
762.017	95.34
762.197	95.08
762.376	94.75
762.555	93.17
762.735	93.19
762.914	91.26
763.093	90.28
763.273	90.02
763.452	90.53
763.631	89.25
763.81	89.82
763.99	92.86
764.169	93.86
764.348	94.92
764.527	95.87
764.706	94.75
764.885	93.11
765.064	93.16
765.243	93.75
765.423	93.33
765.602	93.82
765.781	93.64
765.96	92.68
766.139	91.37
766.318	91.34
766.497	93.19
766.676	92.65
766.854	93.2
767.033	93.09
767.212	94.21
767.391	92.97
767.57	94.22
767.749	91.19
767.928	91.24
768.106	91.14
768.285	90.86
768.464	89.57
768.643	92.52
768.821	92.76
769	91.25
769.179	92.9
769.357	93.04
769.536	91.21
769.715	91.22
769.893	94.36
770.072	91.8
770.25	92.62
770.429	92.09
770.607	91.39
770.786	90.39
770.964	90.49
771.143	90.57
771.321	92.78
771.5	95.16
771.678	93.38
771.857	93.12
772.035	94.77
772.213	94.15
772.392	92.49
772.57	93.24
772.748	95.09
772.927	92.89
773.105	90.84
773.283	89.63
773.461	88.04
773.64	87.57
773.818	87.79
773.996	88.36
774.174	89.24
774.352	90.39
774.531	89.61
774.709	87.82
774.887	90.26
775.065	90.7
775.243	89.48
775.421	90.02
775.599	89.03
775.777	86.55
775.955	85.5
776.133	88.89
776.311	89.5
776.489	91.23
776.667	93.01
776.844	92.93
777.022	91.09
777.2	89.64
777.378	90.1
777.556	89.24
777.734	87.61
777.911	86.22
778.089	87.54
778.267	84.56
778.445	83.23
778.622	86.55
778.8	89.51
778.978	87.48
779.155	88.24
779.333	88
779.511	85.63
779.688	82.45
779.866	82.33
780.043	85.88
780.221	88.46
780.398	88.56
780.576	91.72
780.753	93.16
780.931	90.94
781.108	91.05
781.286	90.99
781.463	89.11
781.64	90.56
781.818	92.75
781.995	91.71
782.172	93.26
782.35	91.91
782.527	92.04
782.704	91.79
782.882	93.16
783.059	92.16
783.236	91.76
783.413	90.62
783.59	88.22
783.768	88.29
783.945	89.97
784.122	92.21
784.299	90.72
784.476	90.26
784.653	90.03
784.83	89.13
785.007	90.01
785.184	89.82
785.361	89.93
785.538	86.08
785.715	85.06
785.892	83.43
786.069	84.98
786.246	83.91
786.423	88.15
786.6	89.66
786.776	90.66
786.953	87.14
787.13	90.19
787.307	87.77
787.484	87.91
787.66	89.88
787.837	95.87
788.014	96.78
788.191	99.01
788.367	99.37
788.544	97.38
788.721	92.54
788.897	89.11
789.074	85.94
789.25	80.94
789.427	76.92
789.603	77.73
789.78	78.59
789.956	81.48
790.133	83.75
790.309	86.31
790.486	80.37
790.662	82.86
790.839	80.62
791.015	80.9
791.192	82.4
791.368	89.06
791.544	87.1
791.721	87.73
791.897	86.16
792.073	84.38
792.249	83.74
792.426	86.51
792.602	84.22
792.778	85.02
792.954	84.07
793.13	87.22
793.307	84.46
793.483	86.29
793.659	87.58
793.835	83.39
794.011	81.4
794.187	80.98
794.363	79.28
794.539	79.59
794.715	84.77
794.891	85.43
795.067	81.86
795.243	84.21
795.419	83.82
795.595	86.31
795.771	86.48
795.947	89.7
796.122	88.16
796.298	87.58
796.474	83.41
796.65	82.58
796.826	83.88
797.001	87.31
797.177	82.9
797.353	80.59
797.529	83.16
797.704	84.74
797.88	80.91
798.056	85.13
798.231	91.18
798.407	87.07
798.582	83.77
798.758	82.66
798.934	81.37
799.109	78.78
799.285	80.12
799.46	79.06
799.636	75.87
799.811	73.84
799.986	72.15
800.162	69.72
800.337	71.93
800.513	76.43
800.688	82.5
800.863	80.81
801.039	86.82
801.214	91.07
801.389	90.26
801.565	84.56
801.74	91.08
801.915	88.07
802.09	78.48
802.265	80.93
802.441	82.56
802.616	78.21
802.791	77.34
802.966	80.74
803.141	79.08
803.316	79.55
803.491	83.47
803.666	80.46
803.841	82.21
804.016	84.92
804.191	86.19
804.366	87.13
804.541	86.68
804.716	82.89
804.891	82.1
805.066	80.65
805.241	81.25
805.416	76.54
805.591	75.37
805.765	77.06
805.94	73.69
806.115	65.83
806.29	70.31
806.464	70.46
806.639	62.45
806.814	63.43
806.989	69.09
807.163	67.95
807.338	75.98
807.512	78.67
807.687	85.96
807.862	78.19
808.036	79.98
808.211	75.49
808.385	75.21
808.56	73.19
808.734	78.47
808.909	82.14
809.083	74.12
809.258	74.03
809.432	75.01
809.606	75.5
809.781	68.48
809.955	75.18
810.13	75.58
810.304	69.8
810.478	68.81
810.652	72.88
810.827	75.76
811.001	79.48
811.175	86.32
811.349	95.24
811.524	90.69
811.698	86.12
811.872	84.13
812.046	84.33
812.22	74.08
812.394	78.96
812.568	90.41
812.742	85.05
812.916	81.93
813.09	80.08
813.264	78.15
813.438	69.19
813.612	72.22
813.786	67.26
813.96	76.59
814.134	70.1
814.308	73.53
814.482	69.97
814.656	66.61
814.83	61.93
815.003	69.38
815.177	65.95
815.351	77.82
815.525	88.51
815.698	87.47
815.872	84.66
816.046	93.08
816.219	84.23
816.393	88.96
816.567	87.36
816.74	84.77
816.914	80.17
817.088	73.66
817.261	71.22
817.435	80.74
817.608	85.97
817.782	80.93
817.955	90.08
818.129	91
818.302	70.65
818.475	66.58
818.649	82.99
818.822	89.04
818.996	88.88
819.169	90.96
819.342	92.64
819.516	76.56
819.689	72.18
819.862	75.69
820.035	73.26
820.209	71.63
820.382	79.45
820.555	77.55
820.728	76.72
820.901	80.6
821.075	87.53
821.248	86.35
821.421	87
821.594	77.19
821.767	75.08
821.94	65.19
822.113	62.23
822.286	62.48
822.459	61.46
822.632	57.7
822.805	54.46
822.978	55.78
823.151	55.44
823.324	57.47
823.496	63.99
823.669	66.73
823.842	65.28
824.015	69.25
824.188	63.35
824.361	67.74
824.533	69.36
824.706	61.54
824.879	40.1
825.051	43.6
825.224	39.89
825.397	30.05
825.569	31.16
825.742	50.11
825.915	42.06
826.087	41.19
826.26	52.11
826.432	65.07
826.605	61.44
826.777	60.7
826.95	60.12
827.122	59.36
827.295	57.84
827.467	62.93
827.64	72.22
827.812	68.78
827.984	82.01
828.157	71.51
828.329	74.71
828.501	80.89
828.674	68.36
828.846	52.38
829.018	68.79
829.19	77.61
829.363	69.27
829.535	73.77
829.707	71.89
829.879	53.45
830.051	33.45
830.223	42.21
830.395	51.45
830.568	63.17
830.74	67.87
830.912	71.75
831.084	75.64
831.256	68.68
831.428	72.03
831.6	84.53
831.772	77.51
831.943	65.84
832.115	82.38
832.287	80.61
832.459	62.85
832.631	71.42
832.803	79.53
832.975	64.14
833.146	55.48
833.318	59.4
833.49	75.15
833.662	75.88
833.833	71.2
834.005	85.28
834.177	105.12
834.348	98.87
834.52	80.99
834.692	84.27
834.863	96.48
835.035	93.33
835.206	81.5
835.378	80.57
835.549	81.6
835.721	60.47
835.892	60.41
836.064	68.09
836.235	69.1
836.407	66.78
836.578	69.97
836.749	65.86
836.921	63.69
837.092	69.85
837.264	65.9
837.435	61.5
837.606	66.75
837.777	59.91
837.949	44.25
838.12	46.05
838.291	51.53
838.462	44.92
838.633	45.74
838.805	47.38
838.976	50.29
839.147	60.11
839.318	60.05
839.489	56.77
839.66	83.72
839.831	93.33
840.002	67.02
840.173	57.92
840.344	76
840.515	71
840.686	59.38
840.857	77.08
841.028	88.49
841.199	90.11
841.369	73.91
841.54	84.59
841.711	86.89
841.882	78.98
842.053	66.75
842.223	86.57
842.394	79.73
842.565	88.24
842.736	93.25
842.906	205.07
843.077	126.69
843.248	178.82
843.418	122.21
843.589	90.3
843.759	74.08
843.93	73.95
844.101	83.87
844.271	88.11
844.442	83.1
844.612	76.71
844.783	73.59
844.953	49.48
845.123	41.85
845.294	35.32
845.464	37.56
845.635	55.08
845.805	71.75
845.975	77.25
846.146	90.51
846.316	88.69
846.486	95.33
846.656	78.14
846.827	77.94
846.997	111.85
847.167	95.99
847.337	67.64
847.507	86.04
847.677	86.9
847.848	79.33
848.018	121.39
848.188	139.73
848.358	98.71
848.528	109.1
848.698	125.86
848.868	99.62
849.038	81.36
849.208	72.88
849.378	77.2
849.548	38.54
849.718	44.41
849.887	50.58
850.057	69.88
850.227	62.81
850.397	81.65
850.567	75.33
850.737	75.14
850.906	57.01
851.076	57.29
851.246	53.74
851.415	61.41
851.585	74.67
851.755	76.58
851.924	77.11
852.094	66.85
852.264	45.63
852.433	21.63
852.603	17.47
852.772	-0.6
852.942	19.95
853.111	49.46
853.281	62.4
853.45	63.76
853.62	47.65
853.789	27.02
853.959	23.33
854.128	30.19
854.297	43.32
854.467	87.18
854.636	108.05
854.805	94.27
854.975	84.68
855.144	60.21
855.313	49.94
855.482	44.95
855.652	38.22
855.821	45.37
855.99	42.42
856.159	47.62
856.328	47.13
856.497	22.28
856.667	26.57
856.836	60.37
857.005	41.56
857.174	57.88
857.343	65.28
857.512	83.59
857.681	29.55
857.85	53.35
858.019	-10.27
858.188	-5.11
858.356	-17.19
858.525	8.54
858.694	-6.08
858.863	3.16
859.032	26.97
859.201	12.92
859.369	10.48
859.538	16.65
859.707	35.56
859.876	45.51
860.044	67.07
860.213	56.5
860.382	84.6
860.55	114.41
860.719	125.97
860.888	128.91
861.056	114.47
861.225	107.35
861.393	105.01
861.562	100.14
861.73	99.33
861.899	99.27
862.067	89.07
862.236	80.51
862.404	73.03
862.572	67.31
862.741	61.56
862.909	47.76
863.078	42.86
863.246	50.62
863.414	48.59
863.582	73.99
863.751	77.18
863.919	91.31
864.087	99.87
864.255	86.89
864.424	63.85
864.592	67.18
864.76	75.88
864.928	65.03
865.096	58.9
865.264	62.18
865.432	69.34
865.6	41.29
865.768	50.79
865.936	39.81
866.104	41.28
866.272	24.03
866.44	39.72
866.608	27.05
866.776	51.53
866.944	61.24
867.112	71.75
867.28	73.22
867.448	65.22
867.615	67.18
867.783	70.48
867.951	67.91
868.119	72.02
868.286	89.5
868.454	76.66
868.622	69.28
868.789	62.36
868.957	51.23
869.125	36.78
869.292	37.52
869.46	32.2
869.627	47.04
869.795	51.51
869.963	61.18
870.13	80.59
870.298	95.04
870.465	91.63
870.632	79.42
870.8	64.8
870.967	51.05
871.135	42.68
871.302	5.92
871.469	34.07
871.637	39.69
871.804	34.25
871.971	42.09
872.139	63.89
872.306	70.85
872.473	80.9
872.64	96.39
872.807	84.88
872.975	57.49
873.142	45.48
873.309	49.64
873.476	40.73
873.643	29.53
873.81	44.59
873.977	53.75
874.144	26.94
874.311	21.91
874.478	32.49
874.645	56.48
874.812	54.31
874.979	65.49
875.146	54.89
875.313	50.58
875.48	28.2
875.647	35.12
875.813	49.44
875.98	86.54
876.147	112.29
876.314	123.69
876.481	102.49
876.647	101.4
876.814	102.34
876.981	94.93
877.147	90.07
877.314	65.32
877.481	63.48
877.647	28.19
877.814	15.02
877.98	15.41
878.147	10.19
878.314	-0.53
878.48	18.48
878.647	22.12
878.813	-12.5
878.979	14.58
879.146	25.25
879.312	33.59
879.479	24.77
879.645	79.76
879.811	64.17
879.978	46.75
880.144	65.23
880.31	79.51
880.477	76.21
880.643	92.68
880.809	118.42
880.975	128.72
881.142	91.95
881.308	32.03
881.474	29.78
881.64	-29.57
881.806	-121.09
881.972	21.53
882.138	77.57
882.304	22.26
882.47	29.99
882.636	35.81
882.802	29.82
882.968	18.62
883.134	15.68
883.3	22.57
883.466	6.75
883.632	17.77
883.798	45.89
883.964	97.83
884.129	127.13
884.295	96.87
884.461	71.6
884.627	61.4
884.793	78.01
884.958	83.28
885.124	87.34
885.29	70.12
885.455	71.18
885.621	69.13
885.787	45.14
885.952	60.47
886.118	52.99
886.283	58.12
886.449	50.33
886.614	70.68
886.78	56.27
886.945	79.81
887.111	87.15
887.276	62.78
887.442	46.26
887.607	68.15
887.773	69.86
887.938	0.41
888.103	21.19
888.269	57.13
888.434	52.24
888.599	35.91
888.764	56.05
888.93	76.12
889.095	81.25
889.26	75.04
889.425	108.33
889.59	109.12
889.756	88.85
889.921	56.65
890.086	60.57
890.251	46.34
890.416	17.44
890.581	-16.29
890.746	51.09
890.911	62.64
891.076	77.14
891.241	93.7
891.406	108.69
891.571	47.97
891.736	22.8
891.901	48.03
892.065	52.11
892.23	54.92
892.395	90.4
892.56	134.47
892.725	74.46
892.889	39.04
893.054	57.58
893.219	71.59
893.384	82.13
893.548	82.11
893.713	95.83
893.878	94.35
