Data from Ofav_PP_310_Reflection_1.txt Node
Date: Tue Jul 27 19:01:01 EDT 2021
User: USUARIO
Spectrometer: FLMT01687
Trigger mode: 0
Integration Time (sec): 8.500000E-1
Scans to average: 2
Electric dark correction enabled: true
Nonlinearity correction enabled: false
Boxcar width: 2
XAxis mode: Wavelengths
Number of Pixels in Spectrum: 3648
>>>>>Begin Spectral Data<<<<<
179.494	-202.96
179.716	-64.78
179.937	-5.35
180.158	-40.58
180.38	24.75
180.601	-17.32
180.823	-14.83
181.044	15
181.265	-9.84
181.486	21.67
181.708	35.75
181.929	-62.05
182.15	-52.87
182.372	-135.06
182.593	22.89
182.814	70.93
183.035	89.25
183.257	91.96
183.478	72.45
183.699	48.71
183.92	54.95
184.141	57.86
184.363	52.98
184.584	63.98
184.805	78.11
185.026	63.71
185.247	57
185.468	36.47
185.689	29.67
185.91	24.09
186.132	10.73
186.353	11.51
186.574	8.98
186.795	-5.37
187.016	-7.21
187.237	-10.6
187.458	1.73
187.679	10.39
187.9	2.59
188.121	-0.26
188.342	-0.92
188.563	-12.13
188.784	-1.28
189.005	37.44
189.226	51.58
189.447	42.56
189.667	49.08
189.888	54.54
190.109	37.07
190.33	-2.36
190.551	-9.65
190.772	-17.3
190.993	-14.46
191.214	2.74
191.434	12.31
191.655	33.11
191.876	34.62
192.097	39.54
192.318	45.36
192.538	46.73
192.759	42.35
192.98	52.08
193.201	51.97
193.421	34.13
193.642	28.4
193.863	24.02
194.083	20.55
194.304	22.18
194.525	19.1
194.745	4.56
194.966	-33.49
195.187	-71.31
195.407	-63.79
195.628	-57.02
195.848	-20.24
196.069	-0.78
196.29	67.49
196.51	74.37
196.731	45.74
196.951	46.5
197.172	32.77
197.392	14.69
197.613	15.1
197.833	35
198.054	28.95
198.274	17.03
198.495	15.2
198.715	-7.77
198.936	-40.34
199.156	10.35
199.377	47.85
199.597	-11.13
199.817	-1.76
200.038	22.31
200.258	14.76
200.479	-3.07
200.699	39.37
200.919	63.83
201.14	52.75
201.36	34.35
201.58	63.86
201.801	64.92
202.021	37.14
202.241	30.75
202.461	23.72
202.682	-4.35
202.902	-34.67
203.122	-29.01
203.342	-28.14
203.563	3.29
203.783	14.24
204.003	29.71
204.223	19.17
204.443	13.33
204.663	11.51
204.884	4.18
205.104	-1.04
205.324	17.37
205.544	16.66
205.764	10.41
205.984	11.29
206.204	14.51
206.424	10
206.644	39.34
206.864	38.1
207.084	35.82
207.304	24.26
207.525	22.74
207.745	27.53
207.964	53.14
208.184	49.65
208.404	41.06
208.624	35.6
208.844	31.98
209.064	18.1
209.284	20.37
209.504	39.91
209.724	60.02
209.944	42.26
210.164	54.18
210.384	26.26
210.604	-11.28
210.823	4.79
211.043	21.96
211.263	18.69
211.483	29.12
211.703	25.65
211.922	23.8
212.142	39.51
212.362	18.98
212.582	6.37
212.801	13.69
213.021	-15.36
213.241	-42.01
213.461	-68.14
213.68	-47.93
213.9	-55.46
214.12	-21.21
214.339	8.05
214.559	20.34
214.779	19.79
214.998	14.25
215.218	0.16
215.438	4.73
215.657	2.68
215.877	5.17
216.096	12.96
216.316	23.49
216.535	9.98
216.755	15.17
216.974	39.46
217.194	51.77
217.413	53.68
217.633	58.39
217.852	48.02
218.072	34.97
218.291	16.79
218.511	16.78
218.73	30.13
218.95	39.31
219.169	56.36
219.389	44.62
219.608	47.89
219.827	21.87
220.047	-1.57
220.266	4.37
220.485	-2.25
220.705	13.45
220.924	13.22
221.143	9.1
221.363	-1.31
221.582	18.16
221.801	13.37
222.021	14.63
222.24	25.64
222.459	14.37
222.678	1.67
222.897	-20.5
223.117	-10.28
223.336	-14.8
223.555	0.15
223.774	13.1
223.993	13.67
224.213	-7.45
224.432	-14.95
224.651	1.35
224.87	-7.16
225.089	-0.03
225.308	13.21
225.527	23.95
225.746	17.43
225.965	41.59
226.184	31.36
226.404	21.72
226.623	34.95
226.842	25.81
227.061	13.79
227.28	22.13
227.499	27.82
227.718	12.77
227.936	9.73
228.155	21.21
228.374	23.88
228.593	16.73
228.812	23.41
229.031	23.75
229.25	27.86
229.469	20.88
229.688	18.62
229.907	-6.84
230.125	28.17
230.344	-3.27
230.563	15.15
230.782	27.24
231.001	21.42
231.22	18.53
231.438	15.24
231.657	9.38
231.876	-5.81
232.095	14.32
232.313	0.86
232.532	24.18
232.751	12.01
232.969	33.41
233.188	42.72
233.407	36.89
233.625	22.95
233.844	30.45
234.063	12.61
234.281	-15.64
234.5	-9.44
234.719	14.92
234.937	0.31
235.156	4.72
235.374	12.2
235.593	26.82
235.811	6.45
236.03	0.7
236.249	7.65
236.467	10.41
236.686	14.11
236.904	22.92
237.123	35.16
237.341	29.4
237.559	39.66
237.778	30.43
237.996	20.19
238.215	32.59
238.433	40.34
238.652	21.27
238.87	35.62
239.088	39.8
239.307	20.77
239.525	-4.82
239.743	2.07
239.962	-4.01
240.18	9.53
240.398	25.94
240.617	33.46
240.835	39.15
241.053	33.74
241.271	38.25
241.49	39.11
241.708	63.86
241.926	44.21
242.144	38.63
242.363	-0.78
242.581	-6.93
242.799	-19.16
243.017	-19.98
243.235	-11.15
243.453	28.7
243.672	26.87
243.89	15.3
244.108	23.87
244.326	20.31
244.544	4.46
244.762	7.71
244.98	29.86
245.198	24.91
245.416	34.42
245.634	43.92
245.852	43.63
246.07	18.2
246.288	28.74
246.506	21.25
246.724	20.46
246.942	15.38
247.16	25.52
247.378	14.74
247.596	16.59
247.814	4.89
248.032	9.58
248.25	7.97
248.468	9.28
248.685	16.8
248.903	45.49
249.121	48.84
249.339	54.68
249.557	70.79
249.775	40.53
249.992	29.38
250.21	17.49
250.428	4.07
250.646	-13.56
250.863	7.37
251.081	-0.68
251.299	13.93
251.517	20.04
251.734	41.89
251.952	36.7
252.17	65.56
252.387	22.3
252.605	34.23
252.823	24.14
253.04	27.64
253.258	26.92
253.475	45.22
253.693	43.84
253.911	48.79
254.128	56.25
254.346	60.26
254.563	57.96
254.781	54.78
254.998	40.1
255.216	16.76
255.433	5.67
255.651	12.37
255.868	1.85
256.086	12.16
256.303	11.21
256.521	20.49
256.738	25.72
256.956	23.78
257.173	18.9
257.39	23.13
257.608	13.96
257.825	17.18
258.043	28.23
258.26	43.05
258.477	40.74
258.695	35.08
258.912	21.78
259.129	10.2
259.346	1.61
259.564	0.94
259.781	19.6
259.998	34.23
260.216	42.09
260.433	44.22
260.65	52.84
260.867	45.07
261.084	53.95
261.302	53.3
261.519	52.81
261.736	35.07
261.953	38.76
262.17	25.24
262.387	8.54
262.604	-1.92
262.822	2.68
263.039	1.88
263.256	8.82
263.473	46.54
263.69	62.92
263.907	24.54
264.124	52.34
264.341	53.88
264.558	52.29
264.775	57.54
264.992	79.04
265.209	55.09
265.426	48.02
265.643	42.45
265.86	31.01
266.077	21.99
266.294	23.59
266.51	24.44
266.727	13.4
266.944	17.62
267.161	18.02
267.378	14.79
267.595	19.58
267.812	29.15
268.028	41.6
268.245	45.88
268.462	45.02
268.679	37.18
268.896	36.8
269.112	20.96
269.329	12.73
269.546	21.28
269.763	6.88
269.979	7.51
270.196	8.41
270.413	10.02
270.629	2.19
270.846	26.36
271.063	12.84
271.279	-7.31
271.496	-8.89
271.712	-20.9
271.929	-33.94
272.146	-57.96
272.362	-8.4
272.579	11.38
272.795	28.84
273.012	23.32
273.228	29.08
273.445	37.12
273.661	39.36
273.878	23.41
274.094	12.69
274.311	29.26
274.527	13.12
274.744	-3.8
274.96	0.14
275.177	0.67
275.393	-8.77
275.609	-0.22
275.826	5.66
276.042	5.24
276.259	27.76
276.475	21.1
276.691	19.84
276.908	22.99
277.124	23.62
277.34	18.83
277.557	2.91
277.773	7.37
277.989	21.65
278.205	27.78
278.422	37.46
278.638	42.96
278.854	49.96
279.07	44.26
279.286	28.14
279.503	17.98
279.719	32.81
279.935	29.01
280.151	24.68
280.367	38.34
280.583	28.49
280.799	22.66
281.016	10.76
281.232	10.39
281.448	10.23
281.664	23.62
281.88	24.01
282.096	25.78
282.312	20.71
282.528	3.98
282.744	-21.78
282.96	-6.4
283.176	-8.84
283.392	-8.18
283.608	-0.27
283.824	18.15
284.04	-15.25
284.256	-0.57
284.471	11.65
284.687	16.92
284.903	6.38
285.119	14.52
285.335	13.53
285.551	4.41
285.767	17.23
285.982	20.51
286.198	40.02
286.414	19.03
286.63	13.22
286.846	-9.08
287.061	-8.82
287.277	-18.9
287.493	-21.8
287.709	-19.89
287.924	6.56
288.14	12.01
288.356	25.56
288.571	41.36
288.787	30.98
289.003	10.21
289.218	9.01
289.434	6.62
289.65	8.22
289.865	8.61
290.081	22.07
290.296	11.04
290.512	-10.8
290.727	-11.74
290.943	-16.5
291.159	-54.12
291.374	-49.74
291.59	1.46
291.805	4.88
292.021	21.19
292.236	23.41
292.451	21.92
292.667	1.83
292.882	0.36
293.098	-11.1
293.313	-0.02
293.529	7.32
293.744	17.72
293.959	19.83
294.175	23.22
294.39	10.84
294.605	9.25
294.821	3.41
295.036	-12.13
295.251	-15.13
295.467	-2.88
295.682	-3.83
295.897	7.24
296.112	20.17
296.328	8.6
296.543	31.09
296.758	34.79
296.973	33.16
297.188	39.21
297.404	42.53
297.619	36.23
297.834	37.81
298.049	55.53
298.264	50.31
298.479	61.17
298.694	49.62
298.909	31.13
299.125	19.59
299.34	16.9
299.555	13.51
299.77	15.8
299.985	26.02
300.2	19.7
300.415	7.96
300.63	-9.08
300.845	3.98
301.06	10.28
301.275	13.92
301.49	14.12
301.704	13.4
301.919	9.09
302.134	8.17
302.349	10.63
302.564	18.35
302.779	4.58
302.994	-1.02
303.209	1.07
303.423	6.16
303.638	-13.67
303.853	22.27
304.068	27.94
304.283	29.38
304.497	18.59
304.712	31.08
304.927	23.3
305.142	34.81
305.356	24.04
305.571	22.65
305.786	24.28
306	13.9
306.215	-1.1
306.43	13.71
306.644	33.34
306.859	29.61
307.074	37.18
307.288	38.42
307.503	36.98
307.717	11.99
307.932	9.16
308.147	14.4
308.361	17.11
308.576	-12.26
308.79	-1.51
309.005	-6.38
309.219	-19.63
309.434	-26.43
309.648	-9.14
309.863	-9.4
310.077	10.78
310.292	19
310.506	14.65
310.72	20.38
310.935	7.66
311.149	-0.04
311.364	-21.68
311.578	-6.59
311.792	-4.08
312.007	9.28
312.221	12.13
312.435	21.2
312.649	15.8
312.864	12.51
313.078	20.48
313.292	20.69
313.507	4.17
313.721	29.24
313.935	24.53
314.149	15.42
314.363	17.88
314.578	20.3
314.792	14.57
315.006	16.28
315.22	28.23
315.434	18.8
315.648	21.95
315.862	17.77
316.077	18.16
316.291	16.89
316.505	23.37
316.719	23.34
316.933	29.24
317.147	29.15
317.361	21.82
317.575	25.67
317.789	17.07
318.003	12.64
318.217	15.56
318.431	4.77
318.645	1.71
318.859	11.33
319.073	7.11
319.287	4.06
319.5	-2.19
319.714	-18.28
319.928	-25.61
320.142	-39.72
320.356	-15.97
320.57	15.7
320.784	26.74
320.997	46
321.211	63.34
321.425	50.02
321.639	39.51
321.853	34.4
322.066	19.17
322.28	-0.82
322.494	0.48
322.707	-1.89
322.921	-0.69
323.135	-4.09
323.349	3.54
323.562	9
323.776	12.46
323.989	9.13
324.203	9.59
324.417	-12.6
324.63	18.04
324.844	7.19
325.057	5.64
325.271	17.04
325.485	41.81
325.698	20.85
325.912	36.82
326.125	41.29
326.339	34.11
326.552	33.59
326.766	29.96
326.979	23.91
327.193	18.57
327.406	17.34
327.619	4.79
327.833	15.53
328.046	24.69
328.26	13.99
328.473	8.88
328.686	9.56
328.9	6.56
329.113	-2.77
329.326	-11.53
329.54	-20.78
329.753	-35.39
329.966	-23.64
330.179	-36.33
330.393	20.76
330.606	22
330.819	28.41
331.032	20.75
331.246	36.8
331.459	31.41
331.672	29.95
331.885	35.59
332.098	50.41
332.311	40.6
332.525	28.41
332.738	36.74
332.951	36.18
333.164	17.52
333.377	11.01
333.59	16.76
333.803	18.39
334.016	23.31
334.229	26.12
334.442	38.01
334.655	44.67
334.868	50.22
335.081	46.66
335.294	45.68
335.507	39.23
335.72	30.22
335.933	12.28
336.146	11.25
336.359	5.74
336.572	12.19
336.785	24.57
336.997	42.19
337.21	37.47
337.423	38.5
337.636	29.85
337.849	-1.07
338.062	-10.21
338.274	6.72
338.487	15.34
338.7	13.74
338.913	13.4
339.125	16.94
339.338	-5.93
339.551	-20.06
339.763	-33.42
339.976	-24.75
340.189	-29.67
340.402	-15.73
340.614	-29.05
340.827	-18.08
341.039	-20.61
341.252	-20.09
341.465	-52.67
341.677	-34.09
341.89	-21.14
342.102	8.16
342.315	19.59
342.527	40.45
342.74	48.77
342.952	29.44
343.165	17.32
343.377	29.49
343.59	23.73
343.802	10.22
344.015	26.37
344.227	39.85
344.44	17.7
344.652	9.16
344.864	22.55
345.077	18.41
345.289	18.08
345.502	11.8
345.714	9.4
345.926	-8.22
346.139	-0.72
346.351	-0.86
346.563	0.1
346.775	-1.66
346.988	4.31
347.2	-6.92
347.412	-21.89
347.624	-31.65
347.837	-26.19
348.049	-20.58
348.261	-17.57
348.473	-10.01
348.685	5.73
348.897	-6.93
349.11	0.77
349.322	-4.75
349.534	-10.52
349.746	-10.93
349.958	0.27
350.17	-4.73
350.382	7.98
350.594	-4.27
350.806	1.3
351.018	5.99
351.23	4.74
351.442	-8.38
351.654	27.66
351.866	17.84
352.078	17.9
352.29	19.31
352.502	19.78
352.714	20.05
352.926	42.8
353.138	43.12
353.35	45.89
353.561	42.25
353.773	32.01
353.985	10.45
354.197	4.51
354.409	10.12
354.621	16.44
354.832	23.44
355.044	21.7
355.256	30.51
355.468	22.32
355.679	27.48
355.891	26.7
356.103	35.14
356.314	41.29
356.526	38.44
356.738	23.55
356.949	27.64
357.161	28.32
357.373	14.1
357.584	12.87
357.796	29.61
358.008	27.99
358.219	22.02
358.431	14.37
358.642	23.99
358.854	24.38
359.065	14.35
359.277	12.13
359.488	29.26
359.7	24.89
359.911	21.29
360.123	19.35
360.334	13.79
360.546	-9.62
360.757	-2.85
360.969	-9.85
361.18	-8.28
361.391	-8.39
361.603	-2.96
361.814	2.85
362.025	0.49
362.237	15.14
362.448	24.27
362.659	20.33
362.871	17.76
363.082	11.61
363.293	9.6
363.504	2.95
363.716	13.86
363.927	-5.68
364.138	9.32
364.349	6.04
364.56	4.66
364.772	8.83
364.983	21.08
365.194	17.85
365.405	16.68
365.616	14.5
365.827	23.29
366.038	29.67
366.25	32.29
366.461	34.27
366.672	46.68
366.883	39.78
367.094	39.41
367.305	29.91
367.516	34.45
367.727	36.83
367.938	13.05
368.149	10.52
368.36	14.51
368.571	2.96
368.781	-1.98
368.992	-4.37
369.203	-18.89
369.414	-14.72
369.625	-13.82
369.836	-6.28
370.047	0.79
370.258	2.71
370.468	-7.11
370.679	-6.74
370.89	-16.05
371.101	-11.02
371.312	5.23
371.522	11.76
371.733	20.21
371.944	22.73
372.155	19.56
372.365	8.16
372.576	12.04
372.787	11.51
372.997	16.52
373.208	21.52
373.419	30.73
373.629	33.2
373.84	25.62
374.05	16.89
374.261	15.59
374.472	19.27
374.682	9.24
374.893	18.37
375.103	16.92
375.314	15.51
375.524	-0.4
375.735	6.78
375.945	2.12
376.156	4.11
376.366	9.83
376.577	4.31
376.787	3.41
376.997	15.01
377.208	24.98
377.418	24.27
377.629	36.06
377.839	44.9
378.049	29.36
378.26	36.31
378.47	34.96
378.68	29.22
378.89	19.71
379.101	23.75
379.311	7.02
379.521	-8.9
379.732	-7.3
379.942	1.35
380.152	-8.01
380.362	2.66
380.572	2.6
380.783	4.94
380.993	2.29
381.203	-0.31
381.413	-5.51
381.623	2.07
381.833	4.07
382.043	0.67
382.253	9.48
382.463	8.19
382.674	11.17
382.884	5.23
383.094	3.77
383.304	0.87
383.514	8.61
383.724	4.93
383.934	9.91
384.144	6.79
384.353	9.42
384.563	5.4
384.773	8.93
384.983	5.98
385.193	7.2
385.403	2.66
385.613	-0.34
385.823	2.18
386.033	4.1
386.242	12.35
386.452	12.87
386.662	19.49
386.872	17.49
387.082	12.79
387.291	10.23
387.501	11.94
387.711	8.83
387.921	11.15
388.13	14.66
388.34	14.09
388.55	14.08
388.759	12.61
388.969	11.59
389.179	13.28
389.388	13.9
389.598	13.74
389.807	11.26
390.017	7.4
390.227	8.25
390.436	6.55
390.646	7.14
390.855	7.16
391.065	8.33
391.274	7.1
391.484	7.7
391.693	8.18
391.903	11.22
392.112	11.56
392.322	9.8
392.531	8.34
392.74	6.64
392.95	5.64
393.159	6.34
393.369	6.89
393.578	8.38
393.787	9.09
393.997	10.35
394.206	11.12
394.415	11.16
394.625	10.59
394.834	10.32
395.043	9.65
395.252	8.46
395.462	8.88
395.671	9.15
395.88	9.36
396.089	9.74
396.298	9.47
396.508	9.22
396.717	9.27
396.926	8.99
397.135	8.77
397.344	9.18
397.553	9.23
397.762	8.58
397.971	8.56
398.181	8.78
398.39	8.48
398.599	8.23
398.808	8.88
399.017	9.31
399.226	8.96
399.435	9.2
399.644	9.79
399.853	9.55
400.062	9.6
400.27	9.21
400.479	8.75
400.688	8.78
400.897	8.9
401.106	8.97
401.315	9.52
401.524	9.69
401.733	9.5
401.941	9.63
402.15	9.29
402.359	9.15
402.568	9.3
402.777	9.2
402.985	9.03
403.194	9.25
403.403	9.27
403.612	9.17
403.82	9.16
404.029	9.16
404.238	8.97
404.446	9.01
404.655	9.07
404.864	9.18
405.072	9.19
405.281	9.26
405.489	9.14
405.698	8.94
405.906	8.86
406.115	8.8
406.324	8.69
406.532	8.61
406.741	8.72
406.949	8.72
407.158	8.67
407.366	8.53
407.574	8.64
407.783	8.57
407.991	8.6
408.2	8.7
408.408	8.94
408.617	8.93
408.825	8.97
409.033	8.82
409.242	8.68
409.45	8.6
409.658	8.55
409.867	8.64
410.075	8.66
410.283	8.64
410.491	8.56
410.7	8.41
410.908	8.25
411.116	8.32
411.324	8.25
411.533	8.28
411.741	8.2
411.949	8.15
412.157	8.11
412.365	8.37
412.573	8.24
412.781	8.39
412.99	8.43
413.198	8.49
413.406	8.34
413.614	8.48
413.822	8.38
414.03	8.42
414.238	8.24
414.446	8.12
414.654	8.14
414.862	8.23
415.07	8.03
415.278	7.97
415.486	7.99
415.694	7.75
415.902	7.69
416.109	7.81
416.317	7.91
416.525	7.91
416.733	8.02
416.941	8
417.149	7.97
417.357	7.99
417.564	7.81
417.772	7.94
417.98	7.93
418.188	7.97
418.395	7.87
418.603	7.95
418.811	7.91
419.019	7.91
419.226	7.83
419.434	7.92
419.642	8.05
419.849	7.81
420.057	7.79
420.265	7.85
420.472	7.75
420.68	7.67
420.887	7.76
421.095	7.84
421.302	7.71
421.51	7.67
421.717	7.7
421.925	7.68
422.132	7.6
422.34	7.72
422.547	7.78
422.755	7.81
422.962	7.76
423.17	7.79
423.377	7.85
423.585	7.79
423.792	7.63
423.999	7.6
424.207	7.51
424.414	7.42
424.621	7.44
424.829	7.31
425.036	7.5
425.243	7.39
425.451	7.23
425.658	7.16
425.865	7.38
426.072	7.23
426.28	7.29
426.487	7.58
426.694	7.48
426.901	7.31
427.108	7.36
427.315	7.3
427.523	6.99
427.73	7.01
427.937	7.11
428.144	7.07
428.351	7.05
428.558	7.32
428.765	7.35
428.972	7.39
429.179	7.41
429.386	7.49
429.593	7.32
429.8	7.26
430.007	7.07
430.214	6.94
430.421	6.97
430.628	6.97
430.835	7.16
431.042	7.26
431.249	7.38
431.456	7.35
431.662	7.47
431.869	7.41
432.076	7.42
432.283	7.34
432.49	7.38
432.697	7.3
432.903	7.27
433.11	7.43
433.317	7.45
433.524	7.29
433.73	7.21
433.937	7.11
434.144	6.98
434.35	6.96
434.557	6.96
434.764	6.91
434.97	7.03
435.177	7.09
435.384	7.09
435.59	7.16
435.797	7.24
436.003	7.35
436.21	7.27
436.416	7.29
436.623	7.19
436.829	7.1
437.036	6.91
437.242	6.92
437.449	6.89
437.655	7.04
437.862	7.11
438.068	7.13
438.275	7.09
438.481	7.1
438.687	7.07
438.894	7.16
439.1	7.2
439.307	7.22
439.513	7.27
439.719	7.33
439.926	7.14
440.132	7.28
440.338	7.37
440.544	7.23
440.751	7.09
440.957	7.22
441.163	6.94
441.369	6.86
441.575	7
441.782	7.16
441.988	7.13
442.194	7.23
442.4	7.21
442.606	7.07
442.812	7.03
443.018	7.01
443.224	6.92
443.431	6.89
443.637	6.99
443.843	6.86
444.049	6.9
444.255	6.95
444.461	6.86
444.667	6.76
444.873	6.75
445.079	6.78
445.284	6.79
445.49	6.9
445.696	6.97
445.902	7.04
446.108	7.11
446.314	7.06
446.52	7.03
446.726	7.06
446.931	7.09
447.137	7.05
447.343	7.01
447.549	7.01
447.755	6.99
447.96	6.98
448.166	6.98
448.372	7.04
448.578	7.08
448.783	7.08
448.989	7.09
449.195	7.03
449.4	7.06
449.606	6.98
449.812	6.98
450.017	6.98
450.223	6.92
450.428	6.82
450.634	6.88
450.84	6.8
451.045	6.78
451.251	6.9
451.456	6.99
451.662	6.93
451.867	7
452.073	6.92
452.278	6.92
452.483	6.87
452.689	6.84
452.894	6.78
453.1	6.79
453.305	6.77
453.51	6.84
453.716	6.88
453.921	7.05
454.127	7.08
454.332	7.11
454.537	7.12
454.742	6.99
454.948	6.83
455.153	6.8
455.358	6.74
455.563	6.68
455.769	6.86
455.974	6.86
456.179	6.85
456.384	6.74
456.589	6.81
456.795	6.69
457	6.76
457.205	6.72
457.41	6.75
457.615	6.62
457.82	6.64
458.025	6.54
458.23	6.64
458.435	6.73
458.64	6.65
458.845	6.69
459.05	6.61
459.255	6.67
459.46	6.62
459.665	6.7
459.87	6.73
460.075	6.92
460.28	6.8
460.485	6.85
460.69	6.85
460.895	7
461.099	7.01
461.304	7.08
461.509	6.99
461.714	7
461.919	6.87
462.123	6.8
462.328	6.77
462.533	6.8
462.738	6.81
462.942	6.72
463.147	6.75
463.352	6.79
463.556	6.9
463.761	6.94
463.966	6.91
464.17	6.94
464.375	6.87
464.58	6.83
464.784	6.76
464.989	6.9
465.193	6.88
465.398	6.88
465.602	6.8
465.807	6.77
466.011	6.72
466.216	6.76
466.42	6.78
466.625	6.82
466.829	6.86
467.034	6.87
467.238	6.83
467.443	6.86
467.647	6.87
467.851	6.9
468.056	6.88
468.26	6.86
468.464	6.89
468.669	6.85
468.873	6.88
469.077	6.85
469.282	6.8
469.486	6.84
469.69	6.78
469.894	6.84
470.099	6.89
470.303	6.91
470.507	6.84
470.711	7.02
470.915	6.98
471.119	7.05
471.324	7.06
471.528	7.09
471.732	7
471.936	6.99
472.14	6.91
472.344	6.94
472.548	6.92
472.752	6.96
472.956	6.93
473.16	7.04
473.364	7.04
473.568	7.1
473.772	7.01
473.976	6.98
474.18	6.84
474.384	6.82
474.588	6.68
474.792	6.71
474.995	6.69
475.199	6.73
475.403	6.71
475.607	6.74
475.811	6.69
476.015	6.67
476.218	6.63
476.422	6.64
476.626	6.76
476.83	6.88
477.033	6.92
477.237	6.96
477.441	7.01
477.644	6.86
477.848	6.78
478.052	6.74
478.255	6.77
478.459	6.71
478.663	6.77
478.866	6.82
479.07	6.94
479.273	6.95
479.477	6.96
479.681	7.02
479.884	7.04
480.088	7.02
480.291	7.04
480.495	7.02
480.698	6.96
480.901	6.91
481.105	6.88
481.308	6.85
481.512	6.86
481.715	6.79
481.919	6.76
482.122	6.74
482.325	6.75
482.529	6.72
482.732	6.74
482.935	6.75
483.138	6.78
483.342	6.72
483.545	6.82
483.748	6.92
483.952	6.91
484.155	6.85
484.358	6.88
484.561	6.88
484.764	6.81
484.967	6.89
485.171	6.99
485.374	6.96
485.577	6.95
485.78	7.01
485.983	6.93
486.186	6.85
486.389	6.86
486.592	6.83
486.795	6.88
486.998	6.96
487.201	7.02
487.404	7.05
487.607	7.07
487.81	7.04
488.013	7.07
488.216	7.11
488.419	7.05
488.622	7.03
488.825	7.05
489.028	7.09
489.231	7.11
489.433	7.22
489.636	7.29
489.839	7.31
490.042	7.22
490.245	7.18
490.447	7.2
490.65	7.16
490.853	7.16
491.056	7.25
491.258	7.31
491.461	7.33
491.664	7.37
491.866	7.45
492.069	7.44
492.272	7.49
492.474	7.52
492.677	7.59
492.879	7.5
493.082	7.5
493.285	7.52
493.487	7.59
493.69	7.6
493.892	7.72
494.095	7.89
494.297	7.92
494.5	7.98
494.702	8.06
494.905	8.16
495.107	8.18
495.309	8.27
495.512	8.28
495.714	8.4
495.917	8.41
496.119	8.38
496.321	8.41
496.524	8.47
496.726	8.45
496.928	8.51
497.13	8.64
497.333	8.72
497.535	8.82
497.737	8.89
497.939	8.88
498.142	8.87
498.344	8.91
498.546	8.87
498.748	8.93
498.95	9.04
499.152	9.11
499.355	9.09
499.557	9.13
499.759	9.14
499.961	9.16
500.163	9.21
500.365	9.33
500.567	9.36
500.769	9.42
500.971	9.42
501.173	9.4
501.375	9.44
501.577	9.52
501.779	9.61
501.981	9.58
502.183	9.64
502.385	9.64
502.587	9.61
502.788	9.56
502.99	9.67
503.192	9.65
503.394	9.66
503.596	9.69
503.798	9.69
503.999	9.64
504.201	9.63
504.403	9.63
504.605	9.64
504.806	9.63
505.008	9.7
505.21	9.74
505.411	9.68
505.613	9.65
505.815	9.63
506.016	9.54
506.218	9.59
506.42	9.57
506.621	9.55
506.823	9.58
507.024	9.59
507.226	9.53
507.427	9.49
507.629	9.45
507.83	9.39
508.032	9.33
508.233	9.22
508.435	9.24
508.636	9.31
508.838	9.3
509.039	9.25
509.24	9.21
509.442	9.15
509.643	9.04
509.845	8.99
510.046	9.04
510.247	9.03
510.448	9.05
510.65	9.06
510.851	9.03
511.052	8.96
511.254	9.04
511.455	9
511.656	9.02
511.857	8.96
512.058	8.95
512.26	8.87
512.461	8.88
512.662	8.73
512.863	8.75
513.064	8.78
513.265	8.8
513.466	8.71
513.667	8.74
513.868	8.74
514.069	8.7
514.27	8.63
514.471	8.66
514.672	8.64
514.873	8.59
515.074	8.59
515.275	8.63
515.476	8.63
515.677	8.61
515.878	8.63
516.079	8.54
516.28	8.49
516.481	8.41
516.682	8.43
516.882	8.39
517.083	8.41
517.284	8.44
517.485	8.43
517.686	8.42
517.886	8.43
518.087	8.45
518.288	8.35
518.488	8.37
518.689	8.35
518.89	8.3
519.091	8.33
519.291	8.38
519.492	8.38
519.692	8.41
519.893	8.44
520.094	8.38
520.294	8.33
520.495	8.35
520.695	8.37
520.896	8.36
521.096	8.39
521.297	8.44
521.497	8.39
521.698	8.31
521.898	8.28
522.099	8.32
522.299	8.27
522.499	8.28
522.7	8.22
522.9	8.31
523.101	8.29
523.301	8.28
523.501	8.36
523.702	8.5
523.902	8.4
524.102	8.36
524.302	8.4
524.503	8.38
524.703	8.31
524.903	8.34
525.103	8.32
525.304	8.27
525.504	8.19
525.704	8.14
525.904	8.13
526.104	8.13
526.304	8.15
526.504	8.16
526.705	8.19
526.905	8.22
527.105	8.22
527.305	8.2
527.505	8.23
527.705	8.19
527.905	8.16
528.105	8.16
528.305	8.17
528.505	8.17
528.705	8.24
528.905	8.26
529.105	8.29
529.304	8.28
529.504	8.32
529.704	8.27
529.904	8.27
530.104	8.25
530.304	8.21
530.503	8.22
530.703	8.24
530.903	8.28
531.103	8.35
531.303	8.43
531.502	8.47
531.702	8.47
531.902	8.4
532.101	8.35
532.301	8.34
532.501	8.26
532.7	8.33
532.9	8.39
533.1	8.44
533.299	8.44
533.499	8.47
533.698	8.43
533.898	8.39
534.097	8.41
534.297	8.42
534.496	8.42
534.696	8.43
534.895	8.46
535.095	8.42
535.294	8.38
535.494	8.43
535.693	8.51
535.892	8.5
536.092	8.55
536.291	8.58
536.491	8.52
536.69	8.5
536.889	8.51
537.088	8.5
537.288	8.52
537.487	8.58
537.686	8.58
537.886	8.65
538.085	8.62
538.284	8.63
538.483	8.66
538.682	8.67
538.882	8.64
539.081	8.67
539.28	8.69
539.479	8.66
539.678	8.68
539.877	8.64
540.076	8.69
540.275	8.71
540.474	8.67
540.673	8.64
540.872	8.68
541.071	8.71
541.27	8.71
541.469	8.73
541.668	8.72
541.867	8.77
542.066	8.77
542.265	8.84
542.464	8.9
542.663	8.92
542.862	8.92
543.06	8.88
543.259	8.9
543.458	8.9
543.657	8.96
543.856	8.92
544.054	8.96
544.253	8.91
544.452	8.96
544.651	8.96
544.849	8.98
545.048	8.99
545.247	9.06
545.445	9.09
545.644	9.07
545.843	9.13
546.041	9.13
546.24	9.06
546.438	9.08
546.637	9.14
546.836	9.2
547.034	9.29
547.233	9.44
547.431	9.49
547.63	9.55
547.828	9.55
548.027	9.58
548.225	9.51
548.423	9.48
548.622	9.46
548.82	9.53
549.019	9.52
549.217	9.5
549.415	9.53
549.614	9.54
549.812	9.53
550.01	9.53
550.209	9.62
550.407	9.68
550.605	9.75
550.803	9.73
551.002	9.78
551.2	9.8
551.398	9.78
551.596	9.8
551.794	9.85
551.993	9.9
552.191	9.89
552.389	9.97
552.587	10.02
552.785	10.07
552.983	10.06
553.181	10.14
553.379	10.19
553.577	10.31
553.775	10.33
553.973	10.45
554.171	10.51
554.369	10.51
554.567	10.5
554.765	10.61
554.963	10.66
555.161	10.77
555.359	10.87
555.557	10.94
555.755	10.99
555.952	11.02
556.15	11.02
556.348	11.09
556.546	11.05
556.744	11.11
556.941	11.17
557.139	11.28
557.337	11.38
557.535	11.45
557.732	11.5
557.93	11.58
558.128	11.61
558.325	11.67
558.523	11.69
558.721	11.73
558.918	11.75
559.116	11.85
559.313	11.87
559.511	12
559.708	12.13
559.906	12.23
560.104	12.23
560.301	12.25
560.498	12.35
560.696	12.28
560.893	12.34
561.091	12.36
561.288	12.5
561.486	12.48
561.683	12.58
561.88	12.63
562.078	12.7
562.275	12.65
562.473	12.75
562.67	12.87
562.867	12.9
563.064	13
563.262	13.08
563.459	13.2
563.656	13.25
563.853	13.39
564.051	13.45
564.248	13.51
564.445	13.51
564.642	13.56
564.839	13.61
565.036	13.67
565.234	13.78
565.431	13.91
565.628	13.99
565.825	13.97
566.022	14.06
566.219	14.11
566.416	14
566.613	14.03
566.81	14.11
567.007	14.16
567.204	14.13
567.401	14.28
567.598	14.41
567.795	14.39
567.991	14.43
568.188	14.57
568.385	14.63
568.582	14.6
568.779	14.73
568.976	14.86
569.172	14.88
569.369	14.85
569.566	14.89
569.763	14.86
569.96	14.86
570.156	14.81
570.353	14.86
570.55	14.83
570.746	14.89
570.943	14.83
571.14	14.91
571.336	15
571.533	15.01
571.729	15.06
571.926	15.2
572.123	15.29
572.319	15.29
572.516	15.41
572.712	15.43
572.909	15.42
573.105	15.49
573.302	15.53
573.498	15.5
573.695	15.55
573.891	15.59
574.087	15.52
574.284	15.55
574.48	15.64
574.677	15.61
574.873	15.57
575.069	15.62
575.266	15.63
575.462	15.63
575.658	15.67
575.854	15.72
576.051	15.7
576.247	15.6
576.443	15.61
576.639	15.66
576.835	15.56
577.032	15.51
577.228	15.62
577.424	15.59
577.62	15.57
577.816	15.63
578.012	15.63
578.208	15.61
578.404	15.6
578.6	15.58
578.796	15.62
578.993	15.68
579.189	15.62
579.384	15.6
579.58	15.61
579.776	15.54
579.972	15.53
580.168	15.59
580.364	15.55
580.56	15.54
580.756	15.58
580.952	15.57
581.148	15.47
581.343	15.49
581.539	15.44
581.735	15.39
581.931	15.39
582.127	15.45
582.322	15.44
582.518	15.4
582.714	15.37
582.909	15.35
583.105	15.25
583.301	15.23
583.496	15.24
583.692	15.23
583.888	15.17
584.083	15.13
584.279	15.16
584.474	15.09
584.67	15
584.866	14.97
585.061	15.02
585.257	14.94
585.452	14.94
585.648	14.88
585.843	14.83
586.039	14.78
586.234	14.75
586.429	14.75
586.625	14.8
586.82	14.87
587.015	14.8
587.211	14.79
587.406	14.76
587.601	14.71
587.797	14.63
587.992	14.73
588.187	14.77
588.383	14.78
588.578	14.74
588.773	14.76
588.968	14.77
589.163	14.68
589.359	14.69
589.554	14.72
589.749	14.71
589.944	14.66
590.139	14.79
590.334	14.75
590.529	14.87
590.724	14.83
590.919	14.87
591.114	14.76
591.309	14.79
591.504	14.75
591.699	14.83
591.894	14.7
592.089	14.69
592.284	14.74
592.479	14.68
592.674	14.68
592.869	14.82
593.064	14.85
593.259	14.91
593.454	14.98
593.648	15
593.843	15.03
594.038	15.08
594.233	14.98
594.428	14.96
594.622	14.97
594.817	15.03
595.012	15.02
595.206	15.04
595.401	15.15
595.596	15.22
595.79	15.09
595.985	15.21
596.18	15.3
596.374	15.29
596.569	15.24
596.763	15.43
596.958	15.49
597.153	15.51
597.347	15.52
597.542	15.66
597.736	15.57
597.931	15.6
598.125	15.69
598.319	15.66
598.514	15.64
598.708	15.74
598.903	15.73
599.097	15.81
599.291	15.86
599.486	15.91
599.68	15.95
599.874	15.92
600.069	15.93
600.263	16.08
600.457	16.1
600.651	16.14
600.846	16.27
601.04	16.22
601.234	16.14
601.428	16.21
601.622	16.16
601.817	16.12
602.011	16.16
602.205	16.23
602.399	16.23
602.593	16.31
602.787	16.24
602.981	16.14
603.175	16.16
603.369	16.09
603.563	16.06
603.757	16.15
603.951	16.23
604.145	16.1
604.339	16.07
604.533	16.02
604.727	15.96
604.921	15.94
605.115	15.98
605.309	15.97
605.502	16.02
605.696	15.97
605.89	15.91
606.084	15.95
606.278	15.92
606.471	15.77
606.665	15.75
606.859	15.76
607.053	15.71
607.246	15.73
607.44	15.67
607.634	15.69
607.827	15.57
608.021	15.47
608.214	15.35
608.408	15.37
608.602	15.28
608.795	15.37
608.989	15.29
609.182	15.28
609.376	15.21
609.569	15.09
609.763	14.82
609.956	14.77
610.15	14.71
610.343	14.67
610.537	14.69
610.73	14.71
610.923	14.74
611.117	14.64
611.31	14.58
611.504	14.58
611.697	14.58
611.89	14.5
612.083	14.44
612.277	14.47
612.47	14.28
612.663	14.21
612.856	14.12
613.05	14.1
613.243	14.05
613.436	13.95
613.629	13.98
613.822	13.94
614.015	13.91
614.209	13.79
614.402	13.8
614.595	13.79
614.788	13.79
614.981	13.73
615.174	13.69
615.367	13.73
615.56	13.58
615.753	13.41
615.946	13.36
616.139	13.29
616.332	13.17
616.525	13.07
616.718	13.13
616.911	13.17
617.103	13.18
617.296	13.15
617.489	13.24
617.682	13.2
617.875	13.1
618.067	13
618.26	13
618.453	12.87
618.646	12.81
618.838	12.83
619.031	12.81
619.224	12.84
619.417	12.92
619.609	12.93
619.802	12.85
619.994	12.81
620.187	12.67
620.38	12.57
620.572	12.51
620.765	12.46
620.957	12.43
621.15	12.43
621.342	12.42
621.535	12.47
621.727	12.45
621.92	12.44
622.112	12.42
622.305	12.4
622.497	12.32
622.69	12.29
622.882	12.28
623.074	12.36
623.267	12.22
623.459	12.11
623.651	12.14
623.844	12.15
624.036	12.05
624.228	12.18
624.42	12.26
624.613	12.22
624.805	12.19
624.997	12.17
625.189	12.12
625.381	12.07
625.574	12.05
625.766	12.07
625.958	12.03
626.15	12.03
626.342	11.97
626.534	11.95
626.726	11.9
626.918	11.84
627.11	11.75
627.302	11.7
627.494	11.71
627.686	11.71
627.878	11.81
628.07	11.82
628.262	11.91
628.454	11.83
628.646	11.71
628.838	11.72
629.029	11.72
629.221	11.63
629.413	11.62
629.605	11.58
629.797	11.5
629.989	11.44
630.18	11.39
630.372	11.43
630.564	11.47
630.755	11.4
630.947	11.37
631.139	11.41
631.33	11.35
631.522	11.33
631.714	11.31
631.905	11.31
632.097	11.19
632.289	11.15
632.48	11.07
632.672	11.03
632.863	10.99
633.055	11.02
633.246	11.05
633.438	11.07
633.629	11.04
633.821	11.02
634.012	11
634.203	10.93
634.395	10.89
634.586	11.05
634.777	11.02
634.969	11.02
635.16	11.01
635.351	10.97
635.543	10.82
635.734	10.84
635.925	10.86
636.117	10.88
636.308	10.91
636.499	10.8
636.69	10.7
636.881	10.69
637.073	10.7
637.264	10.72
637.455	10.7
637.646	10.7
637.837	10.6
638.028	10.51
638.219	10.41
638.41	10.49
638.601	10.5
638.792	10.49
638.983	10.47
639.174	10.46
639.365	10.44
639.556	10.38
639.747	10.41
639.938	10.46
640.129	10.44
640.32	10.4
640.511	10.4
640.701	10.36
640.892	10.28
641.083	10.26
641.274	10.22
641.465	10.2
641.655	10.21
641.846	10.2
642.037	10.19
642.228	10.18
642.418	10.17
642.609	10.11
642.8	10.12
642.99	10.12
643.181	10.19
643.372	10.19
643.562	10.19
643.753	10.15
643.943	10.12
644.134	10.01
644.324	9.94
644.515	9.88
644.705	9.86
644.896	9.74
645.086	9.68
645.277	9.67
645.467	9.69
645.658	9.64
645.848	9.71
646.038	9.73
646.229	9.77
646.419	9.78
646.61	9.74
646.8	9.72
646.99	9.76
647.18	9.74
647.371	9.69
647.561	9.67
647.751	9.65
647.941	9.58
648.132	9.52
648.322	9.47
648.512	9.48
648.702	9.51
648.892	9.48
649.082	9.49
649.272	9.5
649.462	9.54
649.653	9.46
649.843	9.44
650.033	9.33
650.223	9.38
650.413	9.42
650.603	9.43
650.793	9.35
650.983	9.44
651.172	9.42
651.362	9.29
651.552	9.26
651.742	9.34
651.932	9.31
652.122	9.31
652.312	9.3
652.502	9.28
652.691	9.28
652.881	9.3
653.071	9.3
653.261	9.33
653.45	9.25
653.64	9.18
653.83	9.05
654.019	8.91
654.209	8.87
654.399	8.84
654.588	8.75
654.778	8.69
654.968	8.61
655.157	8.56
655.347	8.55
655.536	8.61
655.726	8.55
655.915	8.5
656.105	8.38
656.294	8.29
656.484	8.13
656.673	8.09
656.863	8.08
657.052	8.1
657.241	8.06
657.431	8.06
657.62	7.99
657.809	7.82
657.999	7.7
658.188	7.67
658.377	7.58
658.567	7.52
658.756	7.47
658.945	7.37
659.134	7.28
659.324	7.26
659.513	7.28
659.702	7.29
659.891	7.24
660.08	7.17
660.269	7.11
660.458	6.99
660.648	7.04
660.837	6.94
661.026	6.93
661.215	6.89
661.404	6.83
661.593	6.62
661.782	6.6
661.971	6.54
662.16	6.52
662.349	6.51
662.538	6.52
662.726	6.54
662.915	6.57
663.104	6.47
663.293	6.44
663.482	6.43
663.671	6.35
663.86	6.23
664.048	6.23
664.237	6.1
664.426	6
664.615	6.02
664.803	5.96
664.992	5.95
665.181	6.02
665.369	6
665.558	5.97
665.747	6.07
665.935	6.02
666.124	6.01
666.312	6.04
666.501	6.06
666.69	6.03
666.878	6.1
667.067	6.06
667.255	6.08
667.444	6.05
667.632	6.01
667.82	6.02
668.009	6.04
668.197	6.08
668.386	6.14
668.574	6.16
668.762	6.15
668.951	6.2
669.139	6.31
669.327	6.32
669.516	6.42
669.704	6.41
669.892	6.46
670.08	6.44
670.269	6.43
670.457	6.39
670.645	6.43
670.833	6.47
671.021	6.48
671.21	6.45
671.398	6.52
671.586	6.56
671.774	6.61
671.962	6.65
672.15	6.78
672.338	6.83
672.526	7.05
672.714	7.11
672.902	7.13
673.09	7.3
673.278	7.36
673.466	7.36
673.654	7.5
673.842	7.63
674.03	7.62
674.218	7.73
674.405	7.75
674.593	7.62
674.781	7.65
674.969	7.6
675.157	7.51
675.344	7.55
675.532	7.75
675.72	7.86
675.908	7.95
676.095	7.91
676.283	7.97
676.471	7.94
676.658	7.96
676.846	8.15
677.033	8.44
677.221	8.6
677.409	8.72
677.596	8.81
677.784	8.82
677.971	8.88
678.159	8.81
678.346	8.77
678.534	8.83
678.721	8.88
678.909	9.02
679.096	9.09
679.283	9.21
679.471	9.17
679.658	9.21
679.846	9.17
680.033	9.28
680.22	9.38
680.408	9.36
680.595	9.49
680.782	9.43
680.969	9.39
681.157	9.43
681.344	9.48
681.531	9.44
681.718	9.52
681.905	9.67
682.093	9.68
682.28	9.8
682.467	9.97
682.654	10.02
682.841	10.09
683.028	10.18
683.215	10.41
683.402	10.35
683.589	10.52
683.776	10.74
683.963	10.86
684.15	10.8
684.337	11
684.524	11.15
684.711	11.09
684.898	11.1
685.085	11.26
685.271	11.3
685.458	11.26
685.645	11.38
685.832	11.58
686.019	11.68
686.205	12
686.392	12.17
686.579	12.4
686.766	12.61
686.952	12.78
687.139	12.96
687.326	13.19
687.512	13.34
687.699	13.44
687.886	13.65
688.072	13.62
688.259	13.86
688.445	13.94
688.632	14.16
688.818	14.34
689.005	14.55
689.191	14.81
689.378	15.31
689.564	15.74
689.751	16.08
689.937	16.63
690.124	16.9
690.31	17.28
690.496	17.57
690.683	17.96
690.869	18.08
691.055	18.44
691.242	18.63
691.428	18.95
691.614	19.25
691.8	19.74
691.987	20.16
692.173	20.52
692.359	21.09
692.545	21.52
692.731	22.01
692.918	22.53
693.104	22.94
693.29	23.32
693.476	23.79
693.662	24.24
693.848	24.81
694.034	25.35
694.22	25.76
694.406	26.32
694.592	26.77
694.778	27.03
694.964	27.65
695.15	28.24
695.336	28.71
695.522	29.28
695.708	30.01
695.894	30.49
696.08	31.01
696.265	31.64
696.451	32.28
696.637	32.81
696.823	33.35
697.009	33.79
697.194	34.43
697.38	35
697.566	35.43
697.751	36.17
697.937	36.82
698.123	37.22
698.308	37.76
698.494	38.43
698.68	38.78
698.865	39.36
699.051	40.07
699.236	40.58
699.422	40.79
699.607	41.4
699.793	42.11
699.978	42.48
700.164	42.87
700.349	43.64
700.535	44.05
700.72	44.38
700.906	45.12
701.091	45.66
701.276	46.25
701.462	46.99
701.647	47.58
701.832	48.17
702.018	48.88
702.203	49.39
702.388	49.95
702.573	50.53
702.759	50.75
702.944	51.25
703.129	51.69
703.314	52.14
703.499	52.7
703.684	53.35
703.87	53.79
704.055	54.42
704.24	54.91
704.425	55.37
704.61	56.07
704.795	56.73
704.98	57.29
705.165	57.89
705.35	58.43
705.535	58.52
705.72	59.04
705.905	59.63
706.09	60.18
706.275	60.74
706.459	61.67
706.644	61.96
706.829	62.19
707.014	62.78
707.199	62.82
707.384	62.94
707.568	63.43
707.753	63.58
707.938	63.65
708.123	64.29
708.307	64.89
708.492	65.48
708.677	65.99
708.861	66.78
709.046	67.22
709.231	67.67
709.415	67.74
709.6	68.01
709.784	68.17
709.969	68.24
710.153	68.32
710.338	68.77
710.522	69.39
710.707	69.31
710.891	69.75
711.076	70.39
711.26	70.66
711.445	71.03
711.629	71.83
711.813	72.2
711.998	72.09
712.182	72.63
712.366	73.03
712.551	72.87
712.735	73.07
712.919	73.66
713.103	73.63
713.288	73.51
713.472	73.7
713.656	73.86
713.84	73.89
714.024	74.38
714.208	74.62
714.393	75.18
714.577	75.62
714.761	75.95
714.945	76.2
715.129	76.53
715.313	76.67
715.497	77.26
715.681	77.89
715.865	78.36
716.049	78.82
716.233	79.53
716.417	79.55
716.601	79.54
716.785	79.17
716.968	79.2
717.152	79.33
717.336	79.59
717.52	79.52
717.704	80.2
717.888	80.84
718.071	81.05
718.255	81.32
718.439	81.48
718.622	81.49
718.806	81.47
718.99	81.69
719.174	81.4
719.357	81.4
719.541	81.47
719.724	81.34
719.908	81.23
720.092	81.55
720.275	82.2
720.459	82.26
720.642	82.58
720.826	83
721.009	83.15
721.193	83.14
721.376	83.6
721.559	84.11
721.743	83.88
721.926	84.4
722.11	84.71
722.293	84.49
722.476	84.64
722.66	84.82
722.843	85.21
723.026	85.26
723.21	85.88
723.393	85.66
723.576	86.2
723.759	85.3
723.942	85.62
724.126	85.77
724.309	86.45
724.492	86.63
724.675	87.29
724.858	87.24
725.041	87.1
725.224	87.39
725.407	87.26
725.59	88.31
725.774	89.34
725.957	90.33
726.14	90.74
726.322	90.92
726.505	90.51
726.688	89.78
726.871	89.19
727.054	88.92
727.237	89.16
727.42	88.89
727.603	88.71
727.786	88.97
727.968	88.58
728.151	88.73
728.334	89.12
728.517	89.63
728.699	90.07
728.882	90.14
729.065	90.87
729.248	91.07
729.43	91.59
729.613	91.79
729.796	92.02
729.978	92.47
730.161	92.13
730.343	91.71
730.526	92.72
730.708	93.11
730.891	93.32
731.073	94.29
731.256	95.35
731.438	94.49
731.621	95.3
731.803	94.27
731.986	94.22
732.168	93.67
732.35	92.84
732.533	92.07
732.715	92.32
732.898	92.43
733.08	92.64
733.262	93.54
733.444	93.57
733.627	94.18
733.809	94.23
733.991	94.66
734.173	95.5
734.355	96.09
734.538	96.56
734.72	97.25
734.902	97.95
735.084	97.96
735.266	97.53
735.448	96.27
735.63	96.36
735.812	95.9
735.994	94.21
736.176	94.53
736.358	96.04
736.54	95.23
736.722	95.53
736.904	97.3
737.086	97.69
737.268	97.43
737.45	97.47
737.632	96.99
737.814	96.22
737.995	96.04
738.177	95.1
738.359	95.61
738.541	95.61
738.723	96.6
738.904	97.35
739.086	97.27
739.268	97.39
739.449	97.32
739.631	96.88
739.813	96.55
739.994	97.84
740.176	97.37
740.358	98.12
740.539	98.39
740.721	98.61
740.902	97.54
741.084	98.31
741.265	97.74
741.447	97.22
741.628	97.33
741.81	97.75
741.991	97.35
742.172	98.46
742.354	98.74
742.535	99.11
742.717	99.58
742.898	100.47
743.079	98.99
743.261	98.04
743.442	97
743.623	96.89
743.804	95.69
743.986	97.37
744.167	98.41
744.348	97.67
744.529	98.21
744.71	98.88
744.891	97.86
745.073	97.1
745.254	99.03
745.435	97.87
745.616	97.1
745.797	96.04
745.978	96.94
746.159	97.23
746.34	97.75
746.521	98.26
746.702	98.72
746.883	98.39
747.064	96.18
747.245	96.85
747.426	97.02
747.606	97.07
747.787	99.28
747.968	99.8
748.149	99.47
748.33	99.96
748.51	101.94
748.691	99.41
748.872	101.06
749.053	100.84
749.233	100.45
749.414	98.64
749.595	100.11
749.775	100.11
749.956	101.57
750.137	101.19
750.317	102.07
750.498	102.53
750.678	102.81
750.859	101.11
751.04	100.93
751.22	100
751.4	98.28
751.581	97.47
751.761	97.8
751.942	97.83
752.122	98.93
752.303	99.02
752.483	97.2
752.663	97.57
752.844	97.35
753.024	96.35
753.204	96.32
753.385	98.23
753.565	99.42
753.745	100.82
753.925	100.79
754.106	101.52
754.286	101.14
754.466	99.2
754.646	99.82
754.826	99.43
755.006	99.72
755.187	99.35
755.367	99.47
755.547	98.17
755.727	99.61
755.907	97.23
756.087	97.94
756.267	98.56
756.447	98.83
756.627	97.8
756.807	100.42
756.987	99.38
757.167	99.74
757.346	99.89
757.526	100.04
757.706	98.67
757.886	98.28
758.066	97.58
758.246	98.42
758.425	100.24
758.605	100.79
758.785	102.84
758.965	103.9
759.144	103.41
759.324	101.87
759.504	101.64
759.683	101.03
759.863	100.27
760.043	99.38
760.222	97.71
760.402	98.03
760.581	99.37
760.761	98.46
760.94	97.6
761.12	100.37
761.299	99.59
761.479	97.2
761.658	96.75
761.838	96.69
762.017	95.4
762.197	96.16
762.376	96.66
762.555	97.21
762.735	97.7
762.914	96.19
763.093	94.79
763.273	94.45
763.452	93.71
763.631	93.14
763.81	95.64
763.99	97.67
764.169	99.2
764.348	100.58
764.527	101
764.706	98.48
764.885	97.63
765.064	98.17
765.243	96.62
765.423	98
765.602	97.24
765.781	97.04
765.96	94.26
766.139	94.34
766.318	92.31
766.497	95.83
766.676	96.52
766.854	98.1
767.033	98.51
767.212	99.18
767.391	96.31
767.57	96.36
767.749	93.96
767.928	95.07
768.106	96.47
768.285	96.31
768.464	95.53
768.643	97.57
768.821	96.61
769	95.43
769.179	96.59
769.357	95.56
769.536	95.39
769.715	96.03
769.893	97.33
770.072	95.6
770.25	97.73
770.429	97.75
770.607	96.8
770.786	97.31
770.964	98.04
771.143	96.03
771.321	95.58
771.5	95.62
771.678	93.2
771.857	93.73
772.035	98.41
772.213	98.05
772.392	98.88
772.57	99.78
772.748	100.19
772.927	97.08
773.105	98.57
773.283	96.3
773.461	94.7
773.64	94.25
773.818	93.69
773.996	91.33
774.174	92.23
774.352	90.65
774.531	90.76
774.709	90.31
774.887	92.96
775.065	93.27
775.243	94.22
775.421	93.48
775.599	92.41
775.777	91.14
775.955	90.52
776.133	92.87
776.311	96.27
776.489	97.26
776.667	97.94
776.844	97.31
777.022	97.21
777.2	95.68
777.378	95.55
777.556	96.64
777.734	96.2
777.911	95.26
778.089	94.56
778.267	93.46
778.445	91.18
778.622	93.15
778.8	92.38
778.978	90.13
779.155	91.85
779.333	89.19
779.511	86.39
779.688	87.12
779.866	88.52
780.043	87
780.221	89.16
780.398	90.83
780.576	90.91
780.753	87.09
780.931	87.91
781.108	86.64
781.286	84.85
781.463	85.11
781.64	90.04
781.818	88.84
781.995	90.85
782.172	93.11
782.35	92.51
782.527	92.33
782.704	93.11
782.882	92.86
783.059	90.6
783.236	89.8
783.413	88.17
783.59	87.21
783.768	86.33
783.945	91.74
784.122	92.32
784.299	92.59
784.476	92.02
784.653	93.62
784.83	91.63
785.007	92.86
785.184	93.14
785.361	92.63
785.538	90.03
785.715	86.69
785.892	83.59
786.069	82.48
786.246	82.82
786.423	85.75
786.6	88.56
786.776	93.02
786.953	94.84
787.13	97.18
787.307	94.52
787.484	94.35
787.66	92.08
787.837	89.81
788.014	90.39
788.191	89.83
788.367	87.91
788.544	90.29
788.721	89.03
788.897	86.9
789.074	85.42
789.25	83.2
789.427	79.07
789.603	79.81
789.78	78.55
789.956	78.94
790.133	80.64
790.309	81.41
790.486	81.04
790.662	85.34
790.839	90.16
791.015	89.22
791.192	88.97
791.368	90.7
791.544	84.74
791.721	80.76
791.897	82.29
792.073	86.4
792.249	83.17
792.426	86.83
792.602	87.14
792.778	87.42
792.954	82.8
793.13	86.6
793.307	88.87
793.483	85.98
793.659	82.01
793.835	84.92
794.011	85.24
794.187	83.06
794.363	85.77
794.539	85.93
794.715	81.16
794.891	80.65
795.067	74.22
795.243	73.75
795.419	76.84
795.595	78.25
795.771	80.8
795.947	84.21
796.122	85.6
796.298	88.1
796.474	87.62
796.65	84.21
796.826	86.67
797.001	83.08
797.177	82.43
797.353	84.33
797.529	85.33
797.704	88.88
797.88	90.99
798.056	88.23
798.231	92.43
798.407	90
798.582	86.15
798.758	86.91
798.934	90.09
799.109	85.48
799.285	85.53
799.46	82.75
799.636	85.3
799.811	83.26
799.986	80.72
800.162	78.99
800.337	79.99
800.513	73.48
800.688	70.51
800.863	71.76
801.039	73.51
801.214	77.74
801.389	79.13
801.565	77.74
801.74	81.08
801.915	84.59
802.09	80.94
802.265	85.72
802.441	90.55
802.616	86.98
802.791	85.75
802.966	87.21
803.141	82.29
803.316	79.55
803.491	80.97
803.666	70.99
803.841	73.71
804.016	75.66
804.191	79.59
804.366	81.54
804.541	90.32
804.716	83.31
804.891	84.91
805.066	88.83
805.241	83.57
805.416	80.03
805.591	79.77
805.765	78.05
805.94	73.63
806.115	76.47
806.29	80.17
806.464	89.07
806.639	89.34
806.814	88.44
806.989	90.61
807.163	86.19
807.338	79.32
807.512	82.39
807.687	87.4
807.862	82.59
808.036	84.7
808.211	84.89
808.385	83.22
808.56	81.05
808.734	81.41
808.909	86.43
809.083	92.3
809.258	87.98
809.432	81.18
809.606	78.41
809.781	73.61
809.955	72.5
810.13	76.89
810.304	74.54
810.478	75.24
810.652	75.29
810.827	72.97
811.001	78.69
811.175	83.1
811.349	86.6
811.524	79.24
811.698	80.98
811.872	70.6
812.046	72.04
812.22	65.72
812.394	73.99
812.568	73.7
812.742	74.97
812.916	68.97
813.09	63.15
813.264	63.32
813.438	68.32
813.612	78.76
813.786	78.33
813.96	94.74
814.134	88.02
814.308	82.54
814.482	73.71
814.656	76.94
814.83	74.78
815.003	83.87
815.177	83.15
815.351	83.38
815.525	84.32
815.698	83.52
815.872	82.89
816.046	94.74
816.219	89.4
816.393	91.51
816.567	84.51
816.74	84.13
816.914	71.57
817.088	73.82
817.261	72.27
817.435	75.81
817.608	70.48
817.782	65.03
817.955	57.97
818.129	54.04
818.302	58.7
818.475	67.48
818.649	79.17
818.822	86.25
818.996	95.8
819.169	88.36
819.342	81.7
819.516	76.85
819.689	78.27
819.862	83.17
820.035	78.9
820.209	78.76
820.382	87.18
820.555	91.48
820.728	72.1
820.901	67.77
821.075	77.99
821.248	92.48
821.421	86.59
821.594	97.01
821.767	105.52
821.94	90.98
822.113	72.24
822.286	72.67
822.459	71.4
822.632	68.42
822.805	73.4
822.978	80.6
823.151	76.61
823.324	72.83
823.496	75.17
823.669	73.41
823.842	63.74
824.015	69.56
824.188	71.29
824.361	72.61
824.533	72.97
824.706	71.95
824.879	60.74
825.051	62.2
825.224	52.4
825.397	56.55
825.569	63.22
825.742	75.86
825.915	70.34
826.087	77.28
826.26	75.76
826.432	82.06
826.605	75.9
826.777	79.04
826.95	78.77
827.122	70.49
827.295	52.17
827.467	61.45
827.64	56.59
827.812	59.96
827.984	60.23
828.157	68.55
828.329	63.46
828.501	81.17
828.674	80.85
828.846	89.85
829.018	98.44
829.19	98.73
829.363	80.1
829.535	84.68
829.707	75.15
829.879	73.35
830.051	59.3
830.223	67.77
830.395	51.98
830.568	40.8
830.74	49.48
830.912	59.4
831.084	74.15
831.256	67.9
831.428	72.63
831.6	78.05
831.772	88.85
831.943	82.55
832.115	92.15
832.287	95.14
832.459	82.26
832.631	70.7
832.803	69
832.975	76.25
833.146	76.74
833.318	72.8
833.49	89.65
833.662	97.08
833.833	87.71
834.005	76.26
834.177	84.87
834.348	68.27
834.52	57.12
834.692	55.03
834.863	70.23
835.035	72.88
835.206	78.15
835.378	66.57
835.549	69.32
835.721	69.96
835.892	71.7
836.064	71.24
836.235	82.82
836.407	67.49
836.578	56.62
836.749	42.33
836.921	45.83
837.092	47.03
837.264	51.78
837.435	52.34
837.606	54.89
837.777	53.16
837.949	49.24
838.12	46.05
838.291	48.38
838.462	72.8
838.633	87.5
838.805	95.33
838.976	87.07
839.147	82.52
839.318	72.75
839.489	73.64
839.66	89.23
839.831	126.19
840.002	151.44
840.173	176.23
840.344	135.3
840.515	90.27
840.686	67.33
840.857	54.24
841.028	72.9
841.199	57.58
841.369	74.9
841.54	86.75
841.711	88.01
841.882	70.92
842.053	76.18
842.223	79.49
842.394	67.23
842.565	82.83
842.736	115.22
842.906	131.41
843.077	114.21
843.248	138.23
843.418	105.62
843.589	65.41
843.759	65.63
843.93	59.76
844.101	69.06
844.271	51.85
844.442	62.24
844.612	70.86
844.783	65.13
844.953	51.52
845.123	58.42
845.294	30.74
845.464	35.98
845.635	50.22
845.805	55.87
845.975	42.61
846.146	65.65
846.316	55.3
846.486	49.49
846.656	56.62
846.827	66.74
846.997	52.6
847.167	54.62
847.337	52.86
847.507	55.64
847.677	51.43
847.848	59.25
848.018	37.86
848.188	23.98
848.358	25.72
848.528	0.6
848.698	41.4
848.868	87.83
849.038	112.65
849.208	97.53
849.378	107.29
849.548	63.04
849.718	39.42
849.887	38.02
850.057	31.14
850.227	17.6
850.397	24.65
850.567	31.2
850.737	26.05
850.906	54.57
851.076	69.14
851.246	67.93
851.415	65.31
851.585	72.64
851.755	53.87
851.924	45.52
852.094	56.26
852.264	52.34
852.433	45.39
852.603	51.85
852.772	68
852.942	62.73
853.111	70.18
853.281	66.38
853.45	58.56
853.62	22.16
853.789	4.33
853.959	15.87
854.128	50.72
854.297	73
854.467	177.8
854.636	241.25
854.805	165.84
854.975	165.91
855.144	126.06
855.313	103.51
855.482	74.38
855.652	65.86
855.821	47.87
855.99	33.61
856.159	36.92
856.328	31.22
856.497	35.57
856.667	42.44
856.836	65.18
857.005	29.67
857.174	28.45
857.343	50.71
857.512	66.13
857.681	52.01
857.85	90.7
858.019	109.6
858.188	64.5
858.356	53.11
858.525	64.76
858.694	74.22
858.863	67.2
859.032	65.24
859.201	61.68
859.369	50.71
859.538	29.9
859.707	58.24
859.876	46.81
860.044	49.64
860.213	48.05
860.382	47.46
860.55	17.58
860.719	22.22
860.888	54.44
861.056	61.72
861.225	62.85
861.393	51.75
861.562	52.49
861.73	39.6
861.899	27.4
862.067	38.71
862.236	30.45
862.404	29.65
862.572	29.04
862.741	40.15
862.909	27.45
863.078	43.03
863.246	42.98
863.414	52.46
863.582	75.96
863.751	79.54
863.919	88.37
864.087	98.01
864.255	75.98
864.424	45.81
864.592	21.71
864.76	6.13
864.928	4.86
865.096	-23.53
865.264	4.14
865.432	6.9
865.6	9.62
865.768	31.73
865.936	62.62
866.104	35.34
866.272	53.14
866.44	70.27
866.608	52.68
866.776	52.36
866.944	74.01
867.112	72.92
867.28	73.78
867.448	69.05
867.615	71.38
867.783	79.07
867.951	75.15
868.119	63.32
868.286	57.23
868.454	64.3
868.622	54.51
868.789	53.17
868.957	42.49
869.125	47.69
869.292	31.73
869.46	24.18
869.627	28.1
869.795	29.61
869.963	32.68
870.13	20.7
870.298	14.23
870.465	33.52
870.632	37.31
870.8	24.37
870.967	35.8
871.135	45.57
871.302	-4.18
871.469	23.06
871.637	37.35
871.804	41.6
871.971	57.75
872.139	77.05
872.306	72.33
872.473	78.67
872.64	73.35
872.807	70.76
872.975	48.16
873.142	46.03
873.309	7.68
873.476	25.83
873.643	5.98
873.81	46.01
873.977	35.75
874.144	45.27
874.311	37.04
874.478	32.88
874.645	21.99
874.812	43.02
874.979	58.72
875.146	83.87
875.313	95.72
875.48	92.89
875.647	93.87
875.813	113.6
875.98	74.45
876.147	75.69
876.314	65.22
876.481	59.04
876.647	54.95
876.814	59.31
876.981	58.4
877.147	92.03
877.314	83.8
877.481	73.5
877.647	53.92
877.814	56.09
877.98	57.17
878.147	43.49
878.314	16.8
878.48	60.37
878.647	48.48
878.813	6.89
878.979	31.39
879.146	74.56
879.312	96
879.479	74.47
879.645	134.52
879.811	129.74
879.978	55.01
880.144	46.76
880.31	51.61
880.477	31.87
880.643	28.68
880.809	46.01
880.975	62.12
881.142	84.17
881.308	15.53
881.474	67.88
881.64	11.37
881.806	-45.99
881.972	-23.34
882.138	38.44
882.304	11.96
882.47	-3.65
882.636	21.89
882.802	19.75
882.968	35.31
883.134	38.66
883.3	66.8
883.466	77.99
883.632	141.46
883.798	140.92
883.964	194.01
884.129	183.58
884.295	30.97
884.461	-6.77
884.627	-33.94
884.793	35.55
884.958	58.71
885.124	63.05
885.29	62.57
885.455	53.33
885.621	26.2
885.787	16.43
885.952	24.38
886.118	19.29
886.283	42.86
886.449	67.68
886.614	55.45
886.78	62.6
886.945	84.38
887.111	81.66
887.276	64.21
887.442	60.89
887.607	23.56
887.773	-14.2
887.938	-35.51
888.103	-7.01
888.269	3.56
888.434	46.89
888.599	31.88
888.764	35.75
888.93	23.22
889.095	30.44
889.26	19.46
889.425	47.02
889.59	55.66
889.756	48.25
889.921	21.58
890.086	9.85
890.251	-2.13
890.416	-9.81
890.581	8.04
890.746	49.73
890.911	88.11
891.076	124.06
891.241	109.92
891.406	86.31
891.571	47.58
891.736	-1.03
891.901	-33.48
892.065	-36.32
892.23	10.78
892.395	34.94
892.56	82.29
892.725	114.27
892.889	75.59
893.054	43.61
893.219	68.06
893.384	64.37
893.548	69.48
893.713	83.02
893.878	86.04
