Data from Ofav_PP_Phys_358_Reflection_3.txt Node
Date: Tue Jul 27 19:07:03 EDT 2021
User: USUARIO
Spectrometer: FLMT01687
Trigger mode: 0
Integration Time (sec): 8.500000E-1
Scans to average: 2
Electric dark correction enabled: true
Nonlinearity correction enabled: false
Boxcar width: 2
XAxis mode: Wavelengths
Number of Pixels in Spectrum: 3648
>>>>>Begin Spectral Data<<<<<
179.494	-1402.22
179.716	-514.52
179.937	-354.89
180.158	-280.44
180.38	-341.19
180.601	-312.81
180.823	26.73
181.044	26.35
181.265	31.01
181.486	12.76
181.708	-33.33
181.929	82.45
182.15	34.28
182.372	-22.28
182.593	25.8
182.814	48.19
183.035	55.04
183.257	44.8
183.478	31.03
183.699	31.06
183.92	26.62
184.141	12.44
184.363	30.64
184.584	59.74
184.805	78.2
185.026	71.55
185.247	85.13
185.468	65.77
185.689	40.16
185.91	12.98
186.132	-17.26
186.353	-15.4
186.574	-20.78
186.795	-31.71
187.016	-28.4
187.237	-31.86
187.458	-39.91
187.679	-31.47
187.9	-35.89
188.121	-17.34
188.342	4.13
188.563	60.44
188.784	88.87
189.005	95.91
189.226	80.26
189.447	51.74
189.667	47.87
189.888	27.24
190.109	33.75
190.33	16.9
190.551	40.97
190.772	30.27
190.993	17.33
191.214	29.41
191.434	41.72
191.655	43.73
191.876	30.39
192.097	41.11
192.318	39.37
192.538	48.51
192.759	67.37
192.98	72.37
193.201	59.44
193.421	66.76
193.642	33.77
193.863	10.67
194.083	13.76
194.304	8.82
194.525	-22.64
194.745	-60.32
194.966	-115.78
195.187	-135.82
195.407	-90.75
195.628	-63.16
195.848	-6.2
196.069	44.29
196.29	71.68
196.51	76.1
196.731	60.26
196.951	55.82
197.172	40.41
197.392	14.3
197.613	2.11
197.833	11.11
198.054	5.14
198.274	-4.66
198.495	26.68
198.715	13.83
198.936	17.13
199.156	37.33
199.377	80.5
199.597	107.96
199.817	73.06
200.038	122.44
200.258	94.65
200.479	46.69
200.699	12.73
200.919	25.56
201.14	19.51
201.36	7.79
201.58	29.2
201.801	37.29
202.021	27.21
202.241	41.45
202.461	56.79
202.682	14.34
202.902	17.39
203.122	32.86
203.342	23.73
203.563	24.3
203.783	50.96
204.003	42.67
204.223	15.92
204.443	21.59
204.663	-6.08
204.884	-19.25
205.104	8.08
205.324	54.44
205.544	41.78
205.764	53.6
205.984	59.36
206.204	63.42
206.424	39.98
206.644	44.62
206.864	35.17
207.084	34.9
207.304	37.79
207.525	43.26
207.745	49.23
207.964	53.22
208.184	56.83
208.404	50.72
208.624	40.25
208.844	55.33
209.064	56.83
209.284	58.82
209.504	67.93
209.724	89.76
209.944	60.21
210.164	59.29
210.384	22.99
210.604	-19.54
210.823	10.89
211.043	25.04
211.263	36.08
211.483	55.65
211.703	60.19
211.922	44.54
212.142	65.8
212.362	31.52
212.582	10.16
212.801	28.58
213.021	41.86
213.241	1.38
213.461	1.65
213.68	-0.87
213.9	-37.39
214.12	-25.92
214.339	23.19
214.559	21.74
214.779	24.63
214.998	15.32
215.218	4.92
215.438	8.65
215.657	12.22
215.877	23.08
216.096	38.69
216.316	48.51
216.535	37.73
216.755	35.25
216.974	63.31
217.194	68.88
217.413	65.19
217.633	54.85
217.852	63.43
218.072	34.54
218.291	30.79
218.511	15.2
218.73	27.24
218.95	-0.13
219.169	1.13
219.389	-5.89
219.608	14.2
219.827	24.27
220.047	48.73
220.266	46.96
220.485	42.42
220.705	43.04
220.924	31.45
221.143	21.35
221.363	13.69
221.582	13.75
221.801	4.58
222.021	19.09
222.24	28.23
222.459	20.69
222.678	23.23
222.897	35.07
223.117	43.31
223.336	47.44
223.555	43.25
223.774	29.09
223.993	25.24
224.213	18.25
224.432	23.97
224.651	40.92
224.87	39
225.089	20.48
225.308	16.23
225.527	32
225.746	21.51
225.965	33.44
226.184	49.39
226.404	50.03
226.623	46.32
226.842	29.09
227.061	23.31
227.28	35.15
227.499	38.04
227.718	26
227.936	53.25
228.155	51.49
228.374	48.68
228.593	43.26
228.812	49.13
229.031	34.42
229.25	31.73
229.469	5.97
229.688	10.12
229.907	-18.12
230.125	7.95
230.344	12.14
230.563	40.62
230.782	46.43
231.001	49.43
231.22	49.08
231.438	43.73
231.657	24.43
231.876	20.29
232.095	17.61
232.313	15.01
232.532	4.57
232.751	10.09
232.969	17.83
233.188	18.06
233.407	22.33
233.625	46.65
233.844	42.13
234.063	31.55
234.281	42.22
234.5	26.79
234.719	25.59
234.937	18.95
235.156	24.91
235.374	17.99
235.593	22.72
235.811	26.13
236.03	29.07
236.249	10.05
236.467	10.71
236.686	10.81
236.904	10.73
237.123	8.54
237.341	20.59
237.559	25.4
237.778	38.18
237.996	49.38
238.215	61.67
238.433	67.49
238.652	64.36
238.87	60.94
239.088	39.88
239.307	33.89
239.525	4.22
239.743	-3.21
239.962	-7.93
240.18	4.74
240.398	-3.35
240.617	8.29
240.835	39.05
241.053	46.36
241.271	51.54
241.49	70.69
241.708	66.3
241.926	37.11
242.144	18.64
242.363	27.74
242.581	17.06
242.799	7.87
243.017	-21.07
243.235	-12.53
243.453	-19.54
243.672	-4
243.89	10.6
244.108	25.27
244.326	29.61
244.544	23.75
244.762	23.1
244.98	36.68
245.198	29.82
245.416	41.79
245.634	75.7
245.852	82.85
246.07	70.77
246.288	78.79
246.506	61.91
246.724	31.05
246.942	27.13
247.16	13.47
247.378	4.34
247.596	13.07
247.814	23.22
248.032	34.45
248.25	64.07
248.468	75.58
248.685	80.61
248.903	70.71
249.121	55.35
249.339	53.9
249.557	62.13
249.775	38.99
249.992	24.66
250.21	26.79
250.428	23.96
250.646	4.38
250.863	26.41
251.081	42.8
251.299	44.58
251.517	29.14
251.734	52.63
251.952	46.6
252.17	56.26
252.387	50.15
252.605	68.83
252.823	58.56
253.04	52.22
253.258	49.73
253.475	50.65
253.693	53.69
253.911	53.81
254.128	49.66
254.346	48.17
254.563	57.87
254.781	38.98
254.998	45.56
255.216	31.16
255.433	35.47
255.651	36.68
255.868	44.57
256.086	27.77
256.303	37.81
256.521	40.92
256.738	35.31
256.956	29.72
257.173	41.33
257.39	38.69
257.608	37.61
257.825	35.87
258.043	44.07
258.26	46.11
258.477	53.42
258.695	56.63
258.912	62.33
259.129	66.8
259.346	41.8
259.564	36
259.781	45.06
259.998	41.25
260.216	44.13
260.433	62.92
260.65	63.03
260.867	43.99
261.084	38.35
261.302	40.58
261.519	31.39
261.736	16.26
261.953	19.2
262.17	22.88
262.387	11.73
262.604	21.02
262.822	37.26
263.039	34.82
263.256	37.57
263.473	49.66
263.69	36.43
263.907	7.9
264.124	20.58
264.341	31.73
264.558	34.16
264.775	38.92
264.992	52.94
265.209	39.89
265.426	32.28
265.643	14.25
265.86	4.51
266.077	-5.42
266.294	5.03
266.51	25.55
266.727	40.77
266.944	46.24
267.161	10.66
267.378	-5.06
267.595	-7.42
267.812	1.77
268.028	0.24
268.245	46.18
268.462	43.58
268.679	35.18
268.896	12.7
269.112	5.64
269.329	21.84
269.546	32.06
269.763	19.64
269.979	42.24
270.196	50.35
270.413	44.29
270.629	50.65
270.846	73.78
271.063	60.34
271.279	58.45
271.496	51.92
271.712	32.78
271.929	-1.96
272.146	-17.63
272.362	11.76
272.579	11.45
272.795	19.13
273.012	21.52
273.228	17.28
273.445	8.99
273.661	16.45
273.878	15.46
274.094	6.08
274.311	19.18
274.527	26.18
274.744	21.48
274.96	16.53
275.177	20.56
275.393	13.7
275.609	12.45
275.826	5.55
276.042	10.22
276.259	29.9
276.475	25.23
276.691	27.45
276.908	25.82
277.124	35.5
277.34	48.26
277.557	59.23
277.773	44.88
277.989	55.33
278.205	46.59
278.422	20.34
278.638	17.67
278.854	41.62
279.07	44.03
279.286	32.23
279.503	31.93
279.719	35.07
279.935	24.16
280.151	10.84
280.367	24.18
280.583	29.42
280.799	30.85
281.016	22.8
281.232	26
281.448	21.23
281.664	24.41
281.88	14.57
282.096	26.04
282.312	27.34
282.528	17.49
282.744	13.01
282.96	13.99
283.176	35.07
283.392	36.38
283.608	59.7
283.824	51.16
284.04	30.8
284.256	20.52
284.471	26.24
284.687	23.2
284.903	22.07
285.119	46.77
285.335	37.77
285.551	30.46
285.767	35.59
285.982	25.12
286.198	19.15
286.414	14.25
286.63	21.24
286.846	-2.19
287.061	15.67
287.277	18.62
287.493	36.59
287.709	34.25
287.924	55.15
288.14	61.97
288.356	82.63
288.571	72.46
288.787	60.65
289.003	61.11
289.218	62.75
289.434	28.93
289.65	23.37
289.865	14.93
290.081	14.62
290.296	11.8
290.512	16.6
290.727	28.81
290.943	46.3
291.159	66.36
291.374	56.82
291.59	52.35
291.805	44.59
292.021	31.78
292.236	31.42
292.451	22.11
292.667	12.85
292.882	8.75
293.098	15.38
293.313	26.76
293.529	45
293.744	44.99
293.959	59.33
294.175	57.11
294.39	43.58
294.605	39.45
294.821	37.33
295.036	17.55
295.251	2.6
295.467	-6.07
295.682	-36.93
295.897	-5.56
296.112	9.18
296.328	38.8
296.543	47.23
296.758	54.68
296.973	62.5
297.188	65.38
297.404	49.26
297.619	47.16
297.834	44
298.049	32.95
298.264	26.39
298.479	35.24
298.694	24.1
298.909	22.55
299.125	22.56
299.34	6.25
299.555	11.25
299.77	17.24
299.985	18.74
300.2	7.9
300.415	14.78
300.63	1.15
300.845	5.21
301.06	7.79
301.275	13.79
301.49	15.48
301.704	10.72
301.919	14.56
302.134	19.33
302.349	33.58
302.564	39.68
302.779	41.32
302.994	43.2
303.209	35.72
303.423	20.62
303.638	9.02
303.853	10.66
304.068	27.3
304.283	32.88
304.497	45.01
304.712	46.31
304.927	36.53
305.142	30.32
305.356	10.94
305.571	-4.49
305.786	9.31
306	23.25
306.215	20.49
306.43	38.87
306.644	55.78
306.859	59.31
307.074	72.13
307.288	73.72
307.503	64.02
307.717	58.36
307.932	54.74
308.147	55.34
308.361	46.85
308.576	58.82
308.79	64.1
309.005	48.88
309.219	19.64
309.434	13.16
309.648	5.8
309.863	8.3
310.077	17.67
310.292	26.08
310.506	14.87
310.72	14.3
310.935	-9.52
311.149	-19.62
311.364	-20.14
311.578	14
311.792	12.59
312.007	18.05
312.221	21.29
312.435	33.65
312.649	30.48
312.864	33.93
313.078	26.02
313.292	45.57
313.507	25.1
313.721	44.88
313.935	29.24
314.149	38.57
314.363	27.35
314.578	25.43
314.792	20.71
315.006	32.52
315.22	23.94
315.434	36.17
315.648	22.83
315.862	5.05
316.077	6.99
316.291	19.96
316.505	16.93
316.719	46.8
316.933	71.8
317.147	52.03
317.361	42.02
317.575	23.66
317.789	-2.4
318.003	-32.07
318.217	-5.85
318.431	6.9
318.645	6.65
318.859	19.11
319.073	27.91
319.287	8.05
319.5	-12.54
319.714	-2.47
319.928	15.36
320.142	5.05
320.356	36.54
320.57	49.03
320.784	49.89
320.997	46.05
321.211	53.72
321.425	40.34
321.639	23.07
321.853	12.48
322.066	9.22
322.28	-3.3
322.494	-5.4
322.707	11.38
322.921	16.47
323.135	8.61
323.349	19.53
323.562	30.27
323.776	25.39
323.989	20.75
324.203	26.56
324.417	19.2
324.63	17.79
324.844	32.77
325.057	27.82
325.271	12.12
325.485	14.1
325.698	7.6
325.912	-20.47
326.125	4.89
326.339	30.54
326.552	26.45
326.766	37.99
326.979	52.64
327.193	48.66
327.406	29.66
327.619	39.37
327.833	28.47
328.046	38.36
328.26	30.83
328.473	29.94
328.686	28.64
328.9	26.53
329.113	10.65
329.326	-5.57
329.54	-2.53
329.753	-8.17
329.966	10.4
330.179	-10.93
330.393	15.6
330.606	2.02
330.819	7.28
331.032	-13.93
331.246	20.17
331.459	15.48
331.672	24.21
331.885	18.01
332.098	48.8
332.311	36.25
332.525	38.1
332.738	28.61
332.951	40.93
333.164	21.85
333.377	9.81
333.59	16.98
333.803	29.41
334.016	6.25
334.229	0.17
334.442	17.49
334.655	25.43
334.868	28.65
335.081	41.24
335.294	51.45
335.507	55.13
335.72	45.59
335.933	31.39
336.146	35.07
336.359	26.39
336.572	37.01
336.785	31.1
336.997	61.14
337.21	73.49
337.423	74.44
337.636	52.3
337.849	52.19
338.062	37.84
338.274	37.72
338.487	48.71
338.7	43.59
338.913	36.19
339.125	35.5
339.338	26
339.551	-4.14
339.763	-2.33
339.976	16.7
340.189	0.99
340.402	-12.65
340.614	-8.02
340.827	-3.91
341.039	-20.38
341.252	-18.62
341.465	-30.42
341.677	-13.65
341.89	-18.49
342.102	3.05
342.315	9.38
342.527	22.31
342.74	16
342.952	-1.04
343.165	3.7
343.377	4.63
343.59	-2.2
343.802	5.66
344.015	27.08
344.227	37.29
344.44	38.42
344.652	55.72
344.864	47.9
345.077	38.77
345.289	20.15
345.502	18.05
345.714	11.78
345.926	-6.4
346.139	-1.65
346.351	6.97
346.563	3.01
346.775	2.8
346.988	20.63
347.2	12.68
347.412	19.13
347.624	25.46
347.837	16.06
348.049	15.66
348.261	16.52
348.473	22.06
348.685	39.11
348.897	50.1
349.11	41.56
349.322	30.97
349.534	21.82
349.746	15.34
349.958	17.57
350.17	28.85
350.382	35.3
350.594	10.97
350.806	27.65
351.018	23.02
351.23	7.36
351.442	0.23
351.654	52.63
351.866	28.38
352.078	29.36
352.29	30.45
352.502	42.73
352.714	38.09
352.926	46.29
353.138	50.86
353.35	53.81
353.561	46.09
353.773	27.58
353.985	16.87
354.197	12.52
354.409	15.42
354.621	14.33
354.832	30.69
355.044	29.54
355.256	45.54
355.468	48.98
355.679	56.21
355.891	52.35
356.103	52.09
356.314	39.4
356.526	37.33
356.738	36.32
356.949	29.13
357.161	39.59
357.373	37.59
357.584	35.58
357.796	36.65
358.008	44.1
358.219	42.31
358.431	39.35
358.642	44.09
358.854	45.87
359.065	29.17
359.277	36.98
359.488	45.46
359.7	32.91
359.911	33.31
360.123	49.85
360.334	37.37
360.546	15.07
360.757	28.03
360.969	12.43
361.18	12.18
361.391	22.44
361.603	33.94
361.814	37.38
362.025	48.6
362.237	46.46
362.448	41.96
362.659	29.53
362.871	24.55
363.082	19.87
363.293	19.92
363.504	19.37
363.716	24.63
363.927	11.35
364.138	18.74
364.349	17.78
364.56	17.55
364.772	36.17
364.983	53.17
365.194	48.6
365.405	47.16
365.616	35.11
365.827	30.88
366.038	29.35
366.25	35.25
366.461	43.32
366.672	51.42
366.883	45.57
367.094	44.02
367.305	28.35
367.516	18.49
367.727	28.98
367.938	8.24
368.149	2.29
368.36	9.07
368.571	3.44
368.781	1.86
368.992	18.4
369.203	14.58
369.414	19.79
369.625	26.01
369.836	23.29
370.047	18.1
370.258	19.43
370.468	22.81
370.679	24.03
370.89	30.66
371.101	30.52
371.312	40.97
371.522	31.96
371.733	38.69
371.944	29.14
372.155	24.82
372.365	5.07
372.576	3.27
372.787	-2.96
372.997	0.13
373.208	1.27
373.419	5.19
373.629	15.77
373.84	16.88
374.05	26.63
374.261	26.75
374.472	40.52
374.682	32.02
374.893	32.35
375.103	27.36
375.314	35.51
375.524	36.74
375.735	39.54
375.945	34.43
376.156	27.92
376.366	29.24
376.577	17.34
376.787	14.52
376.997	14.51
377.208	19.03
377.418	18.45
377.629	26.79
377.839	44.24
378.049	44.64
378.26	36.72
378.47	28.58
378.68	39.09
378.89	26.34
379.101	23.14
379.311	19.87
379.521	22.23
379.732	14.71
379.942	22.13
380.152	19.89
380.362	33.67
380.572	33.28
380.783	24.73
380.993	18.61
381.203	23.54
381.413	17.7
381.623	19.81
381.833	22.52
382.043	26.12
382.253	23.51
382.463	25.91
382.674	33.32
382.884	25.8
383.094	17.92
383.304	23.15
383.514	15.05
383.724	10.43
383.934	13.39
384.144	8.15
384.353	6.25
384.563	10.92
384.773	10.51
384.983	11.21
385.193	18.34
385.403	24.53
385.613	27.25
385.823	24.04
386.033	24.45
386.242	27.35
386.452	14.5
386.662	17.38
386.872	19.21
387.082	15.13
387.291	4.7
387.501	8.25
387.711	1.36
387.921	1.49
388.13	8.09
388.34	12.31
388.55	14.27
388.759	16.23
388.969	15.1
389.179	14.72
389.388	18.9
389.598	20.2
389.807	18.68
390.017	17.41
390.227	16.98
390.436	15.89
390.646	14.19
390.855	13.94
391.065	12.06
391.274	11.45
391.484	8.85
391.693	9.01
391.903	10.36
392.112	13.57
392.322	12.45
392.531	12.87
392.74	12.15
392.95	11.56
393.159	11.44
393.369	11.8
393.578	13.11
393.787	12.84
393.997	12.03
394.206	13.78
394.415	14.25
394.625	13.51
394.834	13.4
395.043	14
395.252	12.82
395.462	12.49
395.671	11.86
395.88	13.15
396.089	13.62
396.298	12.83
396.508	12.45
396.717	13.06
396.926	12.39
397.135	11.82
397.344	11.47
397.553	12.09
397.762	11.48
397.971	11.36
398.181	11.13
398.39	11.2
398.599	10.93
398.808	11.26
399.017	11.54
399.226	11.92
399.435	12.22
399.644	12.5
399.853	12.72
400.062	13
400.27	12.49
400.479	12.2
400.688	12.13
400.897	11.82
401.106	11.55
401.315	12.1
401.524	12.3
401.733	11.99
401.941	12.08
402.15	11.91
402.359	11.65
402.568	11.55
402.777	11.34
402.985	11.29
403.194	11.53
403.403	11.52
403.612	11.57
403.82	11.69
404.029	11.75
404.238	11.64
404.446	11.74
404.655	11.74
404.864	11.83
405.072	11.92
405.281	11.78
405.489	11.63
405.698	11.63
405.906	11.68
406.115	11.28
406.324	11.19
406.532	10.96
406.741	11.02
406.949	11.06
407.158	11.18
407.366	11.15
407.574	11.36
407.783	11.2
407.991	11.06
408.2	10.98
408.408	11.11
408.617	11
408.825	10.95
409.033	11
409.242	11.04
409.45	10.93
409.658	11.05
409.867	11.01
410.075	10.79
410.283	10.76
410.491	10.7
410.7	10.49
410.908	10.5
411.116	10.57
411.324	10.45
411.533	10.45
411.741	10.32
411.949	10.23
412.157	10.34
412.365	10.58
412.573	10.49
412.781	10.52
412.99	10.6
413.198	10.45
413.406	10.36
413.614	10.51
413.822	10.62
414.03	10.65
414.238	10.63
414.446	10.5
414.654	10.4
414.862	10.37
415.07	10.19
415.278	10.08
415.486	10.14
415.694	9.98
415.902	9.91
416.109	9.94
416.317	10.07
416.525	10.03
416.733	10.1
416.941	10.24
417.149	10.18
417.357	10.22
417.564	10.11
417.772	10.06
417.98	9.94
418.188	10.06
418.395	9.87
418.603	9.85
418.811	9.91
419.019	9.93
419.226	10.03
419.434	10.23
419.642	10.39
419.849	10.33
420.057	10.19
420.265	10.07
420.472	9.84
420.68	9.51
420.887	9.55
421.095	9.53
421.302	9.24
421.51	9.24
421.717	9.38
421.925	9.26
422.132	9.47
422.34	9.65
422.547	9.62
422.755	9.74
422.962	9.78
423.17	9.62
423.377	9.68
423.585	9.76
423.792	9.7
423.999	9.57
424.207	9.63
424.414	9.5
424.621	9.27
424.829	9.06
425.036	9.13
425.243	9.09
425.451	8.95
425.658	9.08
425.865	9.38
426.072	9.43
426.28	9.34
426.487	9.44
426.694	9.41
426.901	9.12
427.108	9.21
427.315	9.18
427.523	9.12
427.73	8.96
427.937	9.03
428.144	8.96
428.351	8.92
428.558	9.11
428.765	9.25
428.972	9.27
429.179	9.15
429.386	9.4
429.593	9.22
429.8	9.2
430.007	9.18
430.214	9.21
430.421	9.24
430.628	9.32
430.835	9.45
431.042	9.54
431.249	9.61
431.456	9.57
431.662	9.69
431.869	9.68
432.076	9.54
432.283	9.49
432.49	9.4
432.697	9.3
432.903	9.3
433.11	9.51
433.317	9.49
433.524	9.5
433.73	9.54
433.937	9.38
434.144	9.26
434.35	9.27
434.557	9.14
434.764	9.04
434.97	9.04
435.177	9.12
435.384	9.03
435.59	9.24
435.797	9.24
436.003	9.5
436.21	9.35
436.416	9.43
436.623	9.29
436.829	9.16
437.036	8.99
437.242	9.02
437.449	8.97
437.655	9.03
437.862	9.13
438.068	9.08
438.275	9.15
438.481	9.21
438.687	9.23
438.894	9.19
439.1	9.22
439.307	9.18
439.513	9.22
439.719	9.31
439.926	9.43
440.132	9.57
440.338	9.49
440.544	9.42
440.751	9.3
440.957	9.35
441.163	9.29
441.369	9.25
441.575	9.23
441.782	9.28
441.988	9.16
442.194	9.19
442.4	9.45
442.606	9.49
442.812	9.49
443.018	9.51
443.224	9.49
443.431	9.36
443.637	9.37
443.843	9.21
444.049	9.24
444.255	9.12
444.461	9
444.667	8.92
444.873	9
445.079	8.96
445.284	9.03
445.49	9.08
445.696	9.25
445.902	9.34
446.108	9.37
446.314	9.37
446.52	9.46
446.726	9.4
446.931	9.4
447.137	9.35
447.343	9.23
447.549	9.13
447.755	9.09
447.96	9.09
448.166	9.26
448.372	9.44
448.578	9.56
448.783	9.55
448.989	9.6
449.195	9.4
449.4	9.4
449.606	9.38
449.812	9.49
450.017	9.43
450.223	9.46
450.428	9.46
450.634	9.35
450.84	9.35
451.045	9.31
451.251	9.36
451.456	9.29
451.662	9.29
451.867	9.32
452.073	9.36
452.278	9.31
452.483	9.32
452.689	9.44
452.894	9.35
453.1	9.28
453.305	9.3
453.51	9.28
453.716	9.24
453.921	9.31
454.127	9.4
454.332	9.41
454.537	9.46
454.742	9.39
454.948	9.29
455.153	9.36
455.358	9.37
455.563	9.3
455.769	9.29
455.974	9.31
456.179	9.24
456.384	9.06
456.589	9.19
456.795	9.24
457	9.32
457.205	9.21
457.41	9.39
457.615	9.31
457.82	9.3
458.025	9.16
458.23	9.23
458.435	9.16
458.64	9.09
458.845	9.14
459.05	9.18
459.255	9.28
459.46	9.34
459.665	9.38
459.87	9.34
460.075	9.44
460.28	9.37
460.485	9.35
460.69	9.38
460.895	9.49
461.099	9.44
461.304	9.46
461.509	9.45
461.714	9.5
461.919	9.48
462.123	9.47
462.328	9.45
462.533	9.47
462.738	9.55
462.942	9.6
463.147	9.7
463.352	9.6
463.556	9.68
463.761	9.51
463.966	9.37
464.17	9.36
464.375	9.55
464.58	9.44
464.784	9.53
464.989	9.68
465.193	9.62
465.398	9.67
465.602	9.84
465.807	9.82
466.011	9.78
466.216	9.71
466.42	9.71
466.625	9.63
466.829	9.64
467.034	9.7
467.238	9.84
467.443	9.8
467.647	9.76
467.851	9.79
468.056	9.78
468.26	9.78
468.464	9.75
468.669	9.84
468.873	9.88
469.077	9.77
469.282	9.72
469.486	9.76
469.69	9.73
469.894	9.78
470.099	9.83
470.303	9.8
470.507	9.86
470.711	9.9
470.915	9.9
471.119	9.99
471.324	9.97
471.528	9.93
471.732	9.96
471.936	9.86
472.14	9.79
472.344	9.86
472.548	9.82
472.752	9.74
472.956	9.8
473.16	9.87
473.364	9.86
473.568	9.92
473.772	9.96
473.976	9.9
474.18	9.82
474.384	9.8
474.588	9.83
474.792	9.76
474.995	9.74
475.199	9.79
475.403	9.9
475.607	9.88
475.811	9.9
476.015	9.93
476.218	9.89
476.422	9.83
476.626	9.79
476.83	9.86
477.033	9.9
477.237	10
477.441	10.03
477.644	10.01
477.848	10
478.052	9.87
478.255	9.85
478.459	9.9
478.663	9.94
478.866	9.87
479.07	9.99
479.273	9.96
479.477	9.84
479.681	9.95
479.884	9.95
480.088	9.9
480.291	9.91
480.495	9.95
480.698	9.91
480.901	9.97
481.105	10.03
481.308	9.96
481.512	10
481.715	9.84
481.919	9.8
482.122	9.72
482.325	9.75
482.529	9.66
482.732	9.78
482.935	9.72
483.138	9.74
483.342	9.68
483.545	9.76
483.748	9.69
483.952	9.79
484.155	9.88
484.358	10
484.561	9.99
484.764	9.93
484.967	9.97
485.171	9.95
485.374	9.8
485.577	9.79
485.78	9.94
485.983	9.88
486.186	9.86
486.389	9.91
486.592	9.88
486.795	9.84
486.998	9.83
487.201	9.78
487.404	9.88
487.607	9.92
487.81	9.91
488.013	9.89
488.216	9.93
488.419	9.73
488.622	9.67
488.825	9.61
489.028	9.61
489.231	9.59
489.433	9.64
489.636	9.61
489.839	9.54
490.042	9.49
490.245	9.41
490.447	9.41
490.65	9.46
490.853	9.49
491.056	9.58
491.258	9.65
491.461	9.62
491.664	9.56
491.866	9.56
492.069	9.5
492.272	9.52
492.474	9.71
492.677	9.75
492.879	9.72
493.082	9.64
493.285	9.64
493.487	9.53
493.69	9.49
493.892	9.59
494.095	9.76
494.297	9.78
494.5	9.77
494.702	9.82
494.905	9.76
495.107	9.67
495.309	9.64
495.512	9.6
495.714	9.57
495.917	9.56
496.119	9.56
496.321	9.5
496.524	9.51
496.726	9.49
496.928	9.5
497.13	9.55
497.333	9.58
497.535	9.63
497.737	9.75
497.939	9.81
498.142	9.8
498.344	9.87
498.546	9.74
498.748	9.7
498.95	9.62
499.152	9.58
499.355	9.53
499.557	9.61
499.759	9.62
499.961	9.72
500.163	9.77
500.365	9.85
500.567	9.81
500.769	9.78
500.971	9.77
501.173	9.79
501.375	9.81
501.577	9.88
501.779	9.89
501.981	9.9
502.183	9.86
502.385	9.77
502.587	9.67
502.788	9.7
502.99	9.64
503.192	9.61
503.394	9.66
503.596	9.75
503.798	9.82
503.999	9.91
504.201	9.94
504.403	9.99
504.605	10.03
504.806	9.97
505.008	9.91
505.21	9.85
505.411	9.76
505.613	9.69
505.815	9.69
506.016	9.7
506.218	9.79
506.42	9.8
506.621	9.86
506.823	9.93
507.024	9.92
507.226	10
507.427	9.98
507.629	9.98
507.83	9.91
508.032	9.82
508.233	9.77
508.435	9.87
508.636	9.86
508.838	9.88
509.039	9.93
509.24	9.89
509.442	9.89
509.643	9.86
509.845	9.92
510.046	10
510.247	10.01
510.448	10.04
510.65	10.07
510.851	9.97
511.052	9.99
511.254	10.01
511.455	9.96
511.656	9.97
511.857	10.02
512.058	9.97
512.26	9.98
512.461	10
512.662	9.97
512.863	9.95
513.064	9.89
513.265	9.82
513.466	9.88
513.667	9.89
513.868	9.86
514.069	9.89
514.27	9.92
514.471	9.85
514.672	9.86
514.873	9.93
515.074	9.97
515.275	10.09
515.476	10.06
515.677	10.03
515.878	10.07
516.079	10.1
516.28	10.02
516.481	10.03
516.682	10.08
516.882	9.97
517.083	9.95
517.284	9.94
517.485	9.91
517.686	9.92
517.886	9.99
518.087	9.96
518.288	9.98
518.488	10.01
518.689	9.99
518.89	10.01
519.091	10.09
519.291	10.04
519.492	10.09
519.692	10.18
519.893	10.21
520.094	10.12
520.294	10.18
520.495	10.17
520.695	10.1
520.896	10.04
521.096	10.15
521.297	10.2
521.497	10.2
521.698	10.2
521.898	10.19
522.099	10.2
522.299	10.11
522.499	10.14
522.7	10.13
522.9	10.18
523.101	10.19
523.301	10.26
523.501	10.29
523.702	10.34
523.902	10.35
524.102	10.36
524.302	10.37
524.503	10.35
524.703	10.39
524.903	10.34
525.103	10.26
525.304	10.19
525.504	10.19
525.704	10.14
525.904	10.17
526.104	10.24
526.304	10.32
526.504	10.31
526.705	10.32
526.905	10.38
527.105	10.39
527.305	10.35
527.505	10.42
527.705	10.44
527.905	10.4
528.105	10.37
528.305	10.38
528.505	10.32
528.705	10.36
528.905	10.33
529.105	10.38
529.304	10.41
529.504	10.42
529.704	10.38
529.904	10.51
530.104	10.47
530.304	10.46
530.503	10.5
530.703	10.45
530.903	10.43
531.103	10.52
531.303	10.53
531.502	10.57
531.702	10.64
531.902	10.59
532.101	10.52
532.301	10.56
532.501	10.48
532.7	10.53
532.9	10.55
533.1	10.64
533.299	10.65
533.499	10.75
533.698	10.68
533.898	10.7
534.097	10.67
534.297	10.62
534.496	10.57
534.696	10.66
534.895	10.64
535.095	10.66
535.294	10.69
535.494	10.75
535.693	10.78
535.892	10.88
536.092	10.93
536.291	10.95
536.491	11.01
536.69	10.95
536.889	10.89
537.088	10.8
537.288	10.86
537.487	10.84
537.686	10.92
537.886	11.02
538.085	11.07
538.284	11.07
538.483	11.11
538.682	11.13
538.882	11.14
539.081	11.14
539.28	11.18
539.479	11.16
539.678	11.2
539.877	11.2
540.076	11.25
540.275	11.29
540.474	11.28
540.673	11.27
540.872	11.26
541.071	11.31
541.27	11.33
541.469	11.41
541.668	11.36
541.867	11.4
542.066	11.4
542.265	11.49
542.464	11.43
542.663	11.58
542.862	11.72
543.06	11.78
543.259	11.73
543.458	11.86
543.657	11.85
543.856	11.83
544.054	11.87
544.253	11.85
544.452	11.87
544.651	11.85
544.849	11.86
545.048	11.84
545.247	11.92
545.445	11.97
545.644	12.07
545.843	12.08
546.041	12.19
546.24	12.3
546.438	12.35
546.637	12.36
546.836	12.39
547.034	12.36
547.233	12.38
547.431	12.37
547.63	12.46
547.828	12.48
548.027	12.56
548.225	12.53
548.423	12.61
548.622	12.6
548.82	12.7
549.019	12.76
549.217	12.77
549.415	12.77
549.614	12.8
549.812	12.84
550.01	12.87
550.209	12.99
550.407	13.07
550.605	13.16
550.803	13.2
551.002	13.24
551.2	13.29
551.398	13.32
551.596	13.31
551.794	13.42
551.993	13.46
552.191	13.52
552.389	13.61
552.587	13.73
552.785	13.75
552.983	13.84
553.181	13.87
553.379	13.84
553.577	13.91
553.775	13.88
553.973	13.93
554.171	13.96
554.369	14.11
554.567	14.18
554.765	14.35
554.963	14.44
555.161	14.55
555.359	14.63
555.557	14.7
555.755	14.78
555.952	14.8
556.15	14.85
556.348	14.9
556.546	14.96
556.744	15.04
556.941	15.11
557.139	15.28
557.337	15.36
557.535	15.43
557.732	15.43
557.93	15.52
558.128	15.54
558.325	15.63
558.523	15.7
558.721	15.74
558.918	15.8
559.116	15.87
559.313	15.91
559.511	16.13
559.708	16.3
559.906	16.46
560.104	16.53
560.301	16.62
560.498	16.61
560.696	16.69
560.893	16.77
561.091	16.9
561.288	17.06
561.486	17.07
561.683	17.13
561.88	17.21
562.078	17.3
562.275	17.34
562.473	17.49
562.67	17.61
562.867	17.76
563.064	17.83
563.262	17.94
563.459	18.03
563.656	18.09
563.853	18.17
564.051	18.21
564.248	18.32
564.445	18.45
564.642	18.53
564.839	18.61
565.036	18.85
565.234	18.91
565.431	19
565.628	19.04
565.825	19.07
566.022	19.11
566.219	19.2
566.416	19.22
566.613	19.37
566.81	19.54
567.007	19.59
567.204	19.6
567.401	19.73
567.598	19.81
567.795	19.79
567.991	19.91
568.188	20.09
568.385	20.08
568.582	20.26
568.779	20.36
568.976	20.46
569.172	20.57
569.369	20.65
569.566	20.7
569.763	20.72
569.96	20.71
570.156	20.69
570.353	20.81
570.55	20.79
570.746	20.96
570.943	20.98
571.14	21.09
571.336	21.12
571.533	21.13
571.729	21.12
571.926	21.28
572.123	21.27
572.319	21.34
572.516	21.48
572.712	21.57
572.909	21.55
573.105	21.65
573.302	21.75
573.498	21.77
573.695	21.79
573.891	21.77
574.087	21.74
574.284	21.72
574.48	21.85
574.677	21.81
574.873	21.86
575.069	21.98
575.266	22.01
575.462	21.9
575.658	21.96
575.854	22.06
576.051	21.97
576.247	22.05
576.443	22.1
576.639	22.22
576.835	22.24
577.032	22.33
577.228	22.33
577.424	22.36
577.62	22.38
577.816	22.34
578.012	22.31
578.208	22.27
578.404	22.27
578.6	22.19
578.796	22.25
578.993	22.32
579.189	22.31
579.384	22.31
579.58	22.35
579.776	22.26
579.972	22.2
580.168	22.15
580.364	22.13
580.56	22.13
580.756	22.17
580.952	22.14
581.148	22.23
581.343	22.29
581.539	22.26
581.735	22.21
581.931	22.21
582.127	22.15
582.322	22.07
582.518	22.02
582.714	22.07
582.909	22.02
583.105	21.98
583.301	21.98
583.496	21.97
583.692	21.89
583.888	21.89
584.083	21.84
584.279	21.79
584.474	21.75
584.67	21.76
584.866	21.78
585.061	21.84
585.257	21.81
585.452	21.91
585.648	21.89
585.843	21.85
586.039	21.9
586.234	21.92
586.429	21.8
586.625	21.76
586.82	21.81
587.015	21.69
587.211	21.65
587.406	21.67
587.601	21.78
587.797	21.81
587.992	21.92
588.187	21.85
588.383	21.87
588.578	21.72
588.773	21.7
588.968	21.7
589.163	21.79
589.359	21.72
589.554	21.74
589.749	21.74
589.944	21.75
590.139	21.84
590.334	21.96
590.529	22.02
590.724	21.96
590.919	21.93
591.114	21.91
591.309	21.9
591.504	21.92
591.699	21.94
591.894	21.95
592.089	21.95
592.284	22.04
592.479	21.95
592.674	22
592.869	22.07
593.064	22.15
593.259	22.17
593.454	22.4
593.648	22.45
593.843	22.5
594.038	22.52
594.233	22.5
594.428	22.61
594.622	22.7
594.817	22.71
595.012	22.81
595.206	22.93
595.401	23
595.596	23.12
595.79	23.19
595.985	23.15
596.18	23.2
596.374	23.14
596.569	23.04
596.763	23.1
596.958	23.3
597.153	23.23
597.347	23.3
597.542	23.45
597.736	23.52
597.931	23.49
598.125	23.74
598.319	23.7
598.514	23.67
598.708	23.7
598.903	23.77
599.097	23.72
599.291	23.88
599.486	23.94
599.68	23.99
599.874	23.93
600.069	24.07
600.263	24.01
600.457	24.13
600.651	24.07
600.846	24.16
601.04	24.02
601.234	24.08
601.428	24.06
601.622	24.16
601.817	24.16
602.011	24.27
602.205	24.29
602.399	24.27
602.593	24.32
602.787	24.35
602.981	24.34
603.175	24.4
603.369	24.34
603.563	24.34
603.757	24.28
603.951	24.26
604.145	24.11
604.339	24.17
604.533	24.12
604.727	24.14
604.921	24.14
605.115	24.16
605.309	24.18
605.502	24.21
605.696	24.18
605.89	24.1
606.084	24.09
606.278	24
606.471	23.93
606.665	23.82
606.859	23.81
607.053	23.72
607.246	23.69
607.44	23.58
607.634	23.65
607.827	23.45
608.021	23.36
608.214	23.24
608.408	23.14
608.602	22.95
608.795	22.99
608.989	22.96
609.182	22.92
609.376	22.94
609.569	22.88
609.763	22.71
609.956	22.67
610.15	22.51
610.343	22.41
610.537	22.34
610.73	22.26
610.923	22.23
611.117	22.22
611.31	22.15
611.504	22.17
611.697	22.12
611.89	22
612.083	21.86
612.277	21.71
612.47	21.55
612.663	21.56
612.856	21.44
613.05	21.44
613.243	21.44
613.436	21.37
613.629	21.22
613.822	21.19
614.015	21.12
614.209	20.99
614.402	20.99
614.595	21.03
614.788	20.93
614.981	20.83
615.174	20.82
615.367	20.73
615.56	20.48
615.753	20.45
615.946	20.41
616.139	20.33
616.332	20.25
616.525	20.3
616.718	20.29
616.911	20.29
617.103	20.23
617.296	20.15
617.489	20.07
617.682	19.98
617.875	19.95
618.067	19.83
618.26	19.78
618.453	19.69
618.646	19.76
618.838	19.66
619.031	19.64
619.224	19.69
619.417	19.79
619.609	19.61
619.802	19.54
619.994	19.52
620.187	19.36
620.38	19.2
620.572	19.19
620.765	19.17
620.957	19.09
621.15	19.1
621.342	19.07
621.535	19.09
621.727	19.07
621.92	19.02
622.112	19
622.305	19.03
622.497	18.94
622.69	18.87
622.882	18.87
623.074	18.87
623.267	18.81
623.459	18.78
623.651	18.74
623.844	18.85
624.036	18.84
624.228	18.95
624.42	18.98
624.613	18.95
624.805	18.82
624.997	18.78
625.189	18.63
625.381	18.61
625.574	18.61
625.766	18.61
625.958	18.58
626.15	18.57
626.342	18.48
626.534	18.43
626.726	18.38
626.918	18.29
627.11	18.37
627.302	18.33
627.494	18.41
627.686	18.37
627.878	18.36
628.07	18.24
628.262	18.17
628.454	17.97
628.646	17.95
628.838	17.94
629.029	17.89
629.221	17.94
629.413	17.97
629.605	17.92
629.797	17.92
629.989	17.93
630.18	17.85
630.372	17.87
630.564	17.88
630.755	17.82
630.947	17.76
631.139	17.69
631.33	17.63
631.522	17.55
631.714	17.47
631.905	17.46
632.097	17.47
632.289	17.44
632.48	17.43
632.672	17.45
632.863	17.35
633.055	17.3
633.246	17.37
633.438	17.43
633.629	17.35
633.821	17.37
634.012	17.43
634.203	17.38
634.395	17.35
634.586	17.44
634.777	17.43
634.969	17.36
635.16	17.3
635.351	17.25
635.543	17.19
635.734	17.27
635.925	17.25
636.117	17.26
636.308	17.22
636.499	17.16
636.69	17.05
636.881	17.1
637.073	17.11
637.264	17.15
637.455	17.13
637.646	17.22
637.837	17.17
638.028	17.03
638.219	16.97
638.41	17.01
638.601	16.87
638.792	16.78
638.983	16.9
639.174	16.88
639.365	16.92
639.556	16.98
639.747	17.1
639.938	17.08
640.129	17.1
640.32	17.04
640.511	17.06
640.701	16.97
640.892	16.96
641.083	16.95
641.274	16.85
641.465	16.73
641.655	16.79
641.846	16.77
642.037	16.65
642.228	16.75
642.418	16.76
642.609	16.68
642.8	16.6
642.99	16.73
643.181	16.72
643.372	16.72
643.562	16.69
643.753	16.76
643.943	16.68
644.134	16.59
644.324	16.55
644.515	16.54
644.705	16.43
644.896	16.33
645.086	16.23
645.277	16.2
645.467	16.2
645.658	16.14
645.848	16.13
646.038	16.15
646.229	16.17
646.419	16.2
646.61	16.2
646.8	16.17
646.99	16.2
647.18	16.19
647.371	16
647.561	15.93
647.751	16.03
647.941	15.94
648.132	15.92
648.322	16
648.512	16.07
648.702	16.07
648.892	16.03
649.082	16.04
649.272	15.98
649.462	15.93
649.653	15.84
649.843	15.87
650.033	15.74
650.223	15.73
650.413	15.69
650.603	15.66
650.793	15.6
650.983	15.6
651.172	15.54
651.362	15.47
651.552	15.36
651.742	15.28
651.932	15.24
652.122	15.29
652.312	15.3
652.502	15.22
652.691	15.22
652.881	15.13
653.071	15.07
653.261	14.97
653.45	14.87
653.64	14.88
653.83	14.91
654.019	14.77
654.209	14.74
654.399	14.69
654.588	14.47
654.778	14.31
654.968	14.2
655.157	14.11
655.347	14.08
655.536	14.08
655.726	13.94
655.915	13.87
656.105	13.68
656.294	13.54
656.484	13.41
656.673	13.37
656.863	13.27
657.052	13.18
657.241	13.02
657.431	12.89
657.62	12.74
657.809	12.46
657.999	12.43
658.188	12.33
658.377	12.21
658.567	12.03
658.756	11.95
658.945	11.87
659.134	11.75
659.324	11.74
659.513	11.64
659.702	11.6
659.891	11.39
660.08	11.19
660.269	10.95
660.458	10.81
660.648	10.75
660.837	10.64
661.026	10.68
661.215	10.65
661.404	10.51
661.593	10.3
661.782	10.15
661.971	9.99
662.16	9.92
662.349	9.81
662.538	9.8
662.726	9.79
662.915	9.75
663.104	9.64
663.293	9.67
663.482	9.56
663.671	9.41
663.86	9.31
664.048	9.23
664.237	9.11
664.426	9.04
664.615	9.01
664.803	8.97
664.992	8.94
665.181	8.94
665.369	8.95
665.558	8.95
665.747	8.99
665.935	8.92
666.124	8.92
666.312	8.86
666.501	8.82
666.69	8.72
666.878	8.68
667.067	8.61
667.255	8.76
667.444	8.72
667.632	8.76
667.82	8.8
668.009	8.79
668.197	8.67
668.386	8.71
668.574	8.71
668.762	8.68
668.951	8.75
669.139	8.83
669.327	8.82
669.516	8.87
669.704	8.91
669.892	8.93
670.08	8.91
670.269	8.96
670.457	8.89
670.645	8.91
670.833	8.83
671.021	8.81
671.21	8.74
671.398	8.83
671.586	8.84
671.774	9
671.962	8.99
672.15	9.16
672.338	9.15
672.526	9.31
672.714	9.4
672.902	9.5
673.09	9.62
673.278	9.72
673.466	9.79
673.654	9.83
673.842	9.99
674.03	9.95
674.218	10.03
674.405	10.08
674.593	10.12
674.781	10.06
674.969	10.08
675.157	10.03
675.344	10.04
675.532	10.08
675.72	10.28
675.908	10.37
676.095	10.5
676.283	10.54
676.471	10.64
676.658	10.64
676.846	10.68
677.033	10.82
677.221	10.93
677.409	11.03
677.596	11.06
677.784	11.32
677.971	11.34
678.159	11.51
678.346	11.48
678.534	11.65
678.721	11.72
678.909	11.88
679.096	11.82
679.283	12.04
679.471	12.05
679.658	12.03
679.846	12.23
680.033	12.43
680.22	12.46
680.408	12.65
680.595	12.76
680.782	12.66
680.969	12.76
681.157	12.86
681.344	12.95
681.531	13.07
681.718	13.28
681.905	13.23
682.093	13.33
682.28	13.4
682.467	13.7
682.654	13.76
682.841	13.94
683.028	14.08
683.215	14.27
683.402	14.33
683.589	14.53
683.776	14.74
683.963	14.94
684.15	15.14
684.337	15.36
684.524	15.51
684.711	15.75
684.898	15.8
685.085	15.99
685.271	16.22
685.458	16.34
685.645	16.53
685.832	17.02
686.019	17.31
686.205	17.56
686.392	17.86
686.579	18.11
686.766	18.2
686.952	18.36
687.139	18.49
687.326	18.77
687.512	18.97
687.699	19.22
687.886	19.38
688.072	19.59
688.259	19.92
688.445	20.28
688.632	20.52
688.818	21.05
689.005	21.28
689.191	21.65
689.378	21.99
689.564	22.58
689.751	22.77
689.937	23.35
690.124	23.7
690.31	24.19
690.496	24.66
690.683	25.27
690.869	25.91
691.055	26.38
691.242	26.84
691.428	27.21
691.614	27.6
691.8	27.97
691.987	28.58
692.173	29.31
692.359	29.97
692.545	30.47
692.731	30.97
692.918	31.56
693.104	31.93
693.29	32.52
693.476	33.18
693.662	33.91
693.848	34.51
694.034	35.02
694.22	35.23
694.406	35.57
694.592	36
694.778	36.4
694.964	37.12
695.15	37.79
695.336	38.42
695.522	39.02
695.708	39.78
695.894	40.22
696.08	40.98
696.265	41.8
696.451	42.6
696.637	42.86
696.823	43.34
697.009	43.84
697.194	44.13
697.38	44.39
697.566	45.17
697.751	45.94
697.937	46.83
698.123	47.43
698.308	47.85
698.494	48.4
698.68	48.86
698.865	48.88
699.051	49.29
699.236	49.94
699.422	50.37
699.607	50.93
699.793	51.5
699.978	52.07
700.164	52.66
700.349	53.17
700.535	53.27
700.72	53.6
700.906	54.27
701.091	54.61
701.276	55.11
701.462	55.83
701.647	56.34
701.832	56.85
702.018	57.22
702.203	57.66
702.388	58.06
702.573	58.51
702.759	58.54
702.944	58.86
703.129	59.2
703.314	59.18
703.499	59.54
703.684	59.96
703.87	60.22
704.055	60.22
704.24	60.62
704.425	61.08
704.61	61.52
704.795	62.04
704.98	62.66
705.165	63.23
705.35	63.69
705.535	64.07
705.72	64.43
705.905	64.88
706.09	65.22
706.275	65.19
706.459	65.59
706.644	65.59
706.829	65.63
707.014	66.33
707.199	66.52
707.384	66.66
707.568	66.94
707.753	66.95
707.938	66.7
708.123	67.31
708.307	67.65
708.492	68.13
708.677	68.19
708.861	68.89
709.046	69.04
709.231	69.3
709.415	69.29
709.6	69.95
709.784	69.92
709.969	70.01
710.153	69.87
710.338	69.98
710.522	70.5
710.707	70.23
710.891	70.46
711.076	70.73
711.26	71.53
711.445	71.44
711.629	71.88
711.813	71.86
711.998	72.27
712.182	71.96
712.366	72.21
712.551	72.39
712.735	72.66
712.919	72.77
713.103	73.05
713.288	73.06
713.472	73.27
713.656	73.57
713.84	73.59
714.024	73.98
714.208	74.36
714.393	74.85
714.577	74.58
714.761	75.11
714.945	75.21
715.129	75.1
715.313	74.99
715.497	75.57
715.681	75.57
715.865	76.07
716.049	76.23
716.233	76.7
716.417	77.48
716.601	77.51
716.785	77.56
716.968	78.28
717.152	78.52
717.336	78.72
717.52	79.01
717.704	79.04
717.888	79.43
718.071	79.48
718.255	79.22
718.439	79.23
718.622	79.29
718.806	78.98
718.99	79.39
719.174	79.35
719.357	79.45
719.541	79.54
719.724	79.42
719.908	79.22
720.092	79.42
720.275	80.06
720.459	80.36
720.642	81.01
720.826	81.53
721.009	82.19
721.193	82.37
721.376	82.88
721.559	82.8
721.743	82.67
721.926	82.24
722.11	82.05
722.293	81.58
722.476	81.98
722.66	82.18
722.843	82.84
723.026	83.16
723.21	83.93
723.393	83.46
723.576	83.81
723.759	83.34
723.942	83.73
724.126	84.29
724.309	85.17
724.492	85.39
724.675	86.05
724.858	85.86
725.041	85.27
725.224	85.15
725.407	84.89
725.59	85.04
725.774	85.75
725.957	86.37
726.14	86.66
726.322	86.38
726.505	86.32
726.688	86.62
726.871	86.12
727.054	86.1
727.237	86.86
727.42	87.76
727.603	87.5
727.786	87.81
727.968	88.33
728.151	88.5
728.334	87.74
728.517	88.48
728.699	88.69
728.882	88.39
729.065	88.98
729.248	89.41
729.43	89.2
729.613	90.22
729.796	90.55
729.978	91.07
730.161	91.15
730.343	90.9
730.526	91.25
730.708	91.79
730.891	91.62
731.073	91.99
731.256	92.99
731.438	92.26
731.621	92.77
731.803	92.11
731.986	92.93
732.168	92.43
732.35	92.58
732.533	92.34
732.715	93.16
732.898	92.74
733.08	93.11
733.262	93.37
733.444	92.62
733.627	93.05
733.809	92.78
733.991	92.67
734.173	93.15
734.355	93.82
734.538	93.6
734.72	94.56
734.902	95.93
735.084	95.83
735.266	96.07
735.448	96.19
735.63	95.98
735.812	94.98
735.994	93.95
736.176	94.02
736.358	95.21
736.54	94.78
736.722	95.37
736.904	96.86
737.086	96.57
737.268	95.14
737.45	95.96
737.632	95.19
737.814	95.06
737.995	96.32
738.177	96.64
738.359	96.56
738.541	97.43
738.723	97.3
738.904	97.88
739.086	98.03
739.268	98.59
739.449	98.87
739.631	99.37
739.813	99.28
739.994	99.72
740.176	98.87
740.358	98.79
740.539	98.54
740.721	98.3
740.902	98.02
741.084	98.75
741.265	97.8
741.447	97.5
741.628	96.56
741.81	95.94
741.991	96.17
742.172	97.07
742.354	98.05
742.535	99.12
742.717	99.81
742.898	99.61
743.079	98.37
743.261	97.52
743.442	97.08
743.623	97.61
743.804	97.25
743.986	98.65
744.167	99.2
744.348	99.02
744.529	98.37
744.71	98.29
744.891	97.83
745.073	97.75
745.254	98.65
745.435	97.86
745.616	97.75
745.797	97.45
745.978	96.66
746.159	96.65
746.34	97.54
746.521	97.66
746.702	97.73
746.883	98.39
747.064	96.92
747.245	97.77
747.426	96.74
747.606	95.73
747.787	95.9
747.968	95.74
748.149	95.7
748.33	96.15
748.51	98.88
748.691	97.84
748.872	98.74
749.053	98.21
749.233	99.28
749.414	96.34
749.595	97.28
749.775	98.54
749.956	98.77
750.137	97.92
750.317	98.74
750.498	99.43
750.678	98.01
750.859	97.42
751.04	97.25
751.22	98
751.4	97.13
751.581	96.83
751.761	97.37
751.942	98.59
752.122	97.81
752.303	97.86
752.483	98.15
752.663	98.08
752.844	97.49
753.024	98.08
753.204	98.28
753.385	97.65
753.565	98.76
753.745	99.44
753.925	99.67
754.106	100.49
754.286	100.97
754.466	99.74
754.646	99.32
754.826	99.85
755.006	99.61
755.187	100.14
755.367	101.19
755.547	100.84
755.727	100.4
755.907	98
756.087	97.89
756.267	97.09
756.447	97.56
756.627	98.1
756.807	100.24
756.987	99.6
757.167	99.77
757.346	100.67
757.526	99.78
757.706	98.38
757.886	98.23
758.066	97.84
758.246	95.97
758.425	96.6
758.605	98.23
758.785	99.73
758.965	100.98
759.144	102.93
759.324	102.33
759.504	102.29
759.683	101.15
759.863	100.48
760.043	99.1
760.222	98.59
760.402	97.9
760.581	98.62
760.761	96.08
760.94	95.45
761.12	95.45
761.299	94.53
761.479	94.3
761.658	94.31
761.838	96.32
762.017	97.5
762.197	97.37
762.376	96.89
762.555	97.05
762.735	96.9
762.914	95.02
763.093	95.52
763.273	95.75
763.452	95.67
763.631	93.73
763.81	95.52
763.99	96.61
764.169	97.28
764.348	99.24
764.527	100
764.706	97.9
764.885	95.52
765.064	95.64
765.243	93.8
765.423	93.65
765.602	93.74
765.781	97.24
765.96	95.39
766.139	96
766.318	95.78
766.497	97.33
766.676	95.3
766.854	96.38
767.033	97.89
767.212	97.51
767.391	95.95
767.57	97.14
767.749	95.05
767.928	93.62
768.106	95.63
768.285	95.2
768.464	93.02
768.643	94.23
768.821	94.37
769	94.17
769.179	95.78
769.357	95.88
769.536	94.29
769.715	95.11
769.893	94.75
770.072	93.32
770.25	94.64
770.429	96.52
770.607	94.98
770.786	94.52
770.964	95.39
771.143	95.81
771.321	94.38
771.5	96.82
771.678	96.01
771.857	94.55
772.035	96.4
772.213	98.38
772.392	95.4
772.57	95.69
772.748	97.28
772.927	93.78
773.105	92.96
773.283	93.95
773.461	93.53
773.64	92.38
773.818	93.33
773.996	92.81
774.174	92.2
774.352	90.87
774.531	92.25
774.709	91.99
774.887	93.01
775.065	93.2
775.243	95.78
775.421	96.05
775.599	93.15
775.777	92.41
775.955	91.53
776.133	91.17
776.311	91.89
776.489	94.48
776.667	95.56
776.844	96.3
777.022	95.62
777.2	95.24
777.378	95.71
777.556	94.39
777.734	94.12
777.911	93.31
778.089	93.17
778.267	91.25
778.445	91.51
778.622	91.74
778.8	94.34
778.978	92.16
779.155	93.13
779.333	92.29
779.511	89.41
779.688	86.56
779.866	84.23
780.043	86.03
780.221	87.86
780.398	90.92
780.576	90.87
780.753	93.19
780.931	91.34
781.108	90.38
781.286	87.08
781.463	87.3
781.64	89.44
781.818	90.93
781.995	88.92
782.172	91.73
782.35	94.01
782.527	91.7
782.704	89.18
782.882	91.38
783.059	92.3
783.236	87.69
783.413	88.08
783.59	87.17
783.768	85.35
783.945	88.31
784.122	90.48
784.299	92.8
784.476	90.97
784.653	93.03
784.83	88.5
785.007	90.57
785.184	87.94
785.361	90.46
785.538	87.48
785.715	89.12
785.892	85.68
786.069	87.94
786.246	88.14
786.423	91.1
786.6	91.8
786.776	93.67
786.953	91.88
787.13	92.59
787.307	92
787.484	90.98
787.66	92.03
787.837	89.89
788.014	91.15
788.191	87.72
788.367	88.64
788.544	88.93
788.721	89.84
788.897	85.15
789.074	88.18
789.25	81.56
789.427	77.31
789.603	77.41
789.78	82.09
789.956	81.86
790.133	86.81
790.309	90.14
790.486	87.2
790.662	85.16
790.839	86.17
791.015	86.89
791.192	86.15
791.368	92.2
791.544	87.7
791.721	86.06
791.897	83.7
792.073	85.85
792.249	77.73
792.426	83.43
792.602	84.15
792.778	86.74
792.954	86.56
793.13	91.54
793.307	91.6
793.483	90.85
793.659	90.26
793.835	85.69
794.011	90.04
794.187	88.21
794.363	87.58
794.539	85.7
794.715	87.98
794.891	88.55
795.067	88.38
795.243	87.37
795.419	89.31
795.595	89.11
795.771	83.73
795.947	83.59
796.122	82.52
796.298	83.46
796.474	84.38
796.65	85.73
796.826	86.78
797.001	90.35
797.177	86.48
797.353	84.72
797.529	87.04
797.704	89.98
797.88	88.69
798.056	89.4
798.231	93.6
798.407	91.17
798.582	87.54
798.758	85.18
798.934	87.41
799.109	82.3
799.285	82.94
799.46	89.02
799.636	93.15
799.811	94.16
799.986	95.92
800.162	94.51
800.337	91.31
800.513	89.13
800.688	79.88
800.863	81.14
801.039	86.84
801.214	89.95
801.389	89.55
801.565	94.26
801.74	98.34
801.915	93.79
802.09	86.01
802.265	88.05
802.441	92.35
802.616	85.88
802.791	82.95
802.966	86.84
803.141	82.2
803.316	76.17
803.491	80.49
803.666	84.51
803.841	87.68
804.016	93.01
804.191	95.08
804.366	100.92
804.541	98.42
804.716	87.82
804.891	88.72
805.066	92.22
805.241	84.76
805.416	80.96
805.591	80.52
805.765	82.17
805.94	79.89
806.115	74.27
806.29	71.38
806.464	77.92
806.639	73.67
806.814	72.09
806.989	72.18
807.163	71.56
807.338	67.35
807.512	72.14
807.687	77.13
807.862	73.05
808.036	77.05
808.211	78.54
808.385	67.11
808.56	64.65
808.734	70.49
808.909	72.98
809.083	68.29
809.258	69.92
809.432	68.36
809.606	63.58
809.781	61.29
809.955	64.06
810.13	68.99
810.304	73.59
810.478	74.28
810.652	74.97
810.827	82.91
811.001	86.44
811.175	88.48
811.349	92.5
811.524	92.68
811.698	86.02
811.872	76.31
812.046	71.73
812.22	70.31
812.394	68.53
812.568	69.26
812.742	81.36
812.916	82.38
813.09	78.32
813.264	82.16
813.438	85.59
813.612	85.06
813.786	81.02
813.96	86.46
814.134	77.31
814.308	78.89
814.482	77.95
814.656	85
814.83	84.7
815.003	94.55
815.177	77.82
815.351	77.45
815.525	77.41
815.698	83.25
815.872	86.48
816.046	108.31
816.219	100.83
816.393	101.67
816.567	98.88
816.74	89.6
816.914	81.04
817.088	83.62
817.261	75.28
817.435	81.86
817.608	85.75
817.782	82.35
817.955	91.95
818.129	109.76
818.302	103.05
818.475	106.39
818.649	110.67
818.822	105.22
818.996	90.2
819.169	82.9
819.342	78.58
819.516	71.09
819.689	68.99
819.862	82.06
820.035	85.76
820.209	86.11
820.382	99.07
820.555	104.09
820.728	95.27
820.901	89.41
821.075	91.24
821.248	101.87
821.421	92.01
821.594	92.29
821.767	104.45
821.94	102.73
822.113	78.58
822.286	79.99
822.459	83.59
822.632	74.55
822.805	73.71
822.978	79.67
823.151	75.67
823.324	68.11
823.496	66.46
823.669	58.48
823.842	58.27
824.015	57.92
824.188	51.79
824.361	60.86
824.533	77.79
824.706	67.51
824.879	75.96
825.051	71.56
825.224	65.49
825.397	64.91
825.569	73.33
825.742	68.35
825.915	91.45
826.087	102.3
826.26	93.79
826.432	100.53
826.605	91.47
826.777	71.89
826.95	63.83
827.122	55.47
827.295	44.07
827.467	53.77
827.64	48.42
827.812	32.73
827.984	35.04
828.157	44.35
828.329	45.52
828.501	66.77
828.674	80.43
828.846	86.49
829.018	86.58
829.19	83.16
829.363	71.85
829.535	78.95
829.707	77.81
829.879	74.9
830.051	74
830.223	86.17
830.395	82.13
830.568	88.33
830.74	81.45
830.912	81.11
831.084	67.26
831.256	63.01
831.428	53.36
831.6	57.05
831.772	59.53
831.943	65.62
832.115	73.81
832.287	89.99
832.459	80.15
832.631	79.83
832.803	81.19
832.975	78.49
833.146	66.62
833.318	86.6
833.49	94.77
833.662	98.86
833.833	88.23
834.005	102.55
834.177	99.81
834.348	98.11
834.52	79.82
834.692	81.08
834.863	72.18
835.035	78.72
835.206	75.31
835.378	75.68
835.549	84.62
835.721	81.42
835.892	72.07
836.064	85.97
836.235	96.1
836.407	98.6
836.578	99.64
836.749	89.59
836.921	66.86
837.092	64.81
837.264	54.72
837.435	55.45
837.606	64.93
837.777	63.77
837.949	48.59
838.12	41.81
838.291	39.17
838.462	35.89
838.633	31.75
838.805	53.11
838.976	62.49
839.147	81.25
839.318	66.74
839.489	67.87
839.66	89.3
839.831	91.84
840.002	69.23
840.173	69.44
840.344	91.21
840.515	63.15
840.686	65.42
840.857	72.86
841.028	101.21
841.199	87.82
841.369	77.46
841.54	97.29
841.711	85.48
841.882	52.66
842.053	52.6
842.223	79.88
842.394	73.93
842.565	84.82
842.736	144.54
842.906	277.78
843.077	205.64
843.248	252.74
843.418	173.5
843.589	91.89
843.759	78.29
843.93	69.55
844.101	64.29
844.271	57.98
844.442	77.96
844.612	86.89
844.783	78.66
844.953	64.9
845.123	70.3
845.294	52.03
845.464	59.95
845.635	66.14
845.805	110.8
845.975	141.75
846.146	168.23
846.316	120.75
846.486	141
846.656	74.66
846.827	59.14
846.997	46.85
847.167	49.92
847.337	36.61
847.507	50.64
847.677	57.78
847.848	80.88
848.018	116.06
848.188	135.46
848.358	140.55
848.528	146.5
848.698	150.73
848.868	129.74
849.038	142.31
849.208	116.32
849.378	116.57
849.548	71.66
849.718	93.28
849.887	86.53
850.057	69.96
850.227	62.09
850.397	70.7
850.567	70.98
850.737	83.64
850.906	77.5
851.076	79.66
851.246	91.01
851.415	80.17
851.585	73.49
851.755	70.27
851.924	64.03
852.094	55.51
852.264	43.9
852.433	22.83
852.603	44.82
852.772	58.76
852.942	69.05
853.111	66.81
853.281	73.89
853.45	50.75
853.62	22.97
853.789	-14.13
853.959	4.79
854.128	31.19
854.297	55.94
854.467	113.49
854.636	128.78
854.805	105.62
854.975	85.39
855.144	64.97
855.313	46.83
855.482	65.2
855.652	52.24
855.821	74
855.99	77.48
856.159	76.98
856.328	85.21
856.497	93.62
856.667	72.95
856.836	87.64
857.005	86.92
857.174	68.74
857.343	72.53
857.512	84.16
857.681	6.81
857.85	46.15
858.019	18.38
858.188	-3.88
858.356	17.22
858.525	74.76
858.694	41.85
858.863	56.78
859.032	63.95
859.201	44.76
859.369	15.58
859.538	36.65
859.707	16.73
859.876	-0.57
860.044	31.7
860.213	48.86
860.382	54.13
860.55	100.62
860.719	157.64
860.888	182.11
861.056	136.32
861.225	120.14
861.393	107.29
861.562	103.49
861.73	72.47
861.899	58.75
862.067	64.25
862.236	52.11
862.404	30.59
862.572	40.57
862.741	59.98
862.909	52.91
863.078	54.04
863.246	64.13
863.414	74.04
863.582	56.37
863.751	68.26
863.919	77.61
864.087	100
864.255	73.12
864.424	65.99
864.592	52.77
864.76	57.04
864.928	53.09
865.096	43.65
865.264	53.53
865.432	58.81
865.6	49.47
865.768	40.07
865.936	47.73
866.104	47.87
866.272	51.29
866.44	64.36
866.608	52.8
866.776	56.24
866.944	48.28
867.112	58.39
867.28	25.05
867.448	41.11
867.615	33.67
867.783	46.39
867.951	33.45
868.119	67.65
868.286	66.27
868.454	81.64
868.622	69.36
868.789	91.98
868.957	74.57
869.125	76.24
869.292	67.68
869.46	71.78
869.627	48.62
869.795	38.33
869.963	29.66
870.13	11.76
870.298	12.19
870.465	41.64
870.632	35.66
870.8	35.16
870.967	37.9
871.135	62.09
871.302	45.74
871.469	68.84
871.637	59.97
871.804	62.28
871.971	52.73
872.139	61.05
872.306	52.74
872.473	67.36
872.64	53.91
872.807	45.82
872.975	27.37
873.142	27.83
873.309	38.72
873.476	54.63
873.643	44.29
873.81	71.75
873.977	71.2
874.144	56.85
874.311	56.95
874.478	68.88
874.645	45.56
874.812	53.02
874.979	60.19
875.146	54.45
875.313	51.99
875.48	52.01
875.647	49.34
875.813	41.01
875.98	46.42
876.147	78.04
876.314	76.49
876.481	83.49
876.647	78
876.814	97
876.981	71.56
877.147	100.33
877.314	71.82
877.481	74.05
877.647	51.53
877.814	37.71
877.98	21.3
878.147	11.8
878.314	42.08
878.48	57.08
878.647	122.2
878.813	105.12
878.979	89.11
879.146	68.21
879.312	40.09
879.479	31.18
879.645	41.48
879.811	32.67
879.978	26.22
880.144	55.46
880.31	39.82
880.477	34.78
880.643	42.36
880.809	97.1
880.975	123.67
881.142	102.59
881.308	67
881.474	207.94
881.64	94.75
881.806	28.16
881.972	198.26
882.138	247.15
882.304	128.15
882.47	88.24
882.636	83.76
882.802	38.72
882.968	19.29
883.134	18.99
883.3	20.7
883.466	-6.73
883.632	9.22
883.798	28.4
883.964	43.37
884.129	226.13
884.295	192.45
884.461	112.43
884.627	94.36
884.793	63.78
884.958	46.87
885.124	40.81
885.29	34.38
885.455	21.4
885.621	7.69
885.787	-21.73
885.952	-7.98
886.118	-4.91
886.283	-0.22
886.449	4.2
886.614	28.3
886.78	14.53
886.945	31.6
887.111	30.54
887.276	38.13
887.442	38.25
887.607	6.35
887.773	-42.74
887.938	6.52
888.103	1.04
888.269	22.53
888.434	51.85
888.599	42.72
888.764	33.22
888.93	36.36
889.095	24.63
889.26	21.66
889.425	44.12
889.59	53.81
889.756	30.81
889.921	23.27
890.086	26.78
890.251	24.76
890.416	16.9
890.581	14.62
890.746	66.24
890.911	74.2
891.076	59.13
891.241	37.39
891.406	57.76
891.571	8.93
891.736	4.33
891.901	10.66
892.065	50.79
892.23	85.67
892.395	80.73
892.56	25.9
892.725	83.57
892.889	88.67
893.054	31.88
893.219	46.99
893.384	76.94
893.548	62.08
893.713	46.87
893.878	54.33
