Data from Ofav_PP_Phys_9GT46_Reflection_1.txt Node
Date: Tue Jul 27 19:03:22 EDT 2021
User: USUARIO
Spectrometer: FLMT01687
Trigger mode: 0
Integration Time (sec): 8.500000E-1
Scans to average: 2
Electric dark correction enabled: true
Nonlinearity correction enabled: false
Boxcar width: 2
XAxis mode: Wavelengths
Number of Pixels in Spectrum: 3648
>>>>>Begin Spectral Data<<<<<
179.494	-1053.33
179.716	-290.32
179.937	-252.55
180.158	-222.93
180.38	-254.2
180.601	-256.94
180.823	186.54
181.044	54.63
181.265	56.05
181.486	46.91
181.708	38.51
181.929	56.81
182.15	15.01
182.372	81.87
182.593	57.57
182.814	53.66
183.035	53.86
183.257	41.76
183.478	35.21
183.699	16.57
183.92	30.76
184.141	30.17
184.363	38.86
184.584	39.57
184.805	60.55
185.026	43.33
185.247	43.27
185.468	9.24
185.689	-7.26
185.91	-22.06
186.132	-20.95
186.353	8.1
186.574	39.56
186.795	57.62
187.016	70.68
187.237	68.39
187.458	39.6
187.679	32.38
187.9	33.21
188.121	23
188.342	14.34
188.563	34.03
188.784	40.45
189.005	31.46
189.226	36.49
189.447	34.95
189.667	32.28
189.888	21.77
190.109	22.88
190.33	23.25
190.551	28.14
190.772	26.01
190.993	28.95
191.214	27.91
191.434	28.71
191.655	36.06
191.876	30.91
192.097	16.63
192.318	21.71
192.538	16
192.759	23.91
192.98	23.46
193.201	38.07
193.421	46.14
193.642	20.4
193.863	5.81
194.083	20.66
194.304	7.25
194.525	-26.16
194.745	-45.63
194.966	-71.49
195.187	-101.33
195.407	-88.59
195.628	-52.2
195.848	-18.36
196.069	12.76
196.29	42.98
196.51	55.83
196.731	49.96
196.951	53.82
197.172	60.84
197.392	38.92
197.613	21.12
197.833	18.46
198.054	24.91
198.274	-9.99
198.495	-14.64
198.715	-12.91
198.936	-28.46
199.156	-8.23
199.377	38.15
199.597	25.42
199.817	12.79
200.038	-16.63
200.258	36.55
200.479	21.29
200.699	17.95
200.919	29.75
201.14	30.95
201.36	16.01
201.58	19.1
201.801	14.37
202.021	-2.56
202.241	15.02
202.461	12.29
202.682	9.29
202.902	-18.12
203.122	13.21
203.342	-6.65
203.563	14.38
203.783	12.31
204.003	19.25
204.223	-5.78
204.443	-12.35
204.663	-48.41
204.884	-35.77
205.104	7.14
205.324	46.39
205.544	42.44
205.764	33.35
205.984	34.54
206.204	13.04
206.424	-14.35
206.644	20.55
206.864	27.8
207.084	11.92
207.304	13.37
207.525	17.9
207.745	10.61
207.964	8.5
208.184	15.28
208.404	12.27
208.624	10.69
208.844	9.21
209.064	10.55
209.284	1.97
209.504	9.54
209.724	1.52
209.944	-34.07
210.164	-64.86
210.384	21.03
210.604	46.31
210.823	27.76
211.043	42.08
211.263	46.72
211.483	37.17
211.703	23.22
211.922	38.18
212.142	28.67
212.362	27.01
212.582	0.76
212.801	3.97
213.021	-33.35
213.241	-18.75
213.461	-37.04
213.68	-5.9
213.9	-0.48
214.12	16.21
214.339	14.71
214.559	18.2
214.779	18.9
214.998	15.17
215.218	2.05
215.438	8.33
215.657	14.12
215.877	12.58
216.096	17.03
216.316	27.71
216.535	33.23
216.755	43.78
216.974	47.82
217.194	53.63
217.413	63.44
217.633	45.41
217.852	31.19
218.072	20.61
218.291	0.48
218.511	-9.7
218.73	5.05
218.95	-4.52
219.169	8.59
219.389	-1.13
219.608	2.76
219.827	10.68
220.047	5.47
220.266	28.05
220.485	34.43
220.705	35.22
220.924	39.02
221.143	21.87
221.363	-4.37
221.582	11.14
221.801	9.17
222.021	6.52
222.24	25.86
222.459	19.18
222.678	9.68
222.897	8.36
223.117	24.02
223.336	9.45
223.555	25.68
223.774	10.59
223.993	4.13
224.213	-27.74
224.432	-11.96
224.651	-2.66
224.87	10.36
225.089	8.79
225.308	31.53
225.527	41.91
225.746	19.88
225.965	33.72
226.184	24.45
226.404	-1.18
226.623	-13.3
226.842	16.32
227.061	-1.36
227.28	27.19
227.499	24.62
227.718	29.72
227.936	22.75
228.155	39.44
228.374	31
228.593	41.38
228.812	46.35
229.031	38.85
229.25	40.11
229.469	29.17
229.688	-3.88
229.907	-36.24
230.125	-9.92
230.344	-25.58
230.563	2.23
230.782	13.95
231.001	13.53
231.22	7.84
231.438	0.82
231.657	-11.24
231.876	-29.01
232.095	-17.65
232.313	-4.19
232.532	0.1
232.751	1.91
232.969	13.25
233.188	3.46
233.407	-4.56
233.625	-8.96
233.844	-11.16
234.063	-10.79
234.281	14.87
234.5	12.63
234.719	35.28
234.937	32.5
235.156	46.71
235.374	29.94
235.593	36.55
235.811	29.85
236.03	46.35
236.249	19.11
236.467	28.66
236.686	27.51
236.904	20.98
237.123	6.03
237.341	18.05
237.559	19.62
237.778	14.55
237.996	29.84
238.215	49.83
238.433	54.39
238.652	54.11
238.87	66.02
239.088	57.08
239.307	40.99
239.525	18.22
239.743	12.35
239.962	-2.17
240.18	-2.12
240.398	-3.82
240.617	8.16
240.835	16.78
241.053	24.99
241.271	26.07
241.49	27.67
241.708	13.93
241.926	2.13
242.144	-3.39
242.363	-18.49
242.581	-37.33
242.799	-30.33
243.017	-46.41
243.235	-73.37
243.453	-42.31
243.672	-7.79
243.89	-10.25
244.108	-12.99
244.326	5.55
244.544	-8.09
244.762	-3.11
244.98	22.2
245.198	17.69
245.416	28.79
245.634	52.93
245.852	62.29
246.07	56.34
246.288	68.33
246.506	54.45
246.724	49.44
246.942	37.43
247.16	23.26
247.378	9.3
247.596	9.81
247.814	8.37
248.032	0.86
248.25	12.89
248.468	17.28
248.685	19.5
248.903	20.09
249.121	6.94
249.339	13.68
249.557	19.03
249.775	0.81
249.992	-8.84
250.21	1.49
250.428	-6.58
250.646	-17.41
250.863	21.15
251.081	17.38
251.299	26.64
251.517	16.27
251.734	36.83
251.952	-20.22
252.17	-5.21
252.387	-21.49
252.605	-15.35
252.823	-5.72
253.04	20.51
253.258	34.41
253.475	39.8
253.693	52.82
253.911	48.89
254.128	43.05
254.346	30.68
254.563	25.44
254.781	7.12
254.998	7.71
255.216	-13.79
255.433	-8.65
255.651	0.85
255.868	5.92
256.086	8.39
256.303	22.71
256.521	22.61
256.738	31.53
256.956	32.69
257.173	35.29
257.39	29.61
257.608	35.58
257.825	32.13
258.043	35.06
258.26	38.2
258.477	39.33
258.695	27.28
258.912	29.59
259.129	15.88
259.346	17.99
259.564	6.28
259.781	25.48
259.998	8.87
260.216	32.22
260.433	30.72
260.65	41.97
260.867	25.88
261.084	39.97
261.302	-3.04
261.519	-13.52
261.736	-28.33
261.953	-4.83
262.17	-5.98
262.387	5.61
262.604	15
262.822	34.6
263.039	31.64
263.256	34.99
263.473	48.45
263.69	48.75
263.907	21.37
264.124	18.71
264.341	17.41
264.558	31.63
264.775	27.12
264.992	41.43
265.209	39.43
265.426	40.85
265.643	23.77
265.86	22.16
266.077	2.81
266.294	15.05
266.51	23.04
266.727	28.87
266.944	27.37
267.161	29.17
267.378	9.3
267.595	3.73
267.812	-4.75
268.028	-11.22
268.245	0.53
268.462	13.67
268.679	2.61
268.896	6.82
269.112	8.47
269.329	-7.83
269.546	4.39
269.763	4.63
269.979	9.63
270.196	4.88
270.413	28.77
270.629	19.85
270.846	33.84
271.063	37.49
271.279	29.39
271.496	20.35
271.712	15.27
271.929	-26.44
272.146	-36.76
272.362	0.52
272.579	12.83
272.795	11.41
273.012	30
273.228	21.89
273.445	27.33
273.661	19.32
273.878	18.46
274.094	-2.62
274.311	16.97
274.527	15.31
274.744	9.14
274.96	17.42
275.177	7.39
275.393	-12.29
275.609	-16.75
275.826	-17.92
276.042	-18.08
276.259	26.91
276.475	31.13
276.691	25.95
276.908	46.24
277.124	45.12
277.34	42.83
277.557	45.09
277.773	52.95
277.989	42.83
278.205	31.1
278.422	35.29
278.638	34.17
278.854	42.29
279.07	37.34
279.286	48.53
279.503	31.06
279.719	40.49
279.935	35.2
280.151	38.92
280.367	34.81
280.583	44.14
280.799	36.55
281.016	38.46
281.232	22.28
281.448	32.89
281.664	26.33
281.88	30.87
282.096	14.92
282.312	23.31
282.528	13.34
282.744	-0.11
282.96	-12.64
283.176	6.86
283.392	20.8
283.608	45.31
283.824	46.33
284.04	41.66
284.256	43.38
284.471	42.08
284.687	18.73
284.903	25.24
285.119	34.58
285.335	24.91
285.551	11.92
285.767	26.26
285.982	3.18
286.198	-2.11
286.414	-11.12
286.63	3.97
286.846	-1.35
287.061	4.53
287.277	9.44
287.493	1.99
287.709	-10.48
287.924	-3.44
288.14	9.33
288.356	26.92
288.571	40.19
288.787	38.58
289.003	34.37
289.218	28.86
289.434	-5.8
289.65	0.81
289.865	1.93
290.081	9.7
290.296	-7.07
290.512	-8.82
290.727	-6.6
290.943	-17.93
291.159	-24.8
291.374	4.21
291.59	19.64
291.805	17.97
292.021	28.77
292.236	35.71
292.451	18.03
292.667	18.44
292.882	6.6
293.098	-2.47
293.313	-7.16
293.529	11.71
293.744	13.95
293.959	33.38
294.175	43.78
294.39	37.78
294.605	37.14
294.821	36.96
295.036	24.46
295.251	11.38
295.467	6.89
295.682	-21.74
295.897	-22.13
296.112	-15.1
296.328	-4.32
296.543	3.13
296.758	24.89
296.973	37.84
297.188	49.98
297.404	37.76
297.619	38.73
297.834	43.66
298.049	37.75
298.264	15.24
298.479	17.79
298.694	3.78
298.909	-5.94
299.125	-8.79
299.34	-12.89
299.555	4.33
299.77	11.11
299.985	24.01
300.2	18.17
300.415	23.52
300.63	-3.97
300.845	14.05
301.06	-8.49
301.275	2.59
301.49	2.85
301.704	18.07
301.919	1.94
302.134	11.65
302.349	30.68
302.564	28.47
302.779	24.99
302.994	20.09
303.209	25.94
303.423	7.97
303.638	-2.5
303.853	0.37
304.068	15.03
304.283	5.95
304.497	0.93
304.712	14.25
304.927	11.98
305.142	15.31
305.356	7.29
305.571	15.87
305.786	28.27
306	2.9
306.215	-6.38
306.43	5.24
306.644	20.44
306.859	14.11
307.074	46.74
307.288	46.77
307.503	34.89
307.717	18.62
307.932	14.04
308.147	14.07
308.361	15.45
308.576	12.01
308.79	13.26
309.005	3.34
309.219	-11.68
309.434	-12.88
309.648	-4.72
309.863	-12.32
310.077	7.47
310.292	21.51
310.506	11.2
310.72	13.46
310.935	3.66
311.149	2.12
311.364	-14.95
311.578	20.6
311.792	19.39
312.007	26.63
312.221	21.99
312.435	8.25
312.649	7.91
312.864	2.96
313.078	-4.04
313.292	-4.18
313.507	11.19
313.721	20.7
313.935	23.61
314.149	28.27
314.363	19.94
314.578	26.43
314.792	22.92
315.006	17.44
315.22	21.51
315.434	34.37
315.648	32.48
315.862	16.74
316.077	25.04
316.291	28.77
316.505	16.4
316.719	5.94
316.933	17.76
317.147	4.1
317.361	-6.62
317.575	-22.56
317.789	-24.52
318.003	-46.38
318.217	-10.48
318.431	-24.43
318.645	-15.73
318.859	-11.46
319.073	-1.31
319.287	-13.88
319.5	-3.51
319.714	3.43
319.928	7.03
320.142	11.22
320.356	12.08
320.57	19.31
320.784	20.23
320.997	27.44
321.211	24.26
321.425	10.25
321.639	-3.59
321.853	-6.43
322.066	-2.95
322.28	-11.68
322.494	-4.35
322.707	-0.06
322.921	2.52
323.135	-12.37
323.349	6.63
323.562	10.42
323.776	14.8
323.989	-0.38
324.203	5.06
324.417	-5.49
324.63	11.15
324.844	11.63
325.057	23.77
325.271	22.2
325.485	25.98
325.698	37.24
325.912	35.38
326.125	37.37
326.339	36.37
326.552	34.42
326.766	24.99
326.979	33.22
327.193	27.24
327.406	20.07
327.619	22.77
327.833	0.81
328.046	-1.33
328.26	1.2
328.473	-12.46
328.686	-9.95
328.9	3.44
329.113	1.97
329.326	-26.39
329.54	6.25
329.753	-13.42
329.966	-4.9
330.179	-29.29
330.393	12.01
330.606	-9.74
330.819	-3.36
331.032	-18.54
331.246	6.4
331.459	4.07
331.672	14.63
331.885	7.94
332.098	28.17
332.311	30.77
332.525	14.87
332.738	8.79
332.951	15.43
333.164	-1.93
333.377	-20.1
333.59	-0.85
333.803	5.33
334.016	6.28
334.229	10.22
334.442	25.17
334.655	33.43
334.868	34.28
335.081	30.19
335.294	28.49
335.507	26.31
335.72	19.73
335.933	5.66
336.146	12.22
336.359	14.41
336.572	21.5
336.785	-7.8
336.997	10.93
337.21	24.05
337.423	42.82
337.636	18.31
337.849	36.29
338.062	37.14
338.274	29.82
338.487	27.31
338.7	24.71
338.913	30.88
339.125	17.2
339.338	-2.44
339.551	-9.74
339.763	-8.64
339.976	-9.05
340.189	-5.28
340.402	-3.1
340.614	-5.56
340.827	3.72
341.039	-3.18
341.252	-6.72
341.465	-2.66
341.677	-8.07
341.89	-27.48
342.102	-5.93
342.315	15.65
342.527	21.12
342.74	34.39
342.952	32.22
343.165	27.02
343.377	26.73
343.59	21.84
343.802	15.17
344.015	31.69
344.227	45.94
344.44	35.09
344.652	29.16
344.864	11.74
345.077	8.71
345.289	0.39
345.502	-1.03
345.714	10.58
345.926	13.54
346.139	6.65
346.351	13.81
346.563	13.46
346.775	5.22
346.988	8.86
347.2	18.79
347.412	16.59
347.624	19.86
347.837	16.89
348.049	14.06
348.261	6.58
348.473	13.14
348.685	16.59
348.897	25.03
349.11	19.88
349.322	20.92
349.534	14.96
349.746	20.83
349.958	13.86
350.17	23.59
350.382	19.06
350.594	-5.14
350.806	-7.73
351.018	-3.93
351.23	-14.9
351.442	-13.63
351.654	22.38
351.866	18.87
352.078	29.85
352.29	27.21
352.502	24.95
352.714	20.14
352.926	17.54
353.138	19.88
353.35	17.62
353.561	13.28
353.773	14.6
353.985	-2.66
354.197	-20.01
354.409	-1
354.621	10.05
354.832	15.39
355.044	24.96
355.256	28.91
355.468	24.84
355.679	23.19
355.891	24.19
356.103	36.21
356.314	44.61
356.526	43.06
356.738	40.49
356.949	32.3
357.161	30.66
357.373	21.99
357.584	18.69
357.796	19.55
358.008	22.31
358.219	20.3
358.431	15.69
358.642	22.19
358.854	24.26
359.065	14.73
359.277	12.2
359.488	16.79
359.7	16.66
359.911	20.25
360.123	25.73
360.334	23.82
360.546	14.39
360.757	9.69
360.969	1.69
361.18	-4.28
361.391	-4.61
361.603	8
361.814	8.69
362.025	18.05
362.237	23.01
362.448	22.18
362.659	19
362.871	23.69
363.082	6.55
363.293	13.32
363.504	-9.5
363.716	-4.56
363.927	-23.04
364.138	1.21
364.349	-4.66
364.56	5.21
364.772	4.5
364.983	9.71
365.194	-1.42
365.405	1.7
365.616	14.46
365.827	18.38
366.038	21.96
366.25	16.72
366.461	20.99
366.672	14.11
366.883	15.76
367.094	10.63
367.305	4.64
367.516	0.68
367.727	17.86
367.938	16.66
368.149	20.49
368.36	27.89
368.571	11.86
368.781	6.21
368.992	-13.8
369.203	-22.6
369.414	-18.76
369.625	-10.08
369.836	-11.08
370.047	3.46
370.258	12.3
370.468	15.62
370.679	7.65
370.89	-2.67
371.101	-7.19
371.312	0.52
371.522	-5.51
371.733	14.15
371.944	18.48
372.155	18.12
372.365	3.53
372.576	9.17
372.787	2.4
372.997	9.52
373.208	22.52
373.419	29.13
373.629	29.38
373.84	23.22
374.05	16.17
374.261	8.72
374.472	5.81
374.682	4.58
374.893	12.34
375.103	8.57
375.314	10.95
375.524	10.61
375.735	10.21
375.945	12.78
376.156	29.18
376.366	27.49
376.577	29.94
376.787	23.35
376.997	26.41
377.208	20.22
377.418	15.76
377.629	13.59
377.839	29.3
378.049	19.9
378.26	17.14
378.47	19.69
378.68	23.45
378.89	11.02
379.101	6.27
379.311	-1.01
379.521	-2.34
379.732	3.08
379.942	15.41
380.152	14.09
380.362	26.84
380.572	23.28
380.783	11.88
380.993	1.92
381.203	0.53
381.413	-14.43
381.623	-7.85
381.833	0.95
382.043	8.54
382.253	13.27
382.463	13.03
382.674	24.24
382.884	11.06
383.094	6.67
383.304	8.32
383.514	15.07
383.724	5.85
383.934	8.11
384.144	1.29
384.353	-2.85
384.563	0.83
384.773	3.53
384.983	4.44
385.193	11.21
385.403	14.59
385.613	13.32
385.823	10.76
386.033	10.58
386.242	15.88
386.452	11.84
386.662	12.56
386.872	13.94
387.082	12.82
387.291	4.38
387.501	6.75
387.711	3.15
387.921	1.88
388.13	4.88
388.34	4.87
388.55	7.43
388.759	7.65
388.969	7.85
389.179	8.09
389.388	8.58
389.598	5.84
389.807	5.02
390.017	2.44
390.227	2.43
390.436	2.56
390.646	1.55
390.855	2.14
391.065	1.18
391.274	0.27
391.484	0.85
391.693	2.32
391.903	1.43
392.112	2.58
392.322	2.58
392.531	1.73
392.74	2.79
392.95	4.38
393.159	5.84
393.369	5.63
393.578	5.66
393.787	4.3
393.997	3.72
394.206	4.05
394.415	3.36
394.625	4.09
394.834	3.74
395.043	4.03
395.252	3.46
395.462	4.59
395.671	4.22
395.88	6.04
396.089	6.35
396.298	5.87
396.508	5.87
396.717	5.69
396.926	4.41
397.135	3.79
397.344	4
397.553	3.73
397.762	3.86
397.971	4.22
398.181	4.15
398.39	3.93
398.599	3.78
398.808	3.74
399.017	4
399.226	4.01
399.435	4.18
399.644	4.55
399.853	4.66
400.062	4.73
400.27	4.51
400.479	4.24
400.688	4.08
400.897	4.18
401.106	4.05
401.315	4.53
401.524	4.91
401.733	4.84
401.941	4.92
402.15	4.72
402.359	4.5
402.568	4.24
402.777	4.25
402.985	3.85
403.194	4.06
403.403	4.04
403.612	3.86
403.82	3.78
404.029	3.92
404.238	3.9
404.446	4.01
404.655	4.22
404.864	4.29
405.072	4.44
405.281	4.33
405.489	4.14
405.698	4.16
405.906	4.12
406.115	3.85
406.324	3.67
406.532	3.61
406.741	3.67
406.949	3.72
407.158	3.77
407.366	3.92
407.574	4.05
407.783	3.9
407.991	3.8
408.2	3.84
408.408	3.9
408.617	3.85
408.825	4
409.033	4
409.242	4.04
409.45	3.96
409.658	4.09
409.867	4.01
410.075	3.95
410.283	3.91
410.491	3.91
410.7	3.72
410.908	3.64
411.116	3.72
411.324	3.7
411.533	3.56
411.741	3.48
411.949	3.43
412.157	3.51
412.365	3.64
412.573	3.64
412.781	3.75
412.99	3.87
413.198	3.83
413.406	3.72
413.614	3.87
413.822	3.9
414.03	3.82
414.238	3.77
414.446	3.68
414.654	3.69
414.862	3.68
415.07	3.51
415.278	3.55
415.486	3.54
415.694	3.43
415.902	3.5
416.109	3.74
416.317	3.71
416.525	3.68
416.733	3.62
416.941	3.51
417.149	3.44
417.357	3.51
417.564	3.34
417.772	3.39
417.98	3.41
418.188	3.44
418.395	3.4
418.603	3.57
418.811	3.65
419.019	3.59
419.226	3.5
419.434	3.5
419.642	3.58
419.849	3.41
420.057	3.42
420.265	3.54
420.472	3.33
420.68	3.3
420.887	3.42
421.095	3.41
421.302	3.27
421.51	3.37
421.717	3.35
421.925	3.22
422.132	3.23
422.34	3.31
422.547	3.33
422.755	3.39
422.962	3.39
423.17	3.48
423.377	3.39
423.585	3.37
423.792	3.29
423.999	3.26
424.207	3.18
424.414	3.15
424.621	3.04
424.829	3.15
425.036	3.16
425.243	3.04
425.451	3.1
425.658	3.05
425.865	3.07
426.072	2.97
426.28	3.08
426.487	3.01
426.694	3.09
426.901	2.96
427.108	3.07
427.315	3.02
427.523	2.79
427.73	2.78
427.937	2.72
428.144	2.8
428.351	2.66
428.558	3.15
428.765	3.13
428.972	3.29
429.179	3.13
429.386	3.25
429.593	2.95
429.8	3.07
430.007	2.9
430.214	3
430.421	3.04
430.628	3.07
430.835	3.06
431.042	3.07
431.249	3.08
431.456	3.05
431.662	3.13
431.869	3.07
432.076	3.13
432.283	3.16
432.49	3.15
432.697	3.13
432.903	3.24
433.11	3.44
433.317	3.3
433.524	3.16
433.73	3.12
433.937	2.97
434.144	2.77
434.35	2.87
434.557	2.95
434.764	3.04
434.97	3
435.177	2.97
435.384	2.84
435.59	3.04
435.797	2.91
436.003	3.04
436.21	2.87
436.416	2.9
436.623	2.62
436.829	2.57
437.036	2.48
437.242	2.69
437.449	2.68
437.655	2.87
437.862	3.03
438.068	3.03
438.275	3.06
438.481	3.06
438.687	3.08
438.894	3
439.1	2.94
439.307	2.83
439.513	2.82
439.719	2.87
439.926	2.72
440.132	2.83
440.338	2.88
440.544	2.84
440.751	2.7
440.957	2.9
441.163	2.78
441.369	2.79
441.575	2.79
441.782	2.85
441.988	2.78
442.194	2.91
442.4	2.95
442.606	3.07
442.812	3.11
443.018	3.17
443.224	3.03
443.431	2.95
443.637	2.98
443.843	2.81
444.049	2.8
444.255	2.8
444.461	2.72
444.667	2.6
444.873	2.69
445.079	2.72
445.284	2.75
445.49	2.77
445.696	2.8
445.902	2.8
446.108	2.72
446.314	2.74
446.52	2.86
446.726	2.84
446.931	2.88
447.137	2.91
447.343	2.81
447.549	2.62
447.755	2.64
447.96	2.54
448.166	2.52
448.372	2.62
448.578	2.73
448.783	2.71
448.989	2.84
449.195	2.84
449.4	2.85
449.606	2.84
449.812	2.92
450.017	2.8
450.223	2.83
450.428	2.79
450.634	2.77
450.84	2.71
451.045	2.86
451.251	2.88
451.456	2.91
451.662	2.95
451.867	3.05
452.073	2.91
452.278	2.81
452.483	2.82
452.689	2.76
452.894	2.72
453.1	2.77
453.305	2.8
453.51	2.83
453.716	2.78
453.921	2.76
454.127	2.69
454.332	2.61
454.537	2.65
454.742	2.67
454.948	2.6
455.153	2.65
455.358	2.73
455.563	2.61
455.769	2.66
455.974	2.59
456.179	2.53
456.384	2.47
456.589	2.51
456.795	2.4
457	2.52
457.205	2.49
457.41	2.52
457.615	2.47
457.82	2.52
458.025	2.4
458.23	2.5
458.435	2.5
458.64	2.38
458.845	2.43
459.05	2.45
459.255	2.51
459.46	2.48
459.665	2.63
459.87	2.61
460.075	2.7
460.28	2.64
460.485	2.62
460.69	2.53
460.895	2.56
461.099	2.57
461.304	2.55
461.509	2.55
461.714	2.64
461.919	2.68
462.123	2.74
462.328	2.82
462.533	2.85
462.738	2.83
462.942	2.71
463.147	2.61
463.352	2.49
463.556	2.48
463.761	2.52
463.966	2.5
464.17	2.56
464.375	2.64
464.58	2.73
464.784	2.7
464.989	2.76
465.193	2.72
465.398	2.71
465.602	2.63
465.807	2.53
466.011	2.48
466.216	2.49
466.42	2.53
466.625	2.58
466.829	2.67
467.034	2.74
467.238	2.79
467.443	2.82
467.647	2.72
467.851	2.7
468.056	2.67
468.26	2.64
468.464	2.55
468.669	2.68
468.873	2.67
469.077	2.62
469.282	2.51
469.486	2.52
469.69	2.39
469.894	2.46
470.099	2.49
470.303	2.52
470.507	2.44
470.711	2.6
470.915	2.64
471.119	2.62
471.324	2.59
471.528	2.68
471.732	2.57
471.936	2.6
472.14	2.62
472.344	2.7
472.548	2.7
472.752	2.78
472.956	2.72
473.16	2.78
473.364	2.71
473.568	2.65
473.772	2.56
473.976	2.51
474.18	2.45
474.384	2.42
474.588	2.47
474.792	2.56
474.995	2.49
475.199	2.48
475.403	2.53
475.607	2.48
475.811	2.46
476.015	2.55
476.218	2.56
476.422	2.57
476.626	2.6
476.83	2.52
477.033	2.63
477.237	2.7
477.441	2.76
477.644	2.77
477.848	2.83
478.052	2.71
478.255	2.65
478.459	2.67
478.663	2.7
478.866	2.72
479.07	2.79
479.273	2.83
479.477	2.83
479.681	2.88
479.884	2.9
480.088	2.89
480.291	2.93
480.495	2.93
480.698	2.91
480.901	2.88
481.105	2.86
481.308	2.84
481.512	2.83
481.715	2.76
481.919	2.76
482.122	2.78
482.325	2.82
482.529	2.8
482.732	2.86
482.935	2.91
483.138	2.95
483.342	2.9
483.545	2.99
483.748	3
483.952	3.01
484.155	3
484.358	3.04
484.561	3.08
484.764	3.06
484.967	3.16
485.171	3.22
485.374	3.2
485.577	3.2
485.78	3.31
485.983	3.33
486.186	3.32
486.389	3.36
486.592	3.39
486.795	3.45
486.998	3.55
487.201	3.69
487.404	3.85
487.607	3.88
487.81	3.92
488.013	3.91
488.216	3.98
488.419	3.94
488.622	4.04
488.825	4.11
489.028	4.19
489.231	4.22
489.433	4.36
489.636	4.49
489.839	4.59
490.042	4.71
490.245	4.77
490.447	4.84
490.65	4.95
490.853	5
491.056	5.06
491.258	5.22
491.461	5.39
491.664	5.36
491.866	5.55
492.069	5.71
492.272	5.87
492.474	6.03
492.677	6.28
492.879	6.37
493.082	6.46
493.285	6.69
493.487	6.82
493.69	6.91
493.892	7.09
494.095	7.33
494.297	7.35
494.5	7.52
494.702	7.75
494.905	7.94
495.107	8.06
495.309	8.24
495.512	8.37
495.714	8.48
495.917	8.61
496.119	8.8
496.321	8.97
496.524	9.17
496.726	9.41
496.928	9.62
497.13	9.86
497.333	10.02
497.535	10.15
497.737	10.29
497.939	10.46
498.142	10.54
498.344	10.7
498.546	10.8
498.748	10.97
498.95	11.09
499.152	11.15
499.355	11.25
499.557	11.37
499.759	11.48
499.961	11.61
500.163	11.8
500.365	11.93
500.567	12.06
500.769	12.09
500.971	12.16
501.173	12.19
501.375	12.32
501.577	12.42
501.779	12.49
501.981	12.53
502.183	12.58
502.385	12.58
502.587	12.52
502.788	12.52
502.99	12.56
503.192	12.55
503.394	12.46
503.596	12.55
503.798	12.63
503.999	12.56
504.201	12.59
504.403	12.66
504.605	12.67
504.806	12.55
505.008	12.63
505.21	12.43
505.411	12.3
505.613	12.14
505.815	12.07
506.016	11.89
506.218	11.97
506.42	11.86
506.621	11.79
506.823	11.7
507.024	11.61
507.226	11.5
507.427	11.44
507.629	11.31
507.83	11.18
508.032	11.06
508.233	10.9
508.435	10.85
508.636	10.79
508.838	10.69
509.039	10.62
509.24	10.51
509.442	10.43
509.643	10.25
509.845	10.14
510.046	10.01
510.247	9.93
510.448	9.8
510.65	9.82
510.851	9.75
511.052	9.66
511.254	9.62
511.455	9.55
511.656	9.47
511.857	9.33
512.058	9.25
512.26	9.12
512.461	9.07
512.662	8.92
512.863	8.87
513.064	8.79
513.265	8.69
513.466	8.59
513.667	8.58
513.868	8.54
514.069	8.54
514.27	8.47
514.471	8.39
514.672	8.28
514.873	8.32
515.074	8.22
515.275	8.15
515.476	8.13
515.677	8.02
515.878	7.8
516.079	7.71
516.28	7.67
516.481	7.51
516.682	7.58
516.882	7.57
517.083	7.52
517.284	7.47
517.485	7.49
517.686	7.4
517.886	7.36
518.087	7.33
518.288	7.3
518.488	7.3
518.689	7.24
518.89	7.22
519.091	7.24
519.291	7.19
519.492	7.12
519.692	7.08
519.893	7.11
520.094	7.01
520.294	7.06
520.495	7.05
520.695	7.04
520.896	6.92
521.096	6.86
521.297	6.77
521.497	6.74
521.698	6.65
521.898	6.62
522.099	6.65
522.299	6.61
522.499	6.58
522.7	6.62
522.9	6.61
523.101	6.61
523.301	6.61
523.501	6.58
523.702	6.55
523.902	6.51
524.102	6.48
524.302	6.51
524.503	6.49
524.703	6.47
524.903	6.49
525.103	6.4
525.304	6.3
525.504	6.29
525.704	6.17
525.904	6.14
526.104	6.16
526.304	6.22
526.504	6.18
526.705	6.24
526.905	6.26
527.105	6.32
527.305	6.26
527.505	6.26
527.705	6.23
527.905	6.19
528.105	6.12
528.305	6.11
528.505	6.13
528.705	6.12
528.905	6.09
529.105	6.12
529.304	6.11
529.504	6.11
529.704	6.15
529.904	6.2
530.104	6.15
530.304	6.16
530.503	6.16
530.703	6.03
530.903	5.97
531.103	6
531.303	6.04
531.502	6.03
531.702	6.09
531.902	6.06
532.101	6.03
532.301	6.03
532.501	5.99
532.7	6.02
532.9	6.07
533.1	6.12
533.299	6.1
533.499	6.17
533.698	6.11
533.898	6.07
534.097	6.05
534.297	6.05
534.496	6.02
534.696	6.08
534.895	6.1
535.095	6.09
535.294	6.07
535.494	6.05
535.693	6.06
535.892	6.05
536.092	6.07
536.291	6.05
536.491	6.07
536.69	6.07
536.889	6.11
537.088	6.07
537.288	6.06
537.487	6.07
537.686	6.06
537.886	6.1
538.085	6.13
538.284	6.2
538.483	6.15
538.682	6.12
538.882	6.1
539.081	6.07
539.28	6.07
539.479	6.13
539.678	6.13
539.877	6.09
540.076	6.1
540.275	6.03
540.474	5.99
540.673	5.97
540.872	6.02
541.071	6.01
541.27	6.05
541.469	6.07
541.668	6.03
541.867	6.02
542.066	6.02
542.265	6.07
542.464	6.03
542.663	6.12
542.862	6.16
543.06	6.12
543.259	6.04
543.458	6.02
543.657	6
543.856	5.98
544.054	6.01
544.253	6.03
544.452	6.09
544.651	6.03
544.849	5.96
545.048	5.98
545.247	5.98
545.445	6
545.644	6.03
545.843	6.07
546.041	6.05
546.24	6.05
546.438	6.06
546.637	6.07
546.836	6.08
547.034	6.11
547.233	6.13
547.431	6.08
547.63	6.1
547.828	6.12
548.027	6.14
548.225	6.13
548.423	6.16
548.622	6.18
548.82	6.23
549.019	6.24
549.217	6.23
549.415	6.23
549.614	6.27
549.812	6.19
550.01	6.18
550.209	6.22
550.407	6.23
550.605	6.24
550.803	6.26
551.002	6.25
551.2	6.26
551.398	6.29
551.596	6.31
551.794	6.36
551.993	6.4
552.191	6.37
552.389	6.41
552.587	6.44
552.785	6.44
552.983	6.46
553.181	6.53
553.379	6.57
553.577	6.56
553.775	6.6
553.973	6.65
554.171	6.61
554.369	6.6
554.567	6.62
554.765	6.69
554.963	6.7
555.161	6.86
555.359	6.88
555.557	6.91
555.755	6.85
555.952	6.86
556.15	6.78
556.348	6.85
556.546	6.89
556.744	6.94
556.941	6.93
557.139	6.98
557.337	7.01
557.535	7.02
557.732	7.05
557.93	7.12
558.128	7.13
558.325	7.12
558.523	7.1
558.721	7.08
558.918	7.07
559.116	7.16
559.313	7.17
559.511	7.25
559.708	7.35
559.906	7.44
560.104	7.35
560.301	7.36
560.498	7.38
560.696	7.3
560.893	7.26
561.091	7.32
561.288	7.39
561.486	7.35
561.683	7.4
561.88	7.44
562.078	7.43
562.275	7.37
562.473	7.42
562.67	7.41
562.867	7.43
563.064	7.48
563.262	7.49
563.459	7.52
563.656	7.61
563.853	7.66
564.051	7.66
564.248	7.69
564.445	7.75
564.642	7.73
564.839	7.71
565.036	7.81
565.234	7.81
565.431	7.79
565.628	7.82
565.825	7.82
566.022	7.86
566.219	7.99
566.416	8
566.613	8.05
566.81	8.19
567.007	8.12
567.204	8.1
567.401	8.16
567.598	8.24
567.795	8.18
567.991	8.28
568.188	8.37
568.385	8.34
568.582	8.31
568.779	8.38
568.976	8.4
569.172	8.39
569.369	8.41
569.566	8.52
569.763	8.42
569.96	8.44
570.156	8.42
570.353	8.46
570.55	8.46
570.746	8.66
570.943	8.72
571.14	8.83
571.336	8.88
571.533	8.85
571.729	8.8
571.926	8.83
572.123	8.89
572.319	9.01
572.516	9.12
572.712	9.21
572.909	9.21
573.105	9.21
573.302	9.19
573.498	9.23
573.695	9.24
573.891	9.28
574.087	9.28
574.284	9.31
574.48	9.4
574.677	9.48
574.873	9.59
575.069	9.71
575.266	9.76
575.462	9.76
575.658	9.81
575.854	9.87
576.051	9.9
576.247	9.93
576.443	9.96
576.639	10.08
576.835	10.11
577.032	10.12
577.228	10.2
577.424	10.22
577.62	10.22
577.816	10.18
578.012	10.23
578.208	10.26
578.404	10.3
578.6	10.31
578.796	10.37
578.993	10.48
579.189	10.43
579.384	10.42
579.58	10.4
579.776	10.43
579.972	10.43
580.168	10.52
580.364	10.54
580.56	10.59
580.756	10.61
580.952	10.57
581.148	10.58
581.343	10.66
581.539	10.71
581.735	10.74
581.931	10.88
582.127	10.93
582.322	10.92
582.518	10.87
582.714	10.89
582.909	10.86
583.105	10.88
583.301	10.9
583.496	10.95
583.692	10.96
583.888	10.9
584.083	10.8
584.279	10.79
584.474	10.79
584.67	10.8
584.866	10.81
585.061	10.9
585.257	10.98
585.452	11.01
585.648	11.03
585.843	11.05
586.039	11.15
586.234	11.04
586.429	10.98
586.625	10.91
586.82	10.98
587.015	10.94
587.211	11.04
587.406	11.19
587.601	11.29
587.797	11.28
587.992	11.26
588.187	11.22
588.383	11.17
588.578	11.09
588.773	11.06
588.968	11.12
589.163	11.22
589.359	11.24
589.554	11.26
589.749	11.33
589.944	11.3
590.139	11.37
590.334	11.36
590.529	11.46
590.724	11.44
590.919	11.55
591.114	11.48
591.309	11.54
591.504	11.53
591.699	11.65
591.894	11.58
592.089	11.6
592.284	11.62
592.479	11.63
592.674	11.61
592.869	11.7
593.064	11.84
593.259	11.94
593.454	12.07
593.648	12.03
593.843	12.11
594.038	12.12
594.233	12.06
594.428	12.09
594.622	12.22
594.817	12.16
595.012	12.22
595.206	12.27
595.401	12.37
595.596	12.42
595.79	12.51
595.985	12.57
596.18	12.67
596.374	12.63
596.569	12.6
596.763	12.75
596.958	12.81
597.153	12.83
597.347	12.86
597.542	12.97
597.736	12.95
597.931	12.88
598.125	13.03
598.319	13.1
598.514	13.11
598.708	13.11
598.903	13.18
599.097	13.19
599.291	13.2
599.486	13.26
599.68	13.32
599.874	13.29
600.069	13.33
600.263	13.48
600.457	13.57
600.651	13.6
600.846	13.67
601.04	13.64
601.234	13.53
601.428	13.47
601.622	13.47
601.817	13.47
602.011	13.53
602.205	13.57
602.399	13.67
602.593	13.67
602.787	13.64
602.981	13.56
603.175	13.6
603.369	13.53
603.563	13.55
603.757	13.59
603.951	13.62
604.145	13.5
604.339	13.42
604.533	13.32
604.727	13.29
604.921	13.17
605.115	13.15
605.309	13.14
605.502	13.23
605.696	13.27
605.89	13.32
606.084	13.33
606.278	13.34
606.471	13.22
606.665	13.1
606.859	13.04
607.053	13.03
607.246	12.95
607.44	12.85
607.634	12.84
607.827	12.68
608.021	12.61
608.214	12.52
608.408	12.5
608.602	12.4
608.795	12.46
608.989	12.41
609.182	12.36
609.376	12.32
609.569	12.24
609.763	12.15
609.956	12.08
610.15	12.05
610.343	11.96
610.537	11.99
610.73	11.94
610.923	11.92
611.117	11.82
611.31	11.78
611.504	11.72
611.697	11.68
611.89	11.6
612.083	11.54
612.277	11.53
612.47	11.43
612.663	11.37
612.856	11.19
613.05	11.18
613.243	11.06
613.436	10.99
613.629	10.85
613.822	10.94
614.015	10.92
614.209	10.88
614.402	10.81
614.595	10.88
614.788	10.82
614.981	10.72
615.174	10.69
615.367	10.7
615.56	10.55
615.753	10.43
615.946	10.36
616.139	10.29
616.332	10.25
616.525	10.22
616.718	10.24
616.911	10.25
617.103	10.28
617.296	10.17
617.489	10.12
617.682	10.05
617.875	10
618.067	9.9
618.26	9.91
618.453	9.92
618.646	9.9
618.838	9.82
619.031	9.8
619.224	9.84
619.417	9.83
619.609	9.8
619.802	9.74
619.994	9.69
620.187	9.56
620.38	9.48
620.572	9.41
620.765	9.45
620.957	9.45
621.15	9.47
621.342	9.43
621.535	9.47
621.727	9.45
621.92	9.36
622.112	9.24
622.305	9.23
622.497	9.1
622.69	9.06
622.882	9.06
623.074	9.17
623.267	9.1
623.459	9.18
623.651	9.11
623.844	9.19
624.036	9.14
624.228	9.19
624.42	9.2
624.613	9.25
624.805	9.19
624.997	9.19
625.189	9.14
625.381	9.12
625.574	9.02
625.766	9.03
625.958	9.01
626.15	9.06
626.342	8.99
626.534	9
626.726	8.97
626.918	8.82
627.11	8.72
627.302	8.68
627.494	8.65
627.686	8.68
627.878	8.79
628.07	8.76
628.262	8.76
628.454	8.82
628.646	8.72
628.838	8.7
629.029	8.76
629.221	8.71
629.413	8.67
629.605	8.72
629.797	8.73
629.989	8.74
630.18	8.78
630.372	8.78
630.564	8.76
630.755	8.69
630.947	8.62
631.139	8.6
631.33	8.59
631.522	8.54
631.714	8.51
631.905	8.51
632.097	8.41
632.289	8.33
632.48	8.34
632.672	8.31
632.863	8.28
633.055	8.3
633.246	8.36
633.438	8.36
633.629	8.34
633.821	8.34
634.012	8.36
634.203	8.32
634.395	8.33
634.586	8.46
634.777	8.42
634.969	8.46
635.16	8.46
635.351	8.38
635.543	8.38
635.734	8.48
635.925	8.41
636.117	8.39
636.308	8.47
636.499	8.38
636.69	8.33
636.881	8.39
637.073	8.44
637.264	8.46
637.455	8.46
637.646	8.43
637.837	8.39
638.028	8.32
638.219	8.36
638.41	8.35
638.601	8.43
638.792	8.45
638.983	8.48
639.174	8.4
639.365	8.38
639.556	8.35
639.747	8.41
639.938	8.45
640.129	8.43
640.32	8.47
640.511	8.47
640.701	8.36
640.892	8.29
641.083	8.33
641.274	8.33
641.465	8.31
641.655	8.4
641.846	8.51
642.037	8.45
642.228	8.45
642.418	8.36
642.609	8.3
642.8	8.23
642.99	8.3
643.181	8.25
643.372	8.33
643.562	8.32
643.753	8.34
643.943	8.36
644.134	8.28
644.324	8.31
644.515	8.29
644.705	8.27
644.896	8.18
645.086	8.26
645.277	8.22
645.467	8.22
645.658	8.08
645.848	8.15
646.038	8.1
646.229	8.17
646.419	8.16
646.61	8.26
646.8	8.2
646.99	8.23
647.18	8.09
647.371	8.04
647.561	8
647.751	8
647.941	7.99
648.132	8.03
648.322	8.07
648.512	8.09
648.702	8.09
648.892	7.95
649.082	7.97
649.272	7.89
649.462	7.9
649.653	7.79
649.843	7.85
650.033	7.75
650.223	7.78
650.413	7.81
650.603	7.82
650.793	7.79
650.983	7.81
651.172	7.78
651.362	7.66
651.552	7.62
651.742	7.61
651.932	7.62
652.122	7.57
652.312	7.58
652.502	7.54
652.691	7.53
652.881	7.49
653.071	7.52
653.261	7.46
653.45	7.44
653.64	7.45
653.83	7.36
654.019	7.1
654.209	7.09
654.399	7.01
654.588	6.79
654.778	6.7
654.968	6.72
655.157	6.59
655.347	6.56
655.536	6.59
655.726	6.52
655.915	6.59
656.105	6.5
656.294	6.39
656.484	6.28
656.673	6.25
656.863	6.07
657.052	6.04
657.241	5.99
657.431	5.93
657.62	5.83
657.809	5.62
657.999	5.53
658.188	5.49
658.377	5.45
658.567	5.33
658.756	5.35
658.945	5.29
659.134	5.18
659.324	5.15
659.513	5.17
659.702	5.09
659.891	4.99
660.08	4.83
660.269	4.67
660.458	4.58
660.648	4.62
660.837	4.59
661.026	4.59
661.215	4.48
661.404	4.37
661.593	4.21
661.782	4.13
661.971	4.09
662.16	4.2
662.349	4.18
662.538	4.11
662.726	4.15
662.915	4.13
663.104	4.03
663.293	3.96
663.482	4
663.671	3.91
663.86	3.9
664.048	3.84
664.237	3.83
664.426	3.71
664.615	3.66
664.803	3.5
664.992	3.47
665.181	3.52
665.369	3.51
665.558	3.52
665.747	3.62
665.935	3.66
666.124	3.64
666.312	3.63
666.501	3.59
666.69	3.58
666.878	3.53
667.067	3.47
667.255	3.47
667.444	3.53
667.632	3.6
667.82	3.61
668.009	3.68
668.197	3.74
668.386	3.77
668.574	3.72
668.762	3.72
668.951	3.72
669.139	3.81
669.327	3.8
669.516	3.96
669.704	4
669.892	4.08
670.08	4.04
670.269	4.01
670.457	3.87
670.645	3.96
670.833	3.91
671.021	3.97
671.21	3.98
671.398	4.03
671.586	4
671.774	4.08
671.962	4.11
672.15	4.3
672.338	4.42
672.526	4.54
672.714	4.59
672.902	4.62
673.09	4.65
673.278	4.59
673.466	4.55
673.654	4.6
673.842	4.71
674.03	4.66
674.218	4.7
674.405	4.87
674.593	4.9
674.781	4.88
674.969	4.85
675.157	4.88
675.344	4.84
675.532	4.82
675.72	4.91
675.908	5.06
676.095	5.12
676.283	5.24
676.471	5.3
676.658	5.32
676.846	5.37
677.033	5.5
677.221	5.55
677.409	5.66
677.596	5.69
677.784	5.78
677.971	5.77
678.159	5.82
678.346	5.75
678.534	5.79
678.721	5.84
678.909	5.88
679.096	5.81
679.283	5.99
679.471	6.03
679.658	5.95
679.846	6.05
680.033	6.14
680.22	6.12
680.408	6.06
680.595	6.27
680.782	6.22
680.969	6.33
681.157	6.38
681.344	6.39
681.531	6.25
681.718	6.36
681.905	6.33
682.093	6.32
682.28	6.48
682.467	6.73
682.654	6.8
682.841	6.75
683.028	6.72
683.215	6.8
683.402	6.68
683.589	6.69
683.776	6.96
683.963	6.98
684.15	6.95
684.337	7.16
684.524	7.22
684.711	7.31
684.898	7.56
685.085	7.78
685.271	7.82
685.458	7.81
685.645	7.7
685.832	7.76
686.019	7.8
686.205	7.87
686.392	8.01
686.579	8.07
686.766	8.16
686.952	8.05
687.139	8.15
687.326	8.4
687.512	8.5
687.699	8.5
687.886	8.76
688.072	8.78
688.259	8.89
688.445	9.16
688.632	9.53
688.818	9.73
689.005	10.04
689.191	10.15
689.378	10.29
689.564	10.56
689.751	10.88
689.937	11.1
690.124	11.39
690.31	11.66
690.496	11.88
690.683	12.26
690.869	12.55
691.055	12.57
691.242	12.95
691.428	13.31
691.614	13.35
691.8	13.46
691.987	13.99
692.173	14.28
692.359	14.55
692.545	14.97
692.731	15.55
692.918	15.96
693.104	16.22
693.29	16.5
693.476	16.94
693.662	17.42
693.848	17.73
694.034	18.16
694.22	18.6
694.406	18.96
694.592	19.12
694.778	19.57
694.964	20.07
695.15	20.65
695.336	21.02
695.522	21.92
695.708	22.53
695.894	23.13
696.08	23.57
696.265	24.3
696.451	24.65
696.637	25.36
696.823	25.85
697.009	26.66
697.194	27.21
697.38	27.69
697.566	28.25
697.751	29
697.937	29.3
698.123	29.9
698.308	30.45
698.494	30.9
698.68	31.41
698.865	31.94
699.051	32.42
699.236	33.21
699.422	33.88
699.607	34.58
699.793	35.36
699.978	36.12
700.164	36.56
700.349	37.21
700.535	37.64
700.72	38.08
700.906	38.54
701.091	39.16
701.276	39.55
701.462	40.3
701.647	41.12
701.832	41.97
702.018	42.71
702.203	43.17
702.388	43.51
702.573	43.85
702.759	44.13
702.944	44.59
703.129	45.3
703.314	46.2
703.499	46.75
703.684	47.6
703.87	48.14
704.055	48.77
704.24	48.84
704.425	49.52
704.61	49.86
704.795	50.4
704.98	51.08
705.165	51.89
705.35	52.78
705.535	53.39
705.72	54
705.905	54.58
706.09	55.22
706.275	55.58
706.459	56.4
706.644	56.9
706.829	57.5
707.014	58.18
707.199	58.6
707.384	58.66
707.568	59.34
707.753	59.15
707.938	59.13
708.123	59.62
708.307	60.28
708.492	60.99
708.677	61.73
708.861	63.07
709.046	63.56
709.231	63.9
709.415	63.86
709.6	64.04
709.784	64.02
709.969	64.26
710.153	64.59
710.338	65.06
710.522	66.1
710.707	66.06
710.891	66.59
711.076	67.31
711.26	67.75
711.445	67.84
711.629	68.2
711.813	68.53
711.998	68.87
712.182	69.02
712.366	69.62
712.551	70
712.735	70.29
712.919	70.49
713.103	70.59
713.288	70.52
713.472	71.01
713.656	71.11
713.84	71.3
714.024	71.65
714.208	72.25
714.393	72.55
714.577	73.02
714.761	73.13
714.945	73.45
715.129	73.37
715.313	73.3
715.497	73.72
715.681	73.92
715.865	74.48
716.049	74.96
716.233	75.78
716.417	75.94
716.601	76.83
716.785	77.09
716.968	77.18
717.152	77.08
717.336	77.35
717.52	77.18
717.704	77.31
717.888	78.2
718.071	78.38
718.255	78.28
718.439	78.6
718.622	78.97
718.806	78.22
718.99	78.78
719.174	78.94
719.357	78.7
719.541	78.72
719.724	79.28
719.908	79.26
720.092	79.44
720.275	80.05
720.459	80.29
720.642	80.86
720.826	81.48
721.009	82.49
721.193	82.83
721.376	83.47
721.559	83.42
721.743	82.85
721.926	82.61
722.11	82.56
722.293	82.08
722.476	82.28
722.66	83.04
722.843	83.06
723.026	83.08
723.21	83.53
723.393	83.18
723.576	82.97
723.759	82.95
723.942	83.45
724.126	83.93
724.309	84.89
724.492	85.72
724.675	85.7
724.858	85.74
725.041	85.5
725.224	85.28
725.407	84.95
725.59	85.58
725.774	85.6
725.957	86.14
726.14	86.39
726.322	86.5
726.505	86.73
726.688	86.99
726.871	86.47
727.054	87.34
727.237	87.59
727.42	87.63
727.603	87.87
727.786	88.09
727.968	87.69
728.151	87.93
728.334	87.91
728.517	87.87
728.699	88.24
728.882	88.07
729.065	88
729.248	88.24
729.43	88.74
729.613	89.66
729.796	90.07
729.978	91.27
730.161	91.23
730.343	91.11
730.526	91.03
730.708	91.1
730.891	90.35
731.073	90.69
731.256	91.5
731.438	91.34
731.621	91.84
731.803	92.09
731.986	92.71
732.168	91.9
732.35	92.12
732.533	91.66
732.715	91.88
732.898	92
733.08	92.9
733.262	93.13
733.444	93.99
733.627	93.88
733.809	93.26
733.991	92.77
734.173	92.95
734.355	92.91
734.538	92.93
734.72	93.81
734.902	94.3
735.084	94.21
735.266	93.53
735.448	93.57
735.63	93.79
735.812	93.88
735.994	93.56
736.176	94.12
736.358	95.65
736.54	95.07
736.722	95.66
736.904	96.47
737.086	97.32
737.268	96.63
737.45	96.66
737.632	96.34
737.814	95.39
737.995	94.83
738.177	93.97
738.359	94.72
738.541	94.36
738.723	94.88
738.904	94.88
739.086	94.97
739.268	94.99
739.449	95.03
739.631	95.33
739.813	94.54
739.994	96.03
740.176	95.92
740.358	96.35
740.539	95.59
740.721	96.26
740.902	94.85
741.084	95.19
741.265	95.37
741.447	95.53
741.628	95.77
741.81	95.81
741.991	95.62
742.172	95.67
742.354	97.15
742.535	97.85
742.717	98.91
742.898	98.38
743.079	97.51
743.261	95.58
743.442	94.35
743.623	93.32
743.804	93.08
743.986	93.79
744.167	94.44
744.348	94.31
744.529	94.79
744.71	95.62
744.891	96.26
745.073	96.52
745.254	98.05
745.435	98.01
745.616	97.52
745.797	96.31
745.978	96.44
746.159	96.51
746.34	97.27
746.521	96.51
746.702	96.55
746.883	96.83
747.064	95.13
747.245	95.74
747.426	95.8
747.606	94.58
747.787	94.99
747.968	95.02
748.149	93.66
748.33	94.48
748.51	96.29
748.691	95.37
748.872	96.59
749.053	97.57
749.233	97.48
749.414	95.97
749.595	96.86
749.775	96.97
749.956	96.6
750.137	97.06
750.317	97.9
750.498	98.23
750.678	97.97
750.859	98.1
751.04	98.05
751.22	97.2
751.4	96.35
751.581	96.42
751.761	96.57
751.942	96.06
752.122	97.63
752.303	95.93
752.483	95.52
752.663	94.75
752.844	94.55
753.024	93.25
753.204	93.97
753.385	93
753.565	93.61
753.745	93.22
753.925	93.12
754.106	95.4
754.286	96.31
754.466	95.09
754.646	96.73
754.826	97.08
755.006	95.58
755.187	96.04
755.367	96.27
755.547	94.93
755.727	94.49
755.907	93.04
756.087	93.31
756.267	92.72
756.447	93.11
756.627	93.22
756.807	94.32
756.987	93.28
757.167	93.05
757.346	93.94
757.526	94.71
757.706	93.75
757.886	93.41
758.066	94.19
758.246	93.53
758.425	93.96
758.605	96.59
758.785	98.62
758.965	99.79
759.144	100.82
759.324	101.15
759.504	100.33
759.683	98.04
759.863	96.41
760.043	96.42
760.222	95.12
760.402	93.91
760.581	96.66
760.761	96.64
760.94	94.9
761.12	95.27
761.299	95.53
761.479	93.74
761.658	93.46
761.838	94.21
762.017	95.7
762.197	94.42
762.376	93.65
762.555	94.01
762.735	93.66
762.914	91.31
763.093	92.87
763.273	93.15
763.452	91.59
763.631	90.93
763.81	91.08
763.99	92.73
764.169	94.17
764.348	96.74
764.527	96.59
764.706	96.35
764.885	94.39
765.064	94.95
765.243	94.07
765.423	94.32
765.602	94.25
765.781	94.99
765.96	92.34
766.139	92.66
766.318	92.18
766.497	94.74
766.676	95.06
766.854	96.42
767.033	96.28
767.212	95.76
767.391	92.74
767.57	91.69
767.749	90.13
767.928	90.21
768.106	92.8
768.285	93.08
768.464	92.22
768.643	93.8
768.821	93.84
769	92.65
769.179	94.12
769.357	93.79
769.536	92.36
769.715	92.23
769.893	93.72
770.072	92.15
770.25	93.36
770.429	94.78
770.607	94.25
770.786	93.95
770.964	94.07
771.143	93.01
771.321	92.14
771.5	93.23
771.678	91.59
771.857	92.18
772.035	94.76
772.213	95.19
772.392	93.81
772.57	94.35
772.748	95.23
772.927	93.19
773.105	91.6
773.283	90.74
773.461	90.7
773.64	88.67
773.818	88.99
773.996	87.56
774.174	88.41
774.352	86.59
774.531	87.82
774.709	87.87
774.887	91.36
775.065	90.1
775.243	91.87
775.421	92.19
775.599	89.85
775.777	88.89
775.955	89.64
776.133	89.9
776.311	92.18
776.489	94.53
776.667	94.74
776.844	94.75
777.022	95.29
777.2	91.88
777.378	90.24
777.556	91.3
777.734	88.84
777.911	85.57
778.089	84.93
778.267	83.86
778.445	82.49
778.622	83.97
778.8	88.94
778.978	89.58
779.155	90.68
779.333	88.87
779.511	87.75
779.688	83.9
779.866	82.56
780.043	85.45
780.221	87.27
780.398	88.77
780.576	91.61
780.753	91.77
780.931	86.87
781.108	87.6
781.286	88.33
781.463	86.25
781.64	88.54
781.818	90.36
781.995	89.24
782.172	90.07
782.35	91.72
782.527	92.51
782.704	92.78
782.882	92.69
783.059	88.97
783.236	87.49
783.413	86.04
783.59	83.92
783.768	83.81
783.945	87.56
784.122	88.39
784.299	87.72
784.476	89.58
784.653	90.05
784.83	87.15
785.007	85.42
785.184	85.6
785.361	84.04
785.538	81.16
785.715	82.25
785.892	82.48
786.069	81.84
786.246	84.07
786.423	90.76
786.6	93.18
786.776	93.91
786.953	95.51
787.13	93.41
787.307	91.05
787.484	89.99
787.66	89.27
787.837	89.69
788.014	91.16
788.191	89.06
788.367	92.06
788.544	95.39
788.721	94.68
788.897	94.38
789.074	94.19
789.25	86.48
789.427	81.68
789.603	79.29
789.78	76.66
789.956	76.16
790.133	81.36
790.309	84.04
790.486	84.84
790.662	88.35
790.839	91.3
791.015	87.77
791.192	87.27
791.368	88.9
791.544	88.87
791.721	86.5
791.897	87.72
792.073	86.76
792.249	85.28
792.426	86.93
792.602	86.34
792.778	86.06
792.954	85.21
793.13	84.46
793.307	81.36
793.483	79.26
793.659	81.28
793.835	79.88
794.011	82.84
794.187	83.7
794.363	85.37
794.539	81.89
794.715	83
794.891	84.08
795.067	81
795.243	80.72
795.419	82.8
795.595	85.86
795.771	84.71
795.947	84.48
796.122	86.13
796.298	83.81
796.474	81.4
796.65	77.55
796.826	80.07
797.001	80.28
797.177	81.42
797.353	79.52
797.529	84.98
797.704	84.44
797.88	82.35
798.056	82.11
798.231	86.06
798.407	80.1
798.582	82.05
798.758	83.44
798.934	86.45
799.109	80.98
799.285	81.63
799.46	86.13
799.636	86.62
799.811	80.74
799.986	84.08
800.162	86.8
800.337	79.92
800.513	77.22
800.688	78.72
800.863	77.76
801.039	79.12
801.214	83.87
801.389	87.53
801.565	87.67
801.74	91.86
801.915	90.32
802.09	87.75
802.265	88.93
802.441	87.68
802.616	79.21
802.791	76.31
802.966	78.59
803.141	72.92
803.316	72.31
803.491	76.12
803.666	81.37
803.841	77.3
804.016	78.99
804.191	85.45
804.366	94.91
804.541	86.96
804.716	82.93
804.891	85.73
805.066	87.07
805.241	77.12
805.416	78.91
805.591	76.07
805.765	74.52
805.94	72.31
806.115	71.42
806.29	73.68
806.464	79.57
806.639	75.21
806.814	74.63
806.989	76.68
807.163	74.03
807.338	71.14
807.512	75.56
807.687	78.45
807.862	74.68
808.036	76.15
808.211	78.06
808.385	76.12
808.56	74.76
808.734	76.2
808.909	78.32
809.083	78.52
809.258	79.81
809.432	78.48
809.606	79.33
809.781	73.07
809.955	68.34
810.13	68.25
810.304	62.74
810.478	61.16
810.652	64.95
810.827	67.16
811.001	62.65
811.175	75.6
811.349	79.01
811.524	75.76
811.698	72.12
811.872	76.13
812.046	63.82
812.22	55.2
812.394	59.86
812.568	65.66
812.742	65.88
812.916	75.75
813.09	82.84
813.264	86.4
813.438	92.01
813.612	89.63
813.786	83.18
813.96	84.18
814.134	75.59
814.308	72.08
814.482	75.47
814.656	72.49
814.83	68.24
815.003	68.9
815.177	64.06
815.351	56.89
815.525	63.53
815.698	71.75
815.872	76.31
816.046	72.32
816.219	74.26
816.393	82.03
816.567	83.97
816.74	74.15
816.914	69.53
817.088	72.66
817.261	69.55
817.435	72.66
817.608	79.31
817.782	80.99
817.955	89.4
818.129	83.27
818.302	76.71
818.475	68.71
818.649	81.16
818.822	78.55
818.996	76.97
819.169	73.93
819.342	77.33
819.516	69.57
819.689	62.45
819.862	72.68
820.035	66.21
820.209	67.99
820.382	73.02
820.555	80.15
820.728	79.95
820.901	80.67
821.075	77.16
821.248	82.31
821.421	72.08
821.594	64.79
821.767	70.71
821.94	67.99
822.113	59.09
822.286	58.72
822.459	62.59
822.632	60.58
822.805	60.23
822.978	62.97
823.151	65.94
823.324	69.21
823.496	72.8
823.669	69.52
823.842	71.91
824.015	69.11
824.188	57.27
824.361	58.45
824.533	64.98
824.706	53.25
824.879	48.42
825.051	50.8
825.224	41.03
825.397	39.46
825.569	46.41
825.742	51.72
825.915	56.47
826.087	66.25
826.26	67.24
826.432	74.39
826.605	64
826.777	52.99
826.95	44.51
827.122	47.14
827.295	29.27
827.467	40.57
827.64	30.87
827.812	36.87
827.984	39.78
828.157	40.07
828.329	48.55
828.501	62.5
828.674	61.95
828.846	60.81
829.018	72.87
829.19	66.34
829.363	60.81
829.535	59.1
829.707	48.09
829.879	45.82
830.051	36.53
830.223	42.62
830.395	21.85
830.568	20.52
830.74	28.21
830.912	35.67
831.084	43.97
831.256	48.25
831.428	61.86
831.6	66.26
831.772	82
831.943	79.46
832.115	92.25
832.287	84.26
832.459	76.86
832.631	63.88
832.803	70.86
832.975	75.64
833.146	75.27
833.318	73.56
833.49	77.45
833.662	79.79
833.833	66.41
834.005	77.22
834.177	74.59
834.348	65.69
834.52	57.68
834.692	57.89
834.863	58.7
835.035	64.58
835.206	63.01
835.378	48.85
835.549	58.89
835.721	54.53
835.892	65.7
836.064	70.4
836.235	84.96
836.407	67.78
836.578	57.47
836.749	51.12
836.921	55.66
837.092	49.67
837.264	52.34
837.435	63.66
837.606	56.1
837.777	56.31
837.949	66.33
838.12	59.23
838.291	46.76
838.462	53.77
838.633	36.43
838.805	30.94
838.976	49.73
839.147	61.41
839.318	58.56
839.489	60.12
839.66	76.81
839.831	93.48
840.002	92.18
840.173	69.93
840.344	85.79
840.515	63.94
840.686	59.51
840.857	52.61
841.028	81.68
841.199	68.06
841.369	62.08
841.54	57.28
841.711	62.08
841.882	58.12
842.053	55.99
842.223	57.55
842.394	57.62
842.565	54.86
842.736	16.4
842.906	14.92
843.077	43.46
843.248	72.36
843.418	26.25
843.589	38.38
843.759	39.38
843.93	51.57
844.101	54.97
844.271	73.04
844.442	101.89
844.612	103.77
844.783	70.45
844.953	50.53
845.123	45.98
845.294	44.05
845.464	38.91
845.635	68.53
845.805	81
845.975	80.07
846.146	68.36
846.316	77.16
846.486	73.88
846.656	58.7
846.827	70.84
846.997	77.18
847.167	56.94
847.337	52.02
847.507	69.42
847.677	75.58
847.848	62.31
848.018	89.8
848.188	90.4
848.358	116.28
848.528	135.04
848.698	157.31
848.868	143.74
849.038	165.16
849.208	94.09
849.378	62.59
849.548	52.1
849.718	47.15
849.887	43.97
850.057	57.72
850.227	79.37
850.397	69.54
850.567	52.7
850.737	40.35
850.906	23.46
851.076	13
851.246	14.9
851.415	26.9
851.585	35.01
851.755	32.75
851.924	40.55
852.094	47.77
852.264	31.7
852.433	22.87
852.603	39.02
852.772	37.15
852.942	37.94
853.111	64.36
853.281	66.84
853.45	51.43
853.62	26.87
853.789	6.87
853.959	2.61
854.128	15.68
854.297	32.12
854.467	79.03
854.636	121.89
854.805	112.08
854.975	119.94
855.144	86.75
855.313	81.46
855.482	77.09
855.652	68.44
855.821	73.45
855.99	58.12
856.159	52.6
856.328	47.31
856.497	26.98
856.667	27.39
856.836	64.03
857.005	53.72
857.174	37.85
857.343	23.93
857.512	53.4
857.681	13.14
857.85	10.21
858.019	4.89
858.188	14.97
858.356	1.25
858.525	11.58
858.694	13.97
858.863	39.22
859.032	49.81
859.201	53.92
859.369	74.82
859.538	81.64
859.707	61.02
859.876	50.61
860.044	54.78
860.213	31.32
860.382	30.72
860.55	45.63
860.719	75.5
860.888	81.2
861.056	87.87
861.225	88.63
861.393	79.88
861.562	67.05
861.73	71.71
861.899	67.73
862.067	64.48
862.236	54.69
862.404	43.82
862.572	28.5
862.741	33.18
862.909	32.12
863.078	29.65
863.246	40.27
863.414	44.26
863.582	55.59
863.751	43.43
863.919	48.28
864.087	51.82
864.255	45.88
864.424	30.72
864.592	28.89
864.76	47.32
864.928	39.27
865.096	38.92
865.264	53.01
865.432	46.07
865.6	39.19
865.768	38.64
865.936	54.15
866.104	34.17
866.272	45.49
866.44	54.26
866.608	55.79
866.776	73.27
866.944	104.55
867.112	119.41
867.28	109.61
867.448	90.89
867.615	76.4
867.783	68.84
867.951	59.89
868.119	73.73
868.286	88.81
868.454	89.5
868.622	84.91
868.789	90.07
868.957	70.64
869.125	62.17
869.292	42.5
869.46	30.86
869.627	28.04
869.795	20.34
869.963	23.26
870.13	4.53
870.298	8.48
870.465	30.93
870.632	40.18
870.8	19.23
870.967	55.75
871.135	75.66
871.302	30.87
871.469	40.97
871.637	67.35
871.804	43.48
871.971	38.49
872.139	59.23
872.306	71.75
872.473	81.05
872.64	104.57
872.807	123.73
872.975	95.39
873.142	99.51
873.309	54.52
873.476	38.9
873.643	-0.72
873.81	17.69
873.977	6.67
874.144	26.52
874.311	10.34
874.478	3.09
874.645	8
874.812	16.23
874.979	11.51
875.146	8.14
875.313	8.74
875.48	13.82
875.647	-14.6
875.813	-39.4
875.98	-11.88
876.147	17.75
876.314	7.89
876.481	41.27
876.647	55.46
876.814	71.75
876.981	72.67
877.147	82.45
877.314	51.98
877.481	52.7
877.647	11.12
877.814	-3.08
877.98	-9.05
878.147	-24.7
878.314	-60.43
878.48	9.1
878.647	28.44
878.813	23.97
878.979	16.65
879.146	29.68
879.312	0.94
879.479	43.73
879.645	62.49
879.811	82.07
879.978	50.52
880.144	70.29
880.31	53.2
880.477	47.98
880.643	38.68
880.809	31.72
880.975	-22.27
881.142	-78.12
881.308	-66.67
881.474	-83.9
881.64	-99.21
881.806	-120
881.972	87.81
882.138	169.64
882.304	51.33
882.47	30.86
882.636	33.21
882.802	8.92
882.968	-6.97
883.134	12.19
883.3	36.34
883.466	43.68
883.632	89.79
883.798	79.34
883.964	132.58
884.129	160.36
884.295	49.89
884.461	13.62
884.627	-23.41
884.793	9.84
884.958	5.97
885.124	6.4
885.29	-8.09
885.455	9.95
885.621	4.41
885.787	10.5
885.952	24.84
886.118	32.67
886.283	28.08
886.449	27.39
886.614	34.01
886.78	50.08
886.945	71.84
887.111	81.82
887.276	74.84
887.442	76.24
887.607	51.06
887.773	3.1
887.938	-18.94
888.103	-14.1
888.269	37.47
888.434	41.22
888.599	19.13
888.764	13.42
888.93	18.27
889.095	-8.05
889.26	-7.83
889.425	43.86
889.59	68.16
889.756	57.06
889.921	30.72
890.086	27.16
890.251	15.32
890.416	-17.33
890.581	-71.93
890.746	-16.54
890.911	11.59
891.076	14.19
891.241	29.68
891.406	78.64
891.571	46.3
891.736	-10.61
891.901	-18.24
892.065	5.37
892.23	-26.91
892.395	25.37
892.56	45.75
892.725	58.45
892.889	28.06
893.054	43.49
893.219	30.36
893.384	50.5
893.548	47.16
893.713	41.25
893.878	31.14
