Data from Ofav_PP_Phys_366_Reflection_3.txt Node
Date: Tue Jul 27 19:04:37 EDT 2021
User: USUARIO
Spectrometer: FLMT01687
Trigger mode: 0
Integration Time (sec): 8.500000E-1
Scans to average: 2
Electric dark correction enabled: true
Nonlinearity correction enabled: false
Boxcar width: 2
XAxis mode: Wavelengths
Number of Pixels in Spectrum: 3648
>>>>>Begin Spectral Data<<<<<
179.494	-1125.93
179.716	-387.63
179.937	-254.21
180.158	-236.31
180.38	-250.77
180.601	-306.52
180.823	62.31
181.044	73.81
181.265	114.32
181.486	237.59
181.708	-14.63
181.929	63.43
182.15	38.67
182.372	200.35
182.593	165.17
182.814	86.01
183.035	87.02
183.257	79.17
183.478	62.92
183.699	49.03
183.92	65.13
184.141	46.86
184.363	62.26
184.584	72.59
184.805	91.67
185.026	67.93
185.247	84.5
185.468	69.29
185.689	63.45
185.91	49.4
186.132	13.97
186.353	24.14
186.574	30.38
186.795	31.46
187.016	38.56
187.237	43.63
187.458	27.75
187.679	25.39
187.9	25.13
188.121	8.95
188.342	30.61
188.563	54.54
188.784	67.7
189.005	68.75
189.226	81.42
189.447	72.76
189.667	67.38
189.888	65.54
190.109	63.21
190.33	53.97
190.551	53.17
190.772	47.85
190.993	42.52
191.214	47.93
191.434	37.39
191.655	40.37
191.876	38.09
192.097	26.13
192.318	35.18
192.538	67.14
192.759	79.07
192.98	72.26
193.201	56.61
193.421	54.08
193.642	28.55
193.863	13.69
194.083	26.08
194.304	45.62
194.525	28.63
194.745	-2.26
194.966	-17.58
195.187	-39.44
195.407	-27.27
195.628	-15.52
195.848	44.22
196.069	64.21
196.29	98.22
196.51	120.93
196.731	102.71
196.951	71.66
197.172	41.63
197.392	42.64
197.613	22.63
197.833	35.19
198.054	48.32
198.274	51.13
198.495	47.59
198.715	27.72
198.936	9.16
199.156	24.74
199.377	46.42
199.597	23.69
199.817	43.88
200.038	38.43
200.258	47.94
200.479	12.63
200.699	23.62
200.919	-1
201.14	16.6
201.36	-0.5
201.58	41.16
201.801	31.65
202.021	50.45
202.241	41.81
202.461	44.47
202.682	-2.24
202.902	-7.62
203.122	25.67
203.342	14.68
203.563	39.84
203.783	52.28
204.003	54.8
204.223	45.79
204.443	53.41
204.663	26.1
204.884	-2.82
205.104	-4.84
205.324	8.03
205.544	30.87
205.764	39.37
205.984	51.9
206.204	85.92
206.424	80.4
206.644	62.69
206.864	62.15
207.084	58.82
207.304	43.8
207.525	39.53
207.745	38.41
207.964	60.5
208.184	67.55
208.404	80.13
208.624	74.68
208.844	73.83
209.064	71.1
209.284	50.48
209.504	44.6
209.724	43.09
209.944	32.03
210.164	-2.89
210.384	86.75
210.604	43.13
210.823	48.02
211.043	44.51
211.263	39.63
211.483	32.83
211.703	56.64
211.922	59.66
212.142	69.29
212.362	53.94
212.582	69.26
212.801	43.9
213.021	44.56
213.241	3.85
213.461	-14.92
213.68	6.17
213.9	-7.79
214.12	-12.41
214.339	33.84
214.559	38.41
214.779	19.96
214.998	19.17
215.218	17.28
215.438	19.16
215.657	31.57
215.877	28.83
216.096	32.58
216.316	54.46
216.535	45.27
216.755	31.87
216.974	41.12
217.194	57.13
217.413	49.19
217.633	55.61
217.852	55.6
218.072	48.24
218.291	42.66
218.511	23.96
218.73	24.2
218.95	18.02
219.169	25.79
219.389	26.76
219.608	46.89
219.827	60.55
220.047	79.04
220.266	76.72
220.485	72.22
220.705	64.45
220.924	52.62
221.143	35.51
221.363	23.37
221.582	19.55
221.801	20.63
222.021	37.91
222.24	55.42
222.459	50.96
222.678	46.71
222.897	42.24
223.117	42.04
223.336	22.96
223.555	30.72
223.774	36.06
223.993	47.89
224.213	55.62
224.432	63.09
224.651	58.17
224.87	44.04
225.089	45.89
225.308	24.7
225.527	32.69
225.746	20.55
225.965	38.21
226.184	23.63
226.404	40.21
226.623	23.89
226.842	36.39
227.061	25.91
227.28	36.05
227.499	39.03
227.718	44.31
227.936	34.01
228.155	42.12
228.374	41.85
228.593	39.35
228.812	44.15
229.031	57.05
229.25	54.63
229.469	39.79
229.688	44.99
229.907	0.51
230.125	16.42
230.344	42.24
230.563	73.35
230.782	72.33
231.001	82.91
231.22	74.17
231.438	56.96
231.657	35.02
231.876	36.09
232.095	38.16
232.313	47.51
232.532	48.37
232.751	42.68
232.969	35.33
233.188	33.18
233.407	19.66
233.625	35.99
233.844	30.42
234.063	38.24
234.281	66.77
234.5	60.24
234.719	65.68
234.937	68.83
235.156	63.09
235.374	37.4
235.593	54.72
235.811	46.51
236.03	52.91
236.249	47
236.467	49.37
236.686	38.14
236.904	33.74
237.123	39.04
237.341	36.77
237.559	38
237.778	37.19
237.996	45.63
238.215	38.28
238.433	40.73
238.652	34.87
238.87	32.78
239.088	0.86
239.307	10.17
239.525	5.14
239.743	12.57
239.962	14.15
240.18	33.16
240.398	20.48
240.617	23.13
240.835	37.13
241.053	59.56
241.271	54.23
241.49	70.35
241.708	87.46
241.926	79.21
242.144	33.31
242.363	39.35
242.581	36.22
242.799	14.53
243.017	-10.29
243.235	23.01
243.453	14.69
243.672	30.9
243.89	39.16
244.108	66.7
244.326	58.3
244.544	53.45
244.762	43.53
244.98	49.92
245.198	28.55
245.416	30.32
245.634	59.09
245.852	91.27
246.07	85.11
246.288	84.03
246.506	87.56
246.724	73.53
246.942	49.01
247.16	41
247.378	39.63
247.596	32.18
247.814	30.51
248.032	30.31
248.25	28.22
248.468	38.21
248.685	38.5
248.903	36.35
249.121	53.63
249.339	66.7
249.557	70.95
249.775	54.49
249.992	42.41
250.21	34.05
250.428	40.1
250.646	14.73
250.863	35.21
251.081	52.38
251.299	55.34
251.517	36.16
251.734	57.26
251.952	43.01
252.17	63.49
252.387	57.38
252.605	67.98
252.823	46.65
253.04	51.34
253.258	49.35
253.475	48.31
253.693	51.3
253.911	70.33
254.128	62.45
254.346	57.93
254.563	46.16
254.781	29.07
254.998	22.42
255.216	4.49
255.433	3.19
255.651	26.05
255.868	44.09
256.086	37.56
256.303	43.25
256.521	38.39
256.738	40.54
256.956	24.87
257.173	20.43
257.39	15.96
257.608	24.91
257.825	24.2
258.043	40
258.26	53.13
258.477	55.21
258.695	49.43
258.912	49.04
259.129	46.24
259.346	27.49
259.564	47.92
259.781	51.38
259.998	29.92
260.216	44.03
260.433	51.35
260.65	59.66
260.867	50.15
261.084	57.41
261.302	27.86
261.519	31.47
261.736	7.47
261.953	19.88
262.17	39.05
262.387	44.22
262.604	49.65
262.822	66.14
263.039	67.62
263.256	57.14
263.473	71.23
263.69	78.83
263.907	52.59
264.124	46.27
264.341	57.58
264.558	61.44
264.775	60.65
264.992	79.02
265.209	76.06
265.426	77.13
265.643	68.17
265.86	46.8
266.077	35.62
266.294	42.36
266.51	44.38
266.727	47.1
266.944	52.88
267.161	56.84
267.378	37.82
267.595	36.21
267.812	34.64
268.028	56.53
268.245	58.44
268.462	58.54
268.679	51.58
268.896	64.56
269.112	37.88
269.329	27.08
269.546	41.3
269.763	38.48
269.979	34.1
270.196	44.79
270.413	52.27
270.629	50.24
270.846	69.92
271.063	49.33
271.279	40.72
271.496	44
271.712	32
271.929	-2.61
272.146	-5.8
272.362	19.17
272.579	14.54
272.795	27.27
273.012	24.3
273.228	23.67
273.445	21.16
273.661	25.61
273.878	14.93
274.094	9.8
274.311	26.85
274.527	20.37
274.744	8.25
274.96	16.77
275.177	16.28
275.393	12.87
275.609	29
275.826	41.47
276.042	27.93
276.259	58.55
276.475	53.09
276.691	44.92
276.908	39.47
277.124	47.64
277.34	48.32
277.557	55.06
277.773	64.71
277.989	65.71
278.205	56.34
278.422	56.04
278.638	41.34
278.854	44.47
279.07	49.93
279.286	62.72
279.503	42.07
279.719	57.42
279.935	58.69
280.151	67.76
280.367	66.99
280.583	73.55
280.799	77.37
281.016	73.38
281.232	50.63
281.448	40.02
281.664	29.98
281.88	12.22
282.096	15.87
282.312	24.04
282.528	24.54
282.744	29.14
282.96	37.56
283.176	43.97
283.392	64.43
283.608	76.1
283.824	55.12
284.04	40.59
284.256	39.42
284.471	28.43
284.687	36.33
284.903	44.01
285.119	59.52
285.335	59.07
285.551	60.12
285.767	59.3
285.982	63.18
286.198	61.68
286.414	44.22
286.63	29.43
286.846	21.4
287.061	15.98
287.277	8.29
287.493	8.05
287.709	19.5
287.924	21.23
288.14	42.68
288.356	55.38
288.571	62.66
288.787	58.76
289.003	42.42
289.218	31.84
289.434	33.76
289.65	25.42
289.865	10.96
290.081	22.65
290.296	20.81
290.512	4.48
290.727	15.23
290.943	26.39
291.159	33.06
291.374	37.93
291.59	37.91
291.805	40.27
292.021	43.75
292.236	45.82
292.451	41.78
292.667	55.35
292.882	49.3
293.098	46.67
293.313	54.78
293.529	60.2
293.744	51.13
293.959	50.68
294.175	46.85
294.39	35.79
294.605	34.46
294.821	35.61
295.036	31.36
295.251	23.32
295.467	26.83
295.682	1.8
295.897	8.45
296.112	27.74
296.328	51.35
296.543	61.85
296.758	64.59
296.973	55
297.188	52.68
297.404	39.51
297.619	36.21
297.834	29.52
298.049	37.65
298.264	39.56
298.479	40.59
298.694	34.74
298.909	30.24
299.125	35.64
299.34	32.35
299.555	45.92
299.77	51.07
299.985	55.57
300.2	40.29
300.415	37.22
300.63	23.59
300.845	5.67
301.06	15.83
301.275	42.69
301.49	33.95
301.704	32.92
301.919	43
302.134	42.69
302.349	37.23
302.564	49.16
302.779	48.54
302.994	50.08
303.209	54.57
303.423	47.92
303.638	21.35
303.853	32.72
304.068	47.63
304.283	51.3
304.497	58.1
304.712	64.51
304.927	56.75
305.142	52.04
305.356	24.54
305.571	31.32
305.786	31
306	35.92
306.215	25.78
306.43	38.05
306.644	31.31
306.859	27.74
307.074	38.1
307.288	39.24
307.503	39.4
307.717	37.59
307.932	50.14
308.147	55.82
308.361	50.95
308.576	51.13
308.79	48.03
309.005	35.6
309.219	19.87
309.434	25.71
309.648	28.26
309.863	27.44
310.077	15.59
310.292	18.6
310.506	7.98
310.72	-4.63
310.935	5.56
311.149	28.1
311.364	20.4
311.578	41.56
311.792	47.6
312.007	42.07
312.221	39.84
312.435	43.81
312.649	41.03
312.864	44.84
313.078	35.06
313.292	20.35
313.507	26.08
313.721	44.76
313.935	35.4
314.149	41.06
314.363	41.52
314.578	40.17
314.792	26.72
315.006	42.09
315.22	47.76
315.434	48.17
315.648	42.44
315.862	47.01
316.077	37.63
316.291	19.05
316.505	25.26
316.719	40.44
316.933	44.21
317.147	31.49
317.361	48.8
317.575	53.63
317.789	51.6
318.003	51.7
318.217	62.65
318.431	45.89
318.645	42.36
318.859	38.65
319.073	36.86
319.287	42.34
319.5	51.9
319.714	57.54
319.928	55.69
320.142	48.52
320.356	36.11
320.57	35.9
320.784	34.06
320.997	42.37
321.211	51.02
321.425	46.65
321.639	43.65
321.853	38.67
322.066	30.4
322.28	20.91
322.494	15.23
322.707	15.18
322.921	20.43
323.135	15.33
323.349	20.43
323.562	27.51
323.776	16.55
323.989	-6.65
324.203	-4.2
324.417	-31.39
324.63	-12.26
324.844	3.16
325.057	10.69
325.271	-1.9
325.485	23.95
325.698	24.44
325.912	27.93
326.125	38.64
326.339	49.18
326.552	54.16
326.766	49.21
326.979	50.77
327.193	38.28
327.406	34.25
327.619	21.87
327.833	16.24
328.046	19.19
328.26	21.16
328.473	-0.35
328.686	7.77
328.9	11.07
329.113	12.44
329.326	4.14
329.54	34.34
329.753	35.26
329.966	43.91
330.179	20.42
330.393	28.4
330.606	12.92
330.819	25.45
331.032	29.32
331.246	44.4
331.459	51.52
331.672	62.17
331.885	63.16
332.098	60.01
332.311	55.72
332.525	52.38
332.738	38.2
332.951	39.08
333.164	35.18
333.377	22.18
333.59	17.05
333.803	29.76
334.016	20.67
334.229	26.23
334.442	41.22
334.655	61.33
334.868	54.9
335.081	61.33
335.294	68.91
335.507	75.82
335.72	63.91
335.933	51.16
336.146	52.74
336.359	25.14
336.572	27.87
336.785	13.35
336.997	40.67
337.21	47.85
337.423	55.64
337.636	51.39
337.849	60.4
338.062	52.96
338.274	50.73
338.487	57.93
338.7	43.3
338.913	49.12
339.125	46.11
339.338	40.74
339.551	36.72
339.763	53.78
339.976	40.24
340.189	20.29
340.402	9.92
340.614	8.33
340.827	9.96
341.039	-2.67
341.252	13.03
341.465	8.67
341.677	24.25
341.89	38.18
342.102	54.1
342.315	57.71
342.527	61.89
342.74	58.56
342.952	39.91
343.165	38.93
343.377	30.18
343.59	20.99
343.802	18.52
344.015	36.68
344.227	32.97
344.44	17.13
344.652	18.79
344.864	3.06
345.077	-15.95
345.289	-10.26
345.502	4.63
345.714	14.57
345.926	8.44
346.139	22.07
346.351	18.5
346.563	12.49
346.775	7.5
346.988	22.52
347.2	10.12
347.412	23.58
347.624	39.28
347.837	40.34
348.049	29.37
348.261	33.82
348.473	16.69
348.685	14.4
348.897	11.09
349.11	29.33
349.322	36.41
349.534	45.23
349.746	56.44
349.958	58.85
350.17	48.61
350.382	38.21
350.594	23.26
350.806	26.39
351.018	38.67
351.23	38.09
351.442	51.68
351.654	81.09
351.866	62.48
352.078	55.55
352.29	38.31
352.502	27.9
352.714	29.28
352.926	39.48
353.138	43.56
353.35	48.53
353.561	48.67
353.773	39.83
353.985	26.22
354.197	25.71
354.409	29.17
354.621	37.19
354.832	42.47
355.044	30.65
355.256	30.04
355.468	32.31
355.679	30.18
355.891	27.54
356.103	43.84
356.314	30.52
356.526	37.38
356.738	42.51
356.949	34.03
357.161	27.51
357.373	29.59
357.584	20.32
357.796	22.48
358.008	34.27
358.219	35.25
358.431	45.85
358.642	41.33
358.854	39.62
359.065	33.39
359.277	41.42
359.488	48.05
359.7	64.73
359.911	63.21
360.123	57.51
360.334	51.59
360.546	36.62
360.757	35.44
360.969	40.67
361.18	49.77
361.391	43.34
361.603	43.69
361.814	36.86
362.025	41.46
362.237	45.19
362.448	44.83
362.659	45.69
362.871	42.76
363.082	30.63
363.293	32.33
363.504	29.35
363.716	24.98
363.927	3.77
364.138	5.43
364.349	-0.35
364.56	12.48
364.772	14.38
364.983	31.99
365.194	50.75
365.405	46
365.616	32.41
365.827	37.19
366.038	42.02
366.25	24.7
366.461	31.63
366.672	38.8
366.883	34.33
367.094	32.24
367.305	42.86
367.516	38.21
367.727	38.92
367.938	44.43
368.149	46.63
368.36	36.75
368.571	26.22
368.781	26.48
368.992	24.16
369.203	11.62
369.414	15.49
369.625	21.06
369.836	9.61
370.047	19.11
370.258	29.24
370.468	30.37
370.679	20.6
370.89	25.5
371.101	3.71
371.312	-1.32
371.522	-14.61
371.733	-3.41
371.944	4.74
372.155	21.65
372.365	15.21
372.576	22.96
372.787	22.37
372.997	27.74
373.208	22.54
373.419	31.73
373.629	27.25
373.84	24.99
374.05	12.43
374.261	3.94
374.472	5.32
374.682	9.65
374.893	18.55
375.103	23.97
375.314	36.99
375.524	46.45
375.735	43.2
375.945	35.55
376.156	33.44
376.366	31.19
376.577	19.55
376.787	26.99
376.997	32.74
377.208	34.83
377.418	36.08
377.629	51.59
377.839	50.3
378.049	48.52
378.26	50.37
378.47	43.63
378.68	32.96
378.89	34.93
379.101	27.33
379.311	19.7
379.521	26.84
379.732	23.39
379.942	31.76
380.152	31.81
380.362	47.97
380.572	34.52
380.783	34.27
380.993	23.94
381.203	22.99
381.413	9.06
381.623	14.46
381.833	11.85
382.043	13.91
382.253	18.46
382.463	20.82
382.674	31.97
382.884	26.36
383.094	19.76
383.304	25.5
383.514	31.13
383.724	24.16
383.934	25.95
384.144	23.11
384.353	16.78
384.563	16.8
384.773	13.16
384.983	17.75
385.193	18.62
385.403	15.41
385.613	9.64
385.823	11.5
386.033	10.88
386.242	20.54
386.452	23.12
386.662	31.03
386.872	32.87
387.082	28
387.291	16.62
387.501	16.07
387.711	9.38
387.921	10.6
388.13	14.13
388.34	18.65
388.55	19.25
388.759	16.45
388.969	14.13
389.179	16.23
389.388	17.48
389.598	20.09
389.807	19.87
390.017	17.17
390.227	15.78
390.436	17.07
390.646	12.89
390.855	13.56
391.065	13.49
391.274	12.71
391.484	9.01
391.693	10.39
391.903	9.76
392.112	11.43
392.322	10.81
392.531	11.91
392.74	11.12
392.95	11.62
393.159	12.93
393.369	13.27
393.578	13.79
393.787	14.52
393.997	15.33
394.206	14.75
394.415	14.03
394.625	12.45
394.834	11.71
395.043	11.29
395.252	10.8
395.462	11.64
395.671	11.99
395.88	13.12
396.089	13.44
396.298	12.98
396.508	12.33
396.717	12.8
396.926	11.92
397.135	11.34
397.344	11.31
397.553	11.72
397.762	11.47
397.971	11.25
398.181	11.57
398.39	11.83
398.599	11.66
398.808	11.97
399.017	12.2
399.226	11.8
399.435	11.8
399.644	12.11
399.853	11.95
400.062	12.19
400.27	12.14
400.479	11.84
400.688	11.7
400.897	11.53
401.106	11.57
401.315	12.09
401.524	12.21
401.733	12.11
401.941	12.24
402.15	12.12
402.359	11.86
402.568	11.99
402.777	12.04
402.985	11.91
403.194	11.89
403.403	11.81
403.612	11.61
403.82	11.43
404.029	11.43
404.238	11.35
404.446	11.21
404.655	11.31
404.864	11.3
405.072	11.24
405.281	11.16
405.489	11.12
405.698	11.06
405.906	11.04
406.115	11.04
406.324	10.9
406.532	10.89
406.741	10.92
406.949	10.98
407.158	10.8
407.366	10.8
407.574	10.82
407.783	10.63
407.991	10.49
408.2	10.65
408.408	10.8
408.617	10.77
408.825	10.85
409.033	10.79
409.242	10.67
409.45	10.47
409.658	10.44
409.867	10.3
410.075	10.33
410.283	10.31
410.491	10.38
410.7	10.25
410.908	10.33
411.116	10.29
411.324	10.2
411.533	10.17
411.741	10.12
411.949	10
412.157	10.03
412.365	10.22
412.573	10.07
412.781	10.12
412.99	10.19
413.198	10.31
413.406	10.24
413.614	10.43
413.822	10.45
414.03	10.33
414.238	10.17
414.446	10.18
414.654	10
414.862	10.02
415.07	10
415.278	10
415.486	9.88
415.694	9.82
415.902	9.71
416.109	9.77
416.317	9.77
416.525	9.68
416.733	9.69
416.941	9.78
417.149	9.62
417.357	9.64
417.564	9.53
417.772	9.59
417.98	9.55
418.188	9.81
418.395	9.59
418.603	9.75
418.811	9.84
419.019	9.69
419.226	9.57
419.434	9.87
419.642	9.86
419.849	9.74
420.057	9.78
420.265	9.8
420.472	9.46
420.68	9.37
420.887	9.49
421.095	9.37
421.302	9.36
421.51	9.32
421.717	9.28
421.925	8.94
422.132	9.11
422.34	9.01
422.547	9.2
422.755	9.33
422.962	9.41
423.17	9.48
423.377	9.49
423.585	9.54
423.792	9.33
423.999	9.35
424.207	9.11
424.414	9.09
424.621	8.95
424.829	8.89
425.036	8.91
425.243	9
425.451	8.82
425.658	8.85
425.865	8.97
426.072	8.82
426.28	8.76
426.487	9.03
426.694	8.87
426.901	8.84
427.108	8.97
427.315	8.89
427.523	8.66
427.73	8.56
427.937	8.51
428.144	8.61
428.351	8.63
428.558	8.88
428.765	9.09
428.972	9.17
429.179	8.98
429.386	9.05
429.593	8.88
429.8	8.84
430.007	8.87
430.214	8.97
430.421	8.89
430.628	8.81
430.835	8.75
431.042	8.74
431.249	8.73
431.456	8.94
431.662	9.04
431.869	9.06
432.076	9.01
432.283	9.02
432.49	8.83
432.697	8.79
432.903	8.83
433.11	9.01
433.317	8.94
433.524	8.95
433.73	8.96
433.937	8.78
434.144	8.66
434.35	8.7
434.557	8.81
434.764	8.72
434.97	8.8
435.177	8.9
435.384	8.85
435.59	8.89
435.797	8.98
436.003	9.1
436.21	8.89
436.416	8.91
436.623	8.7
436.829	8.61
437.036	8.63
437.242	8.71
437.449	8.63
437.655	8.82
437.862	8.96
438.068	8.9
438.275	8.92
438.481	8.9
438.687	8.83
438.894	8.79
439.1	8.73
439.307	8.67
439.513	8.79
439.719	8.75
439.926	8.67
440.132	8.87
440.338	8.86
440.544	8.82
440.751	8.73
440.957	8.77
441.163	8.48
441.369	8.52
441.575	8.45
441.782	8.64
441.988	8.57
442.194	8.77
442.4	8.76
442.606	8.85
442.812	8.8
443.018	8.81
443.224	8.73
443.431	8.58
443.637	8.64
443.843	8.53
444.049	8.52
444.255	8.41
444.461	8.43
444.667	8.31
444.873	8.34
445.079	8.47
445.284	8.56
445.49	8.58
445.696	8.62
445.902	8.57
446.108	8.53
446.314	8.56
446.52	8.62
446.726	8.59
446.931	8.63
447.137	8.58
447.343	8.49
447.549	8.5
447.755	8.51
447.96	8.49
448.166	8.45
448.372	8.52
448.578	8.6
448.783	8.62
448.989	8.68
449.195	8.76
449.4	8.84
449.606	8.74
449.812	8.78
450.017	8.74
450.223	8.7
450.428	8.58
450.634	8.66
450.84	8.59
451.045	8.58
451.251	8.62
451.456	8.71
451.662	8.54
451.867	8.6
452.073	8.56
452.278	8.5
452.483	8.36
452.689	8.48
452.894	8.48
453.1	8.55
453.305	8.53
453.51	8.62
453.716	8.54
453.921	8.59
454.127	8.51
454.332	8.46
454.537	8.49
454.742	8.5
454.948	8.35
455.153	8.4
455.358	8.56
455.563	8.5
455.769	8.46
455.974	8.46
456.179	8.43
456.384	8.23
456.589	8.32
456.795	8.41
457	8.39
457.205	8.37
457.41	8.45
457.615	8.39
457.82	8.3
458.025	8.35
458.23	8.42
458.435	8.37
458.64	8.3
458.845	8.32
459.05	8.31
459.255	8.26
459.46	8.31
459.665	8.39
459.87	8.4
460.075	8.49
460.28	8.47
460.485	8.54
460.69	8.42
460.895	8.5
461.099	8.44
461.304	8.36
461.509	8.26
461.714	8.38
461.919	8.31
462.123	8.36
462.328	8.46
462.533	8.46
462.738	8.44
462.942	8.41
463.147	8.42
463.352	8.34
463.556	8.43
463.761	8.39
463.966	8.41
464.17	8.35
464.375	8.43
464.58	8.35
464.784	8.3
464.989	8.33
465.193	8.31
465.398	8.34
465.602	8.49
465.807	8.47
466.011	8.53
466.216	8.49
466.42	8.48
466.625	8.4
466.829	8.41
467.034	8.48
467.238	8.63
467.443	8.72
467.647	8.63
467.851	8.77
468.056	8.64
468.26	8.62
468.464	8.5
468.669	8.59
468.873	8.6
469.077	8.62
469.282	8.56
469.486	8.61
469.69	8.52
469.894	8.43
470.099	8.44
470.303	8.5
470.507	8.5
470.711	8.67
470.915	8.85
471.119	8.82
471.324	8.76
471.528	8.82
471.732	8.8
471.936	8.68
472.14	8.75
472.344	8.8
472.548	8.76
472.752	8.65
472.956	8.65
473.16	8.7
473.364	8.65
473.568	8.65
473.772	8.71
473.976	8.66
474.18	8.54
474.384	8.57
474.588	8.63
474.792	8.59
474.995	8.59
475.199	8.61
475.403	8.67
475.607	8.55
475.811	8.62
476.015	8.67
476.218	8.7
476.422	8.6
476.626	8.65
476.83	8.66
477.033	8.7
477.237	8.72
477.441	8.85
477.644	8.83
477.848	8.8
478.052	8.79
478.255	8.71
478.459	8.69
478.663	8.67
478.866	8.65
479.07	8.63
479.273	8.74
479.477	8.67
479.681	8.87
479.884	8.87
480.088	8.81
480.291	8.78
480.495	8.83
480.698	8.66
480.901	8.64
481.105	8.73
481.308	8.7
481.512	8.65
481.715	8.65
481.919	8.6
482.122	8.54
482.325	8.6
482.529	8.66
482.732	8.71
482.935	8.78
483.138	8.88
483.342	8.86
483.545	8.84
483.748	8.81
483.952	8.84
484.155	8.82
484.358	8.88
484.561	8.91
484.764	8.87
484.967	8.96
485.171	8.93
485.374	8.79
485.577	8.75
485.78	8.77
485.983	8.72
486.186	8.8
486.389	8.88
486.592	8.93
486.795	9.04
486.998	9.11
487.201	9.13
487.404	9.23
487.607	9.27
487.81	9.26
488.013	9.18
488.216	9.2
488.419	9.2
488.622	9.17
488.825	9.17
489.028	9.25
489.231	9.31
489.433	9.36
489.636	9.5
489.839	9.65
490.042	9.69
490.245	9.72
490.447	9.75
490.65	9.78
490.853	9.84
491.056	9.99
491.258	10.13
491.461	10.27
491.664	10.31
491.866	10.38
492.069	10.49
492.272	10.54
492.474	10.67
492.677	10.82
492.879	10.87
493.082	10.9
493.285	11.04
493.487	11.14
493.69	11.2
493.892	11.37
494.095	11.6
494.297	11.76
494.5	11.9
494.702	12.11
494.905	12.23
495.107	12.29
495.309	12.34
495.512	12.42
495.714	12.52
495.917	12.68
496.119	12.76
496.321	12.97
496.524	13.1
496.726	13.32
496.928	13.39
497.13	13.63
497.333	13.78
497.535	14
497.737	14.14
497.939	14.27
498.142	14.34
498.344	14.43
498.546	14.48
498.748	14.53
498.95	14.69
499.152	14.76
499.355	14.83
499.557	14.92
499.759	15.1
499.961	15.19
500.163	15.46
500.365	15.57
500.567	15.66
500.769	15.63
500.971	15.74
501.173	15.72
501.375	15.87
501.577	15.97
501.779	16.02
501.981	16.05
502.183	16.12
502.385	16.13
502.587	16.12
502.788	16.22
502.99	16.19
503.192	16.08
503.394	15.98
503.596	16.08
503.798	16.17
503.999	16.22
504.201	16.3
504.403	16.43
504.605	16.48
504.806	16.29
505.008	16.27
505.21	16.22
505.411	16.04
505.613	15.86
505.815	15.85
506.016	15.82
506.218	15.77
506.42	15.79
506.621	15.77
506.823	15.79
507.024	15.71
507.226	15.7
507.427	15.63
507.629	15.53
507.83	15.39
508.032	15.33
508.233	15.28
508.435	15.23
508.636	15.27
508.838	15.31
509.039	15.25
509.24	15.16
509.442	15.12
509.643	14.99
509.845	14.95
510.046	14.93
510.247	14.9
510.448	14.81
510.65	14.8
510.851	14.69
511.052	14.63
511.254	14.65
511.455	14.62
511.656	14.57
511.857	14.5
512.058	14.44
512.26	14.36
512.461	14.35
512.662	14.31
512.863	14.26
513.064	14.26
513.265	14.09
513.466	14.06
513.667	14.05
513.868	14.01
514.069	13.95
514.27	13.93
514.471	13.97
514.672	13.92
514.873	13.92
515.074	13.85
515.275	13.91
515.476	13.72
515.677	13.66
515.878	13.6
516.079	13.54
516.28	13.51
516.481	13.46
516.682	13.47
516.882	13.48
517.083	13.49
517.284	13.49
517.485	13.48
517.686	13.4
517.886	13.34
518.087	13.36
518.288	13.32
518.488	13.35
518.689	13.38
518.89	13.38
519.091	13.34
519.291	13.31
519.492	13.28
519.692	13.17
519.893	13.19
520.094	13.07
520.294	13.11
520.495	13.19
520.695	13.26
520.896	13.18
521.096	13.34
521.297	13.34
521.497	13.28
521.698	13.23
521.898	13.27
522.099	13.25
522.299	13.19
522.499	13.21
522.7	13.18
522.9	13.24
523.101	13.15
523.301	13.16
523.501	13.13
523.702	13.23
523.902	13.14
524.102	13.21
524.302	13.24
524.503	13.22
524.703	13.21
524.903	13.24
525.103	13.23
525.304	13.17
525.504	13.21
525.704	13.18
525.904	13.2
526.104	13.17
526.304	13.23
526.504	13.19
526.705	13.14
526.905	13.08
527.105	13.11
527.305	13
527.505	12.99
527.705	13.05
527.905	13.11
528.105	13.05
528.305	13.13
528.505	13.17
528.705	13.13
528.905	13.12
529.105	13.16
529.304	13.13
529.504	13.16
529.704	13.21
529.904	13.27
530.104	13.28
530.304	13.34
530.503	13.37
530.703	13.33
530.903	13.35
531.103	13.38
531.303	13.42
531.502	13.42
531.702	13.41
531.902	13.37
532.101	13.37
532.301	13.43
532.501	13.38
532.7	13.48
532.9	13.48
533.1	13.51
533.299	13.53
533.499	13.62
533.698	13.63
533.898	13.64
534.097	13.66
534.297	13.63
534.496	13.59
534.696	13.59
534.895	13.67
535.095	13.73
535.294	13.75
535.494	13.76
535.693	13.81
535.892	13.8
536.092	13.78
536.291	13.78
536.491	13.83
536.69	13.81
536.889	13.87
537.088	13.86
537.288	13.85
537.487	13.9
537.686	13.95
537.886	13.95
538.085	13.93
538.284	14.02
538.483	14.03
538.682	14.09
538.882	14.08
539.081	14.15
539.28	14.19
539.479	14.22
539.678	14.22
539.877	14.31
540.076	14.37
540.275	14.31
540.474	14.32
540.673	14.34
540.872	14.37
541.071	14.37
541.27	14.45
541.469	14.5
541.668	14.45
541.867	14.48
542.066	14.47
542.265	14.53
542.464	14.54
542.663	14.68
542.862	14.76
543.06	14.84
543.259	14.77
543.458	14.77
543.657	14.84
543.856	14.84
544.054	14.84
544.253	14.88
544.452	14.92
544.651	14.85
544.849	14.87
545.048	14.93
545.247	15.08
545.445	15.1
545.644	15.15
545.843	15.18
546.041	15.24
546.24	15.2
546.438	15.27
546.637	15.28
546.836	15.36
547.034	15.44
547.233	15.52
547.431	15.56
547.63	15.63
547.828	15.66
548.027	15.69
548.225	15.74
548.423	15.82
548.622	15.85
548.82	15.88
549.019	15.9
549.217	15.88
549.415	15.97
549.614	16.03
549.812	16.12
550.01	16.17
550.209	16.32
550.407	16.32
550.605	16.39
550.803	16.43
551.002	16.5
551.2	16.54
551.398	16.66
551.596	16.73
551.794	16.82
551.993	16.81
552.191	16.83
552.389	16.86
552.587	16.95
552.785	16.97
552.983	17.09
553.181	17.18
553.379	17.23
553.577	17.33
553.775	17.36
553.973	17.48
554.171	17.55
554.369	17.69
554.567	17.76
554.765	17.93
554.963	17.95
555.161	18.05
555.359	18.07
555.557	18.18
555.755	18.26
555.952	18.37
556.15	18.4
556.348	18.52
556.546	18.52
556.744	18.61
556.941	18.72
557.139	18.83
557.337	18.92
557.535	19.05
557.732	19.11
557.93	19.21
558.128	19.27
558.325	19.42
558.523	19.48
558.721	19.58
558.918	19.64
559.116	19.88
559.313	19.92
559.511	20.07
559.708	20.19
559.906	20.3
560.104	20.34
560.301	20.36
560.498	20.51
560.696	20.57
560.893	20.73
561.091	20.79
561.288	21.04
561.486	21.02
561.683	21.14
561.88	21.17
562.078	21.27
562.275	21.24
562.473	21.46
562.67	21.55
562.867	21.7
563.064	21.82
563.262	22.09
563.459	22.17
563.656	22.31
563.853	22.42
564.051	22.52
564.248	22.45
564.445	22.52
564.642	22.57
564.839	22.7
565.036	22.87
565.234	23.08
565.431	23.19
565.628	23.28
565.825	23.29
566.022	23.47
566.219	23.58
566.416	23.61
566.613	23.84
566.81	23.99
567.007	23.93
567.204	23.93
567.401	24.09
567.598	24.17
567.795	24.27
567.991	24.28
568.188	24.52
568.385	24.53
568.582	24.64
568.779	24.72
568.976	24.99
569.172	25.01
569.369	25.14
569.566	25.09
569.763	25.1
569.96	25.18
570.156	25.11
570.353	25.13
570.55	25.2
570.746	25.22
570.943	25.16
571.14	25.31
571.336	25.4
571.533	25.39
571.729	25.5
571.926	25.55
572.123	25.57
572.319	25.64
572.516	25.75
572.712	25.91
572.909	26
573.105	26.1
573.302	26.18
573.498	26.16
573.695	26.02
573.891	26.01
574.087	26.03
574.284	25.97
574.48	26.09
574.677	26.05
574.873	26.11
575.069	26.16
575.266	26.2
575.462	26.2
575.658	26.24
575.854	26.32
576.051	26.3
576.247	26.42
576.443	26.51
576.639	26.61
576.835	26.54
577.032	26.47
577.228	26.36
577.424	26.3
577.62	26.38
577.816	26.41
578.012	26.47
578.208	26.61
578.404	26.56
578.6	26.55
578.796	26.5
578.993	26.6
579.189	26.45
579.384	26.47
579.58	26.49
579.776	26.48
579.972	26.44
580.168	26.49
580.364	26.54
580.56	26.47
580.756	26.5
580.952	26.48
581.148	26.49
581.343	26.44
581.539	26.44
581.735	26.42
581.931	26.39
582.127	26.39
582.322	26.4
582.518	26.32
582.714	26.35
582.909	26.31
583.105	26.2
583.301	26.2
583.496	26.27
583.692	26.18
583.888	26.13
584.083	26.16
584.279	26.15
584.474	26.07
584.67	26.01
584.866	25.99
585.061	25.97
585.257	25.92
585.452	26.01
585.648	26.1
585.843	26.05
586.039	26.02
586.234	25.96
586.429	25.94
586.625	25.93
586.82	25.97
587.015	25.96
587.211	26.02
587.406	26.04
587.601	26.03
587.797	26.05
587.992	26.05
588.187	25.94
588.383	25.87
588.578	25.87
588.773	25.81
588.968	25.82
589.163	25.83
589.359	25.8
589.554	25.82
589.749	25.83
589.944	25.9
590.139	25.98
590.334	26.02
590.529	26.07
590.724	26.12
590.919	26.21
591.114	26.21
591.309	26.26
591.504	26.16
591.699	26.17
591.894	25.98
592.089	26.01
592.284	26.06
592.479	26.1
592.674	26.24
592.869	26.36
593.064	26.43
593.259	26.51
593.454	26.59
593.648	26.46
593.843	26.47
594.038	26.63
594.233	26.6
594.428	26.7
594.622	26.88
594.817	26.99
595.012	26.93
595.206	26.95
595.401	26.99
595.596	27.06
595.79	27.13
595.985	27.2
596.18	27.31
596.374	27.36
596.569	27.4
596.763	27.53
596.958	27.56
597.153	27.55
597.347	27.61
597.542	27.79
597.736	27.78
597.931	27.84
598.125	28.08
598.319	28.02
598.514	27.98
598.708	27.99
598.903	28.12
599.097	28.16
599.291	28.29
599.486	28.34
599.68	28.49
599.874	28.45
600.069	28.46
600.263	28.56
600.457	28.56
600.651	28.6
600.846	28.65
601.04	28.74
601.234	28.7
601.428	28.7
601.622	28.65
601.817	28.67
602.011	28.65
602.205	28.69
602.399	28.85
602.593	28.95
602.787	28.96
602.981	28.82
603.175	29.04
603.369	28.93
603.563	28.97
603.757	28.98
603.951	29.01
604.145	28.73
604.339	28.77
604.533	28.63
604.727	28.65
604.921	28.72
605.115	28.84
605.309	28.8
605.502	28.78
605.696	28.72
605.89	28.57
606.084	28.53
606.278	28.45
606.471	28.39
606.665	28.3
606.859	28.31
607.053	28.26
607.246	28.15
607.44	28.04
607.634	28.02
607.827	27.88
608.021	27.76
608.214	27.73
608.408	27.7
608.602	27.62
608.795	27.63
608.989	27.55
609.182	27.49
609.376	27.5
609.569	27.35
609.763	27.19
609.956	27.16
610.15	27.15
610.343	26.93
610.537	26.92
610.73	26.93
610.923	26.89
611.117	26.75
611.31	26.82
611.504	26.79
611.697	26.66
611.89	26.56
612.083	26.41
612.277	26.27
612.47	26.17
612.663	26.07
612.856	25.95
613.05	25.94
613.243	25.93
613.436	25.74
613.629	25.7
613.822	25.62
614.015	25.48
614.209	25.26
614.402	25.2
614.595	25.18
614.788	25.17
614.981	25.15
615.174	25.17
615.367	25.23
615.56	25.07
615.753	24.91
615.946	24.8
616.139	24.75
616.332	24.6
616.525	24.5
616.718	24.56
616.911	24.67
617.103	24.54
617.296	24.42
617.489	24.43
617.682	24.28
617.875	24.16
618.067	24.06
618.26	24.13
618.453	23.96
618.646	23.93
618.838	23.81
619.031	23.85
619.224	23.86
619.417	24.01
619.609	23.97
619.802	23.97
619.994	23.91
620.187	23.75
620.38	23.62
620.572	23.56
620.765	23.41
620.957	23.28
621.15	23.2
621.342	23.13
621.535	23.11
621.727	23.27
621.92	23.27
622.112	23.33
622.305	23.32
622.497	23.22
622.69	23.04
622.882	23.08
623.074	23.03
623.267	22.96
623.459	22.95
623.651	22.92
623.844	22.86
624.036	22.87
624.228	22.97
624.42	23.08
624.613	23.11
624.805	23.09
624.997	22.97
625.189	22.86
625.381	22.77
625.574	22.65
625.766	22.65
625.958	22.72
626.15	22.68
626.342	22.54
626.534	22.63
626.726	22.56
626.918	22.5
627.11	22.43
627.302	22.43
627.494	22.38
627.686	22.37
627.878	22.31
628.07	22.31
628.262	22.32
628.454	22.24
628.646	22.19
628.838	22.18
629.029	22.16
629.221	22.09
629.413	22.05
629.605	22.05
629.797	21.99
629.989	21.93
630.18	21.85
630.372	21.82
630.564	21.73
630.755	21.73
630.947	21.72
631.139	21.7
631.33	21.67
631.522	21.56
631.714	21.4
631.905	21.35
632.097	21.27
632.289	21.15
632.48	21.17
632.672	21.21
632.863	21.22
633.055	21.28
633.246	21.38
633.438	21.31
633.629	21.28
633.821	21.2
634.012	21.21
634.203	21.21
634.395	21.29
634.586	21.38
634.777	21.33
634.969	21.23
635.16	21.26
635.351	21.2
635.543	21.14
635.734	21.14
635.925	21.1
636.117	21.01
636.308	20.98
636.499	20.91
636.69	20.89
636.881	20.91
637.073	20.9
637.264	20.9
637.455	20.81
637.646	20.73
637.837	20.74
638.028	20.61
638.219	20.6
638.41	20.64
638.601	20.65
638.792	20.52
638.983	20.55
639.174	20.47
639.365	20.37
639.556	20.27
639.747	20.31
639.938	20.32
640.129	20.31
640.32	20.31
640.511	20.34
640.701	20.29
640.892	20.25
641.083	20.18
641.274	20.18
641.465	20.12
641.655	20.07
641.846	20.08
642.037	20.01
642.228	19.99
642.418	19.9
642.609	19.91
642.8	19.76
642.99	19.75
643.181	19.62
643.372	19.66
643.562	19.54
643.753	19.64
643.943	19.73
644.134	19.68
644.324	19.58
644.515	19.64
644.705	19.46
644.896	19.28
645.086	19.33
645.277	19.32
645.467	19.28
645.658	19.28
645.848	19.33
646.038	19.23
646.229	19.25
646.419	19.22
646.61	19.26
646.8	19.21
646.99	19.28
647.18	19.24
647.371	19.16
647.561	19.06
647.751	19.05
647.941	18.83
648.132	18.78
648.322	18.75
648.512	18.67
648.702	18.68
648.892	18.74
649.082	18.75
649.272	18.81
649.462	18.88
649.653	18.75
649.843	18.77
650.033	18.73
650.223	18.68
650.413	18.63
650.603	18.65
650.793	18.6
650.983	18.58
651.172	18.56
651.362	18.49
651.552	18.4
651.742	18.42
651.932	18.39
652.122	18.37
652.312	18.32
652.502	18.28
652.691	18.24
652.881	18.15
653.071	18.03
653.261	17.95
653.45	17.83
653.64	17.75
653.83	17.66
654.019	17.5
654.209	17.45
654.399	17.36
654.588	17.26
654.778	17.11
654.968	17.04
655.157	16.92
655.347	16.92
655.536	16.78
655.726	16.68
655.915	16.54
656.105	16.47
656.294	16.36
656.484	16.16
656.673	16.12
656.863	16.06
657.052	15.87
657.241	15.58
657.431	15.56
657.62	15.31
657.809	15.02
657.999	14.82
658.188	14.77
658.377	14.57
658.567	14.42
658.756	14.34
658.945	14.29
659.134	14.15
659.324	14.11
659.513	13.96
659.702	13.83
659.891	13.6
660.08	13.37
660.269	13.12
660.458	12.9
660.648	12.78
660.837	12.71
661.026	12.64
661.215	12.48
661.404	12.32
661.593	12.03
661.782	11.81
661.971	11.56
662.16	11.4
662.349	11.33
662.538	11.3
662.726	11.15
662.915	11.05
663.104	10.98
663.293	10.92
663.482	10.79
663.671	10.75
663.86	10.63
664.048	10.5
664.237	10.32
664.426	10.24
664.615	10.12
664.803	9.97
664.992	9.9
665.181	9.94
665.369	9.89
665.558	9.76
665.747	9.77
665.935	9.69
666.124	9.61
666.312	9.54
666.501	9.55
666.69	9.45
666.878	9.32
667.067	9.08
667.255	9.07
667.444	9.05
667.632	9.04
667.82	9.01
668.009	9.07
668.197	8.98
668.386	8.9
668.574	8.89
668.762	8.9
668.951	8.98
669.139	8.96
669.327	8.87
669.516	8.86
669.704	8.8
669.892	8.75
670.08	8.71
670.269	8.76
670.457	8.74
670.645	8.67
670.833	8.62
671.021	8.69
671.21	8.69
671.398	8.56
671.586	8.64
671.774	8.69
671.962	8.61
672.15	8.69
672.338	8.88
672.526	8.97
672.714	9.02
672.902	9.12
673.09	9.13
673.278	9.08
673.466	9.06
673.654	9.13
673.842	9.08
674.03	9.06
674.218	9.25
674.405	9.31
674.593	9.26
674.781	9.31
674.969	9.34
675.157	9.14
675.344	9.17
675.532	9.27
675.72	9.33
675.908	9.39
676.095	9.52
676.283	9.6
676.471	9.68
676.658	9.83
676.846	9.9
677.033	10.13
677.221	10.23
677.409	10.27
677.596	10.36
677.784	10.35
677.971	10.34
678.159	10.42
678.346	10.42
678.534	10.45
678.721	10.72
678.909	10.81
679.096	10.77
679.283	10.97
679.471	10.98
679.658	11.03
679.846	11.23
680.033	11.46
680.22	11.59
680.408	11.81
680.595	11.96
680.782	11.95
680.969	12.1
681.157	12.16
681.344	12.23
681.531	12.14
681.718	12.32
681.905	12.23
682.093	12.35
682.28	12.52
682.467	12.89
682.654	12.9
682.841	13.1
683.028	13.25
683.215	13.36
683.402	13.32
683.589	13.68
683.776	14.04
683.963	14.18
684.15	14.52
684.337	14.91
684.524	15.07
684.711	15.32
684.898	15.47
685.085	15.69
685.271	16.02
685.458	16.17
685.645	16.42
685.832	16.76
686.019	16.96
686.205	17.28
686.392	17.67
686.579	18.09
686.766	18.6
686.952	19.05
687.139	19.32
687.326	19.71
687.512	19.9
687.699	20.15
687.886	20.57
688.072	20.98
688.259	21.44
688.445	22.06
688.632	22.56
688.818	23.06
689.005	23.48
689.191	24.09
689.378	24.61
689.564	25.18
689.751	25.83
689.937	26.54
690.124	27.04
690.31	27.48
690.496	28.34
690.683	28.93
690.869	29.4
691.055	29.97
691.242	30.63
691.428	31.11
691.614	31.66
691.8	32.36
691.987	33.09
692.173	33.9
692.359	34.66
692.545	35.44
692.731	36.27
692.918	37.12
693.104	37.85
693.29	38.57
693.476	39.21
693.662	40.03
693.848	40.84
694.034	41.46
694.22	42.21
694.406	43.03
694.592	43.61
694.778	44.13
694.964	45.15
695.15	45.82
695.336	46.36
695.522	47.19
695.708	48.21
695.894	48.68
696.08	49.28
696.265	50.22
696.451	50.98
696.637	51.62
696.823	52.21
697.009	53.06
697.194	53.76
697.38	54.44
697.566	55.26
697.751	56.22
697.937	56.96
698.123	57.52
698.308	58.26
698.494	58.75
698.68	59.14
698.865	59.86
699.051	60.59
699.236	61.07
699.422	61.68
699.607	62.52
699.793	62.98
699.978	63.45
700.164	64.09
700.349	64.66
700.535	65.18
700.72	65.45
700.906	66.25
701.091	66.79
701.276	67.16
701.462	67.73
701.647	68.65
701.832	69.27
702.018	69.87
702.203	70.36
702.388	70.64
702.573	70.93
702.759	70.94
702.944	71.05
703.129	71.8
703.314	72.26
703.499	72.56
703.684	73.2
703.87	73.89
704.055	73.82
704.24	74.21
704.425	74.9
704.61	75.39
704.795	75.6
704.98	76.36
705.165	76.88
705.35	77.59
705.535	77.85
705.72	78.43
705.905	78.55
706.09	79.11
706.275	79.19
706.459	79.65
706.644	79.77
706.829	80.08
707.014	80.45
707.199	80.6
707.384	80.69
707.568	81.18
707.753	81.67
707.938	81.32
708.123	81.52
708.307	82.03
708.492	82.47
708.677	82.26
708.861	83.07
709.046	83.56
709.231	83.66
709.415	83.32
709.6	83.8
709.784	84.35
709.969	84.32
710.153	84.27
710.338	84.84
710.522	85.62
710.707	85.5
710.891	86.08
711.076	86.8
711.26	87.33
711.445	87
711.629	87.05
711.813	86.89
711.998	87.07
712.182	86.5
712.366	87.06
712.551	87.12
712.735	87.5
712.919	87.49
713.103	87.93
713.288	87.58
713.472	87.81
713.656	87.78
713.84	87.73
714.024	88.1
714.208	88.54
714.393	88.71
714.577	89.05
714.761	89.21
714.945	89.01
715.129	88.83
715.313	89.17
715.497	89.35
715.681	89.81
715.865	90.28
716.049	90.48
716.233	90.95
716.417	90.89
716.601	90.67
716.785	90.68
716.968	90.91
717.152	90.63
717.336	91.07
717.52	91.05
717.704	91.17
717.888	92.01
718.071	92.38
718.255	92.39
718.439	92.67
718.622	92.54
718.806	92.23
718.99	92.32
719.174	91.78
719.357	91.91
719.541	92.64
719.724	92.49
719.908	92.54
720.092	93.29
720.275	93.5
720.459	93.49
720.642	93.84
720.826	94.37
721.009	94.31
721.193	94.82
721.376	95.07
721.559	95.17
721.743	94.64
721.926	94.88
722.11	94.57
722.293	93.79
722.476	93.3
722.66	93.67
722.843	93.41
723.026	93.38
723.21	94.07
723.393	94.28
723.576	93.79
723.759	93.51
723.942	94.14
724.126	94.33
724.309	94.85
724.492	94.63
724.675	95.43
724.858	95
725.041	94.95
725.224	95.06
725.407	95.54
725.59	95.55
725.774	96.15
725.957	96.79
726.14	97.09
726.322	97.57
726.505	97.53
726.688	97.2
726.871	96.98
727.054	97.23
727.237	96.67
727.42	96.65
727.603	96.63
727.786	96.23
727.968	95.52
728.151	95.58
728.334	95.58
728.517	96
728.699	96.37
728.882	96.45
729.065	96.85
729.248	97.25
729.43	97.13
729.613	97.36
729.796	97.96
729.978	98.87
730.161	98.44
730.343	98.5
730.526	99.35
730.708	98.75
730.891	98.5
731.073	99.09
731.256	99.31
731.438	98.38
731.621	99.63
731.803	98.73
731.986	99.32
732.168	98.96
732.35	98.34
732.533	97.46
732.715	98.34
732.898	97.73
733.08	98.41
733.262	98.97
733.444	99.52
733.627	99.61
733.809	100.04
733.991	100.47
734.173	100.73
734.355	101.28
734.538	101.17
734.72	101.24
734.902	100.61
735.084	101.6
735.266	99.94
735.448	99.89
735.63	99.57
735.812	99.27
735.994	97.96
736.176	98.83
736.358	100.32
736.54	100.38
736.722	101.26
736.904	102.2
737.086	102.29
737.268	99.89
737.45	99.27
737.632	98.36
737.814	97.09
737.995	97.29
738.177	98.21
738.359	98.98
738.541	99.54
738.723	100.31
738.904	100.54
739.086	101.48
739.268	101.42
739.449	101.02
739.631	101
739.813	101.55
739.994	100.44
740.176	101.23
740.358	102.05
740.539	102.76
740.721	101.85
740.902	101.38
741.084	100.22
741.265	100.67
741.447	100.3
741.628	99.5
741.81	100.45
741.991	100.18
742.172	99.46
742.354	98.96
742.535	99.84
742.717	99.76
742.898	101.03
743.079	100.48
743.261	100.23
743.442	100.71
743.623	99.96
743.804	99.7
743.986	100.58
744.167	101.6
744.348	100.74
744.529	100.95
744.71	99.9
744.891	99.45
745.073	98.92
745.254	99.65
745.435	100.1
745.616	100.61
745.797	100.13
745.978	100.41
746.159	100.78
746.34	101.53
746.521	101.12
746.702	101.41
746.883	100.89
747.064	99.83
747.245	99.9
747.426	100.39
747.606	98.8
747.787	98.93
747.968	98.81
748.149	98.23
748.33	97.66
748.51	99.43
748.691	99.05
748.872	99.51
749.053	98.48
749.233	98.49
749.414	97.87
749.595	98.94
749.775	100
749.956	101.25
750.137	103.12
750.317	103.2
750.498	103.31
750.678	103.18
750.859	102.65
751.04	100.96
751.22	101.73
751.4	100.17
751.581	98.72
751.761	99.5
751.942	98.72
752.122	98.84
752.303	99.25
752.483	99.44
752.663	98.32
752.844	99.29
753.024	99.09
753.204	100.04
753.385	99
753.565	99.96
753.745	101.12
753.925	100.86
754.106	100.06
754.286	100.74
754.466	99.66
754.646	98.77
754.826	97.47
755.006	97.76
755.187	99.06
755.367	100.38
755.547	100.88
755.727	101.94
755.907	101.4
756.087	100.64
756.267	99.14
756.447	98.86
756.627	98.76
756.807	98.25
756.987	97.43
757.167	98.73
757.346	99.24
757.526	98.84
757.706	98.75
757.886	98.33
758.066	97.68
758.246	96.44
758.425	98.69
758.605	101.17
758.785	103.16
758.965	104.96
759.144	106.94
759.324	104.94
759.504	103.82
759.683	103.95
759.863	101.87
760.043	100.93
760.222	101.3
760.402	100.6
760.581	100.91
760.761	98.72
760.94	97.16
761.12	97.6
761.299	97.15
761.479	96.87
761.658	97.87
761.838	99.72
762.017	100.02
762.197	99.63
762.376	97.91
762.555	97.22
762.735	97.01
762.914	94.37
763.093	94.9
763.273	95.6
763.452	96.31
763.631	93.42
763.81	94.29
763.99	95.91
764.169	96.75
764.348	98.03
764.527	98.48
764.706	97.5
764.885	96.58
765.064	96.57
765.243	96.74
765.423	98.79
765.602	99.24
765.781	99.47
765.96	97.53
766.139	96.26
766.318	94.38
766.497	95.72
766.676	95.81
766.854	96.57
767.033	97.55
767.212	98.84
767.391	97.86
767.57	97.81
767.749	96.48
767.928	96.49
768.106	96.66
768.285	96.05
768.464	95.12
768.643	96.42
768.821	95.79
769	95.08
769.179	96.92
769.357	96.26
769.536	94.97
769.715	95.56
769.893	95.79
770.072	92.65
770.25	94.66
770.429	96.67
770.607	95.66
770.786	98.29
770.964	99.62
771.143	97.98
771.321	97.5
771.5	99.4
771.678	97.1
771.857	97.02
772.035	98.24
772.213	98
772.392	95.37
772.57	95.56
772.748	96.48
772.927	95.83
773.105	93.78
773.283	94.04
773.461	93.64
773.64	94.12
773.818	94.58
773.996	94.13
774.174	95.4
774.352	92.9
774.531	92.8
774.709	92.47
774.887	96.4
775.065	97.18
775.243	100.84
775.421	100.28
775.599	99.68
775.777	97.74
775.955	94.78
776.133	95.18
776.311	98.09
776.489	98.91
776.667	99.61
776.844	103.05
777.022	103.37
777.2	102.27
777.378	99.65
777.556	98.94
777.734	95.24
777.911	93.12
778.089	90.01
778.267	89.75
778.445	88.22
778.622	89.96
778.8	89.81
778.978	90.72
779.155	90.96
779.333	91.54
779.511	89.85
779.688	88.57
779.866	87.94
780.043	88.04
780.221	91.13
780.398	91.58
780.576	94.19
780.753	94.86
780.931	94.8
781.108	93.76
781.286	95.47
781.463	94.83
781.64	96.12
781.818	97.68
781.995	95.46
782.172	94.95
782.35	95.95
782.527	95.47
782.704	94.98
782.882	94.95
783.059	93.6
783.236	90.93
783.413	91.41
783.59	89.9
783.768	90.88
783.945	96.06
784.122	96.27
784.299	95.55
784.476	98.51
784.653	98.49
784.83	97.37
785.007	98.79
785.184	99.08
785.361	94.65
785.538	93.71
785.715	90.31
785.892	88.55
786.069	90.29
786.246	92.39
786.423	94.91
786.6	95.32
786.776	99.18
786.953	95.1
787.13	94.98
787.307	91.75
787.484	95.4
787.66	95.11
787.837	97.5
788.014	96.74
788.191	98.12
788.367	95.7
788.544	94.03
788.721	91.45
788.897	93.52
789.074	94.49
789.25	91.72
789.427	91.21
789.603	90.11
789.78	88.89
789.956	89.92
790.133	92
790.309	96.68
790.486	99.15
790.662	101.64
790.839	102.35
791.015	101.27
791.192	97.83
791.368	100.5
791.544	98.38
791.721	99.01
791.897	100.13
792.073	100.65
792.249	96.34
792.426	98.17
792.602	94.83
792.778	93.06
792.954	91.36
793.13	88.68
793.307	88.45
793.483	90.13
793.659	90.32
793.835	90.03
794.011	96.17
794.187	95.45
794.363	91.7
794.539	88.45
794.715	90.4
794.891	89.04
795.067	87.68
795.243	91.06
795.419	96.88
795.595	98.74
795.771	97.89
795.947	98.18
796.122	95.3
796.298	92.23
796.474	85.48
796.65	87.93
796.826	84.7
797.001	88.02
797.177	88.35
797.353	91.02
797.529	91.64
797.704	94.52
797.88	89.62
798.056	91.88
798.231	92.97
798.407	89.9
798.582	85.66
798.758	87
798.934	89.77
799.109	89.32
799.285	88.32
799.46	92.09
799.636	92.5
799.811	86.14
799.986	84.59
800.162	84.36
800.337	87.41
800.513	88.15
800.688	86.05
800.863	89.55
801.039	91.63
801.214	94.61
801.389	95.17
801.565	96.55
801.74	101.25
801.915	101.53
802.09	94.41
802.265	94.86
802.441	98.94
802.616	88.55
802.791	86.49
802.966	91.36
803.141	90.22
803.316	87.5
803.491	87.18
803.666	88.4
803.841	85.12
804.016	85.25
804.191	82.4
804.366	99.84
804.541	98.39
804.716	100.26
804.891	98.79
805.066	107.48
805.241	91.49
805.416	88.99
805.591	78.77
805.765	81.66
805.94	79.15
806.115	77.1
806.29	80.84
806.464	90.96
806.639	88.91
806.814	84.59
806.989	86.7
807.163	78.13
807.338	71.4
807.512	67.81
807.687	79.08
807.862	74.76
808.036	78.98
808.211	85.8
808.385	86.93
808.56	81.23
808.734	83.51
808.909	88.01
809.083	80.99
809.258	81.78
809.432	77.23
809.606	77.46
809.781	68.02
809.955	69.73
810.13	67.99
810.304	71.88
810.478	70.78
810.652	75
810.827	78.26
811.001	87.33
811.175	87.41
811.349	94.89
811.524	92.38
811.698	91.72
811.872	87.36
812.046	84.79
812.22	77.8
812.394	84.52
812.568	87.29
812.742	88.26
812.916	89.98
813.09	93
813.264	99.63
813.438	101.78
813.612	104.01
813.786	99.81
813.96	105.26
814.134	91.56
814.308	87.86
814.482	86.24
814.656	88.07
814.83	84.32
815.003	93.96
815.177	90.46
815.351	85.11
815.525	89
815.698	88.52
815.872	84.31
816.046	93.62
816.219	96.21
816.393	94.83
816.567	88.16
816.74	84.2
816.914	73.14
817.088	72.92
817.261	75.17
817.435	79.86
817.608	83.14
817.782	82.85
817.955	94.25
818.129	95.34
818.302	91.26
818.475	93.15
818.649	103.64
818.822	91.57
818.996	82.98
819.169	84.35
819.342	76.72
819.516	63.3
819.689	62.66
819.862	69.91
820.035	72.25
820.209	67.18
820.382	86.34
820.555	85.72
820.728	84.8
820.901	73.63
821.075	81.37
821.248	77.4
821.421	84.64
821.594	84.02
821.767	97.33
821.94	96.07
822.113	81.73
822.286	72.75
822.459	71.21
822.632	67.5
822.805	74.84
822.978	74.78
823.151	80.83
823.324	77.76
823.496	87.6
823.669	75.56
823.842	77.73
824.015	83.91
824.188	85.95
824.361	91.58
824.533	104.1
824.706	101.31
824.879	79.41
825.051	78.86
825.224	57.25
825.397	62.82
825.569	61.3
825.742	67.5
825.915	67.84
826.087	71.06
826.26	69.34
826.432	91.76
826.605	98.33
826.777	99.16
826.95	95.99
827.122	81.03
827.295	69.37
827.467	71.37
827.64	57.48
827.812	58.88
827.984	64.79
828.157	63.49
828.329	69.06
828.501	89.91
828.674	83.54
828.846	89.39
829.018	89.98
829.19	86.87
829.363	82.61
829.535	89.79
829.707	87
829.879	100.36
830.051	94.23
830.223	101.72
830.395	99.01
830.568	83.75
830.74	77.75
830.912	71
831.084	61.48
831.256	63.73
831.428	68.44
831.6	71.79
831.772	80.39
831.943	90.39
832.115	93.55
832.287	106.91
832.459	99.05
832.631	102.51
832.803	106.12
832.975	118.87
833.146	103.94
833.318	107.66
833.49	112.88
833.662	122.23
833.833	111.53
834.005	122.04
834.177	146.9
834.348	161.06
834.52	121.78
834.692	118.65
834.863	108.4
835.035	94.79
835.206	77.05
835.378	69.24
835.549	76.04
835.721	80.44
835.892	80.99
836.064	93.44
836.235	108.03
836.407	99.2
836.578	86.72
836.749	81.38
836.921	71.78
837.092	72.89
837.264	61.17
837.435	63.07
837.606	62.86
837.777	72.91
837.949	62.79
838.12	75.83
838.291	92.84
838.462	108.04
838.633	107.61
838.805	90.73
838.976	92.12
839.147	71.96
839.318	46.07
839.489	57.55
839.66	87.87
839.831	93.75
840.002	88.01
840.173	120.54
840.344	107.8
840.515	108.29
840.686	93.33
840.857	90.91
841.028	94.7
841.199	86.26
841.369	76.03
841.54	99.53
841.711	121.3
841.882	104.17
842.053	88.3
842.223	99.26
842.394	84.33
842.565	77.22
842.736	91.4
842.906	165.4
843.077	90.12
843.248	132.8
843.418	100.14
843.589	60.85
843.759	59.06
843.93	68.34
844.101	65.13
844.271	56.07
844.442	73.48
844.612	75.08
844.783	77.59
844.953	73.84
845.123	92.08
845.294	72.56
845.464	75.13
845.635	76.12
845.805	96.7
845.975	96.32
846.146	155.4
846.316	133.49
846.486	170.15
846.656	128.55
846.827	122.5
846.997	101.63
847.167	62.42
847.337	36.1
847.507	42.47
847.677	48.89
847.848	60.42
848.018	128.41
848.188	133.82
848.358	128.96
848.528	138.06
848.698	147.15
848.868	129.31
849.038	128.24
849.208	76.16
849.378	67.22
849.548	48.09
849.718	56.08
849.887	60.57
850.057	64.18
850.227	65.01
850.397	54.52
850.567	50.92
850.737	38.62
850.906	41.81
851.076	34.09
851.246	41.26
851.415	36.35
851.585	43.46
851.755	46.99
851.924	58.21
852.094	60.79
852.264	60.82
852.433	59.53
852.603	71.06
852.772	79.56
852.942	102.24
853.111	95.86
853.281	102.32
853.45	92.81
853.62	81
853.789	59.07
853.959	87.18
854.128	94.68
854.297	100.56
854.467	161.29
854.636	164.71
854.805	84.52
854.975	83.47
855.144	80.02
855.313	58.5
855.482	63.06
855.652	84.61
855.821	83.84
855.99	65.93
856.159	60.31
856.328	74.72
856.497	74.33
856.667	57.83
856.836	85.72
857.005	110.87
857.174	69.78
857.343	69.37
857.512	89.2
857.681	31.86
857.85	10.71
858.019	2.41
858.188	-4.09
858.356	10.59
858.525	46.24
858.694	45.23
858.863	52.75
859.032	60.6
859.201	48.09
859.369	51.19
859.538	62.68
859.707	72.55
859.876	76.38
860.044	90.67
860.213	103.15
860.382	125.78
860.55	129.52
860.719	163.18
860.888	134.3
861.056	120.26
861.225	114.03
861.393	121.01
861.562	85.69
861.73	92.13
861.899	61.39
862.067	65.45
862.236	54.18
862.404	61.03
862.572	57.44
862.741	53.96
862.909	32.68
863.078	31.9
863.246	35.81
863.414	28.6
863.582	35.09
863.751	55.26
863.919	67.31
864.087	97.96
864.255	79.09
864.424	75.84
864.592	67.58
864.76	82.01
864.928	64.18
865.096	62.25
865.264	57.97
865.432	61.72
865.6	47.54
865.768	44.4
865.936	72.97
866.104	76.61
866.272	86.4
866.44	94.72
866.608	73.9
866.776	68.39
866.944	88.32
867.112	88.99
867.28	86.64
867.448	98.07
867.615	86.83
867.783	79.29
867.951	73.71
868.119	79.12
868.286	100.71
868.454	103.89
868.622	105
868.789	114.95
868.957	104.26
869.125	88.32
869.292	72.43
869.46	57.65
869.627	69.89
869.795	69.34
869.963	74.72
870.13	79.96
870.298	79.37
870.465	62.03
870.632	56.83
870.8	64.19
870.967	94.19
871.135	112.02
871.302	70.22
871.469	79.16
871.637	64.18
871.804	45.72
871.971	38.26
872.139	65.73
872.306	56.53
872.473	73.04
872.64	64.54
872.807	62.3
872.975	55.67
873.142	60.14
873.309	31.1
873.476	42.89
873.643	20.58
873.81	22.24
873.977	23.01
874.144	41.83
874.311	31.68
874.478	61.18
874.645	76.19
874.812	95.26
874.979	77.36
875.146	71.68
875.313	58.88
875.48	53.96
875.647	37.88
875.813	72.19
875.98	90.1
876.147	70.88
876.314	90.23
876.481	90.56
876.647	124.27
876.814	140.41
876.981	146.03
877.147	137.69
877.314	123.07
877.481	109.66
877.647	84.36
877.814	71.57
877.98	89.24
878.147	64.65
878.314	44.09
878.48	64.43
878.647	93.26
878.813	55.5
878.979	40.67
879.146	54.72
879.312	36.61
879.479	33.77
879.645	39.57
879.811	61.9
879.978	44.78
880.144	74.23
880.31	76.56
880.477	59.75
880.643	68.75
880.809	44.51
880.975	-2.94
881.142	-99.41
881.308	-47.86
881.474	-66.52
881.64	11.2
881.806	-118.1
881.972	46.16
882.138	152.21
882.304	56.19
882.47	9.03
882.636	42.95
882.802	34.91
882.968	28.21
883.134	48.09
883.3	82.74
883.466	93.81
883.632	99.37
883.798	77.64
883.964	103.97
884.129	82.48
884.295	22.58
884.461	94.94
884.627	126.75
884.793	86.7
884.958	83.25
885.124	91.2
885.29	82.17
885.455	75.05
885.621	76.25
885.787	62.9
885.952	48.48
886.118	40.05
886.283	43.1
886.449	44.23
886.614	40.43
886.78	66.86
886.945	87.9
887.111	84.86
887.276	76.3
887.442	89.82
887.607	80.12
887.773	55.67
887.938	37.23
888.103	18.34
888.269	36.44
888.434	28.61
888.599	29.15
888.764	23.71
888.93	35.7
889.095	15.43
889.26	24.14
889.425	23.26
889.59	56.45
889.756	49.41
889.921	42.1
890.086	54.81
890.251	40.05
890.416	-1.79
890.581	19.49
890.746	78.32
890.911	91.97
891.076	131.19
891.241	150.74
891.406	117.47
891.571	47.13
891.736	30.91
891.901	37.74
892.065	38.73
892.23	83.9
892.395	135.56
892.56	119.97
892.725	181.78
892.889	139.85
893.054	104.69
893.219	102.06
893.384	112.04
893.548	69.44
893.713	68.54
893.878	44.75
