Data from Ofav_PP_Phys_367_Reflection_1.txt Node
Date: Tue Jul 27 19:08:01 EDT 2021
User: USUARIO
Spectrometer: FLMT01687
Trigger mode: 0
Integration Time (sec): 8.500000E-1
Scans to average: 2
Electric dark correction enabled: true
Nonlinearity correction enabled: false
Boxcar width: 2
XAxis mode: Wavelengths
Number of Pixels in Spectrum: 3648
>>>>>Begin Spectral Data<<<<<
179.494	-1311.85
179.716	-443.82
179.937	-330.46
180.158	-289.32
180.38	-301.26
180.601	-293.12
180.823	87.41
181.044	61.57
181.265	35.77
181.486	-0.14
181.708	-28.23
181.929	23.17
182.15	39.01
182.372	-8.12
182.593	6.04
182.814	58.23
183.035	90.58
183.257	70.79
183.478	48.55
183.699	53.36
183.92	65.83
184.141	57.1
184.363	78.5
184.584	111.16
184.805	126.08
185.026	107.73
185.247	120.19
185.468	115.48
185.689	88.47
185.91	66.57
186.132	49.41
186.353	50.64
186.574	51.89
186.795	56.6
187.016	65.49
187.237	55.27
187.458	70.61
187.679	56.3
187.9	59.42
188.121	67.38
188.342	94.16
188.563	105.31
188.784	114.55
189.005	102.92
189.226	87.48
189.447	76.44
189.667	73.67
189.888	84.02
190.109	98.37
190.33	121.71
190.551	100.5
190.772	74.75
190.993	42.42
191.214	38.31
191.434	50.92
191.655	68.56
191.876	77.57
192.097	72.66
192.318	71.79
192.538	60.21
192.759	62.09
192.98	56.76
193.201	57.96
193.421	65.1
193.642	49.46
193.863	35.51
194.083	49.01
194.304	54.65
194.525	36.77
194.745	14.92
194.966	11.17
195.187	-10.61
195.407	27.17
195.628	76.87
195.848	115.16
196.069	127.97
196.29	220.17
196.51	183.77
196.731	141.13
196.951	111.81
197.172	97.44
197.392	68.53
197.613	77.23
197.833	49.17
198.054	79.12
198.274	83.57
198.495	95.6
198.715	114.03
198.936	149.89
199.156	117.86
199.377	131.42
199.597	143.39
199.817	80.51
200.038	119.99
200.258	101.09
200.479	60.72
200.699	38.26
200.919	49.88
201.14	39.65
201.36	35.7
201.58	55.93
201.801	91.21
202.021	77.26
202.241	92.89
202.461	92.66
202.682	73.56
202.902	57.82
203.122	52.85
203.342	73.64
203.563	76.3
203.783	60.86
204.003	57.84
204.223	48.03
204.443	32.2
204.663	5.05
204.884	62.21
205.104	33.83
205.324	56.79
205.544	61.7
205.764	62.27
205.984	43.99
206.204	89.44
206.424	108.51
206.644	81.74
206.864	88.73
207.084	81.74
207.304	80.22
207.525	53.29
207.745	65.06
207.964	47.59
208.184	60.54
208.404	47.9
208.624	64.89
208.844	74.84
209.064	77.3
209.284	71.33
209.504	79.11
209.724	84.73
209.944	0.04
210.164	23.93
210.384	55.67
210.604	31.58
210.823	41.87
211.043	58.79
211.263	68.01
211.483	76.85
211.703	78.99
211.922	103.44
212.142	165.66
212.362	89.3
212.582	76.73
212.801	72.08
213.021	59.98
213.241	20.22
213.461	47.31
213.68	63.41
213.9	62.48
214.12	61.91
214.339	94.57
214.559	86.58
214.779	71.47
214.998	66.06
215.218	59.83
215.438	59.15
215.657	50.75
215.877	52.43
216.096	54.67
216.316	78.95
216.535	60.83
216.755	82.8
216.974	87.62
217.194	101.54
217.413	84.5
217.633	86.7
217.852	62.26
218.072	54.7
218.291	44.29
218.511	48.42
218.73	54.27
218.95	60.27
219.169	65.81
219.389	69.04
219.608	58.98
219.827	77.18
220.047	102.95
220.266	76.61
220.485	68.36
220.705	71.73
220.924	67.58
221.143	60.25
221.363	60.54
221.582	58.27
221.801	45.75
222.021	39.15
222.24	42.51
222.459	38.89
222.678	41.49
222.897	43.7
223.117	46.23
223.336	33.94
223.555	25.42
223.774	23.32
223.993	33.67
224.213	20.91
224.432	28.43
224.651	40.2
224.87	35.99
225.089	22.35
225.308	19.01
225.527	36.21
225.746	32.84
225.965	42.53
226.184	59.81
226.404	75.62
226.623	69.28
226.842	54.1
227.061	39.41
227.28	31.83
227.499	43.72
227.718	44.38
227.936	51.97
228.155	59.14
228.374	60.47
228.593	46.47
228.812	39.61
229.031	41.36
229.25	42.03
229.469	29.07
229.688	35.92
229.907	26.24
230.125	46.64
230.344	46
230.563	38.94
230.782	51.35
231.001	43.49
231.22	40
231.438	33.68
231.657	31.42
231.876	16.64
232.095	42.42
232.313	34.22
232.532	30.8
232.751	55.41
232.969	71.34
233.188	60.18
233.407	60.5
233.625	77.4
233.844	53.35
234.063	38.32
234.281	63.7
234.5	59.21
234.719	62.37
234.937	53.03
235.156	59.07
235.374	37.46
235.593	54.8
235.811	38.88
236.03	41.92
236.249	24.38
236.467	37.1
236.686	14.99
236.904	21.23
237.123	41.49
237.341	61.65
237.559	49.25
237.778	75.7
237.996	87.4
238.215	73.97
238.433	60.56
238.652	62.74
238.87	42.94
239.088	16.98
239.307	32.45
239.525	13.76
239.743	5.19
239.962	8.5
240.18	26.49
240.398	13.42
240.617	23.72
240.835	32.67
241.053	55.78
241.271	55.18
241.49	66.28
241.708	95.05
241.926	75.71
242.144	47.48
242.363	48.52
242.581	48.5
242.799	26.14
243.017	35.39
243.235	49.84
243.453	31.99
243.672	43.58
243.89	44.22
244.108	50.47
244.326	60.08
244.544	49.67
244.762	37.37
244.98	53.71
245.198	40.04
245.416	28.7
245.634	73.13
245.852	102.63
246.07	87.97
246.288	98.13
246.506	90.85
246.724	79.3
246.942	72.6
247.16	78.12
247.378	64.45
247.596	77.78
247.814	68.5
248.032	54.61
248.25	47.86
248.468	55.48
248.685	35.18
248.903	43.96
249.121	58.14
249.339	67.44
249.557	60.64
249.775	43.62
249.992	31.08
250.21	24.89
250.428	21.37
250.646	19.32
250.863	41.17
251.081	53.34
251.299	57.33
251.517	49.41
251.734	63.93
251.952	69.29
252.17	85.72
252.387	74.42
252.605	79.02
252.823	59.26
253.04	72.78
253.258	65.93
253.475	54.87
253.693	61.67
253.911	70.83
254.128	45.4
254.346	47.07
254.563	61.17
254.781	45.17
254.998	41.07
255.216	16.81
255.433	15.08
255.651	25.38
255.868	12.98
256.086	10.96
256.303	33.88
256.521	35.87
256.738	26.57
256.956	35.01
257.173	48.33
257.39	53.57
257.608	59.25
257.825	84.6
258.043	83.28
258.26	80.25
258.477	72.6
258.695	67.42
258.912	47.18
259.129	49.72
259.346	51.43
259.564	79.28
259.781	98.47
259.998	92.42
260.216	95.86
260.433	93.7
260.65	84.5
260.867	72.18
261.084	85.34
261.302	78.13
261.519	68.8
261.736	52
261.953	60.27
262.17	43.95
262.387	39.44
262.604	46.02
262.822	57.65
263.039	48.82
263.256	65.56
263.473	87.97
263.69	104.67
263.907	88.4
264.124	89.1
264.341	80.1
264.558	62.15
264.775	52.95
264.992	60.52
265.209	52.99
265.426	40.02
265.643	44.07
265.86	38.8
266.077	36.01
266.294	57.23
266.51	69.66
266.727	64.76
266.944	61.05
267.161	19.66
267.378	7.26
267.595	12.86
267.812	26.6
268.028	42.41
268.245	88.43
268.462	78.53
268.679	62.12
268.896	45.23
269.112	29.55
269.329	36.67
269.546	52.36
269.763	41.43
269.979	55.1
270.196	65.22
270.413	70.14
270.629	62.49
270.846	94.73
271.063	68.55
271.279	62.63
271.496	55.9
271.712	45.49
271.929	6.6
272.146	13.53
272.362	24.48
272.579	30.2
272.795	55.27
273.012	61.45
273.228	61.98
273.445	65.73
273.661	79.09
273.878	61.41
274.094	50.71
274.311	47.88
274.527	27.83
274.744	17.98
274.96	30.78
275.177	38.08
275.393	31.51
275.609	40.18
275.826	31.31
276.042	13.65
276.259	30.35
276.475	30.57
276.691	31.74
276.908	32.32
277.124	48.48
277.34	51.1
277.557	46
277.773	60.92
277.989	66.21
278.205	55.36
278.422	49.99
278.638	58.74
278.854	54.57
279.07	53.06
279.286	56.35
279.503	42.29
279.719	55.88
279.935	68.03
280.151	74.25
280.367	72.21
280.583	87.8
280.799	83.71
281.016	76
281.232	66.38
281.448	48.42
281.664	29.03
281.88	12.81
282.096	6.24
282.312	9.23
282.528	28.1
282.744	41.97
282.96	49.59
283.176	82.35
283.392	116.91
283.608	131.41
283.824	97.7
284.04	77.53
284.256	60.93
284.471	34.76
284.687	31.42
284.903	41.28
285.119	61.6
285.335	65.51
285.551	61.99
285.767	55.05
285.982	44.72
286.198	39.34
286.414	29.72
286.63	34.45
286.846	23.69
287.061	18.01
287.277	7.92
287.493	1.28
287.709	12.63
287.924	25.42
288.14	54.62
288.356	84.34
288.571	94.72
288.787	84.27
289.003	84.96
289.218	70.65
289.434	45.43
289.65	33.93
289.865	7.55
290.081	27.37
290.296	30.11
290.512	32.03
290.727	43.02
290.943	79.98
291.159	84.76
291.374	96.7
291.59	86.75
291.805	82.26
292.021	78.46
292.236	82.08
292.451	65.01
292.667	67.08
292.882	52.81
293.098	35.65
293.313	36.56
293.529	51.04
293.744	45.76
293.959	58.94
294.175	70.02
294.39	65.16
294.605	66.77
294.821	62.54
295.036	58.09
295.251	63.18
295.467	52.29
295.682	36.75
295.897	42.41
296.112	52.38
296.328	53.92
296.543	64.62
296.758	58.73
296.973	67.6
297.188	67.79
297.404	56.97
297.619	51.26
297.834	51.37
298.049	51.65
298.264	55.13
298.479	63.66
298.694	58.86
298.909	51.18
299.125	40.25
299.34	29.76
299.555	39.39
299.77	55.52
299.985	61.64
300.2	73.87
300.415	79.2
300.63	48.42
300.845	38.05
301.06	37.42
301.275	11.05
301.49	27.28
301.704	34.19
301.919	35.3
302.134	45.98
302.349	60.31
302.564	45.58
302.779	49.74
302.994	47.3
303.209	55.58
303.423	39.78
303.638	25.74
303.853	20.36
304.068	30.77
304.283	20.81
304.497	27.08
304.712	40.37
304.927	40.31
305.142	35.02
305.356	28.82
305.571	43.55
305.786	44.98
306	47.42
306.215	55.84
306.43	59.67
306.644	59.11
306.859	68.07
307.074	66.7
307.288	60.27
307.503	69.14
307.717	64.21
307.932	64.44
308.147	84.16
308.361	76.23
308.576	72.08
308.79	79.39
309.005	70.83
309.219	49.34
309.434	60.28
309.648	55.67
309.863	53.57
310.077	55.18
310.292	48.91
310.506	33.85
310.72	39.26
310.935	28.9
311.149	27.3
311.364	40.45
311.578	42.28
311.792	49.41
312.007	44.73
312.221	48.21
312.435	49.99
312.649	67.81
312.864	38.64
313.078	29.04
313.292	18.45
313.507	39.46
313.721	41.01
313.935	56.97
314.149	56.55
314.363	49.63
314.578	38.27
314.792	24.94
315.006	27.62
315.22	40.43
315.434	45.32
315.648	54.39
315.862	60.51
316.077	69.03
316.291	85.43
316.505	78.86
316.719	70.95
316.933	66.06
317.147	52.18
317.361	30.64
317.575	24.77
317.789	10.72
318.003	11.64
318.217	19.59
318.431	14.24
318.645	25.57
318.859	41.23
319.073	36.58
319.287	39.69
319.5	43.34
319.714	42.04
319.928	42.65
320.142	17.82
320.356	44.9
320.57	55.61
320.784	65.15
320.997	71.55
321.211	83
321.425	64.76
321.639	39.54
321.853	21.86
322.066	14.14
322.28	8.42
322.494	6.32
322.707	20.85
322.921	25.73
323.135	21.13
323.349	27.91
323.562	34.88
323.776	43.02
323.989	27.48
324.203	40.46
324.417	36.72
324.63	45.6
324.844	51.04
325.057	63.98
325.271	75.37
325.485	66.2
325.698	80.57
325.912	90.93
326.125	95.82
326.339	85.43
326.552	92.66
326.766	82.74
326.979	58.38
327.193	49.92
327.406	43.5
327.619	54.74
327.833	48.29
328.046	64.6
328.26	53.66
328.473	54.07
328.686	40.26
328.9	41.72
329.113	30.99
329.326	33.8
329.54	57.77
329.753	60.62
329.966	73.71
330.179	62.18
330.393	67.46
330.606	32.48
330.819	35.52
331.032	32.26
331.246	51.36
331.459	39.31
331.672	47.24
331.885	58.9
332.098	68.54
332.311	70.1
332.525	76.13
332.738	56.23
332.951	50.06
333.164	44.93
333.377	32.18
333.59	26.04
333.803	45.61
334.016	40.05
334.229	29.07
334.442	46.65
334.655	58.4
334.868	64.75
335.081	74.58
335.294	83.79
335.507	82.16
335.72	90.58
335.933	64.52
336.146	46.49
336.359	43.32
336.572	46.5
336.785	33.75
336.997	48.59
337.21	66.39
337.423	69.83
337.636	57.02
337.849	53.72
338.062	51.4
338.274	54.75
338.487	62.2
338.7	48.5
338.913	47.53
339.125	48.47
339.338	24.96
339.551	5.3
339.763	29.43
339.976	45.16
340.189	40.06
340.402	50.6
340.614	47.74
340.827	53.56
341.039	33.5
341.252	32.98
341.465	22.82
341.677	37.17
341.89	15.79
342.102	33.28
342.315	41.9
342.527	47.96
342.74	50.18
342.952	37.28
343.165	39.87
343.377	33.29
343.59	21.29
343.802	21
344.015	48.88
344.227	45.86
344.44	41.25
344.652	65.11
344.864	71.12
345.077	42.3
345.289	38.85
345.502	39.06
345.714	34.84
345.926	22.55
346.139	18.91
346.351	21.06
346.563	26.55
346.775	31.57
346.988	31.5
347.2	34.15
347.412	59.83
347.624	55.92
347.837	52.92
348.049	53.28
348.261	60.81
348.473	60.2
348.685	72.7
348.897	87.89
349.11	97.26
349.322	85.97
349.534	72.71
349.746	66.2
349.958	57.71
350.17	53.37
350.382	50.74
350.594	36.87
350.806	50.58
351.018	50.3
351.23	45.82
351.442	52.87
351.654	81.69
351.866	52.84
352.078	56.37
352.29	48.04
352.502	54.37
352.714	40.68
352.926	50.71
353.138	42.39
353.35	46.62
353.561	37.58
353.773	45.74
353.985	42.61
354.197	38.09
354.409	47.53
354.621	48.31
354.832	46.4
355.044	45.57
355.256	57.04
355.468	56.16
355.679	62.21
355.891	62.8
356.103	68.41
356.314	63.46
356.526	66.44
356.738	62.32
356.949	52.77
357.161	56.91
357.373	47.84
357.584	52.81
357.796	50.75
358.008	57.87
358.219	48.43
358.431	55.7
358.642	39.19
358.854	51.95
359.065	47.7
359.277	53.71
359.488	56.41
359.7	63.34
359.911	59.59
360.123	64.52
360.334	62.99
360.546	52
360.757	50.77
360.969	39.29
361.18	39.25
361.391	35.18
361.603	41.85
361.814	43.96
362.025	55.78
362.237	54.35
362.448	54.21
362.659	47.16
362.871	49.3
363.082	45.1
363.293	47.72
363.504	64.78
363.716	74.08
363.927	68.7
364.138	59.34
364.349	42.45
364.56	35.5
364.772	31.14
364.983	34.88
365.194	30.85
365.405	46.6
365.616	39.49
365.827	44.78
366.038	50.98
366.25	59.59
366.461	51.46
366.672	46.54
366.883	33.79
367.094	29.38
367.305	27.88
367.516	25.27
367.727	39.26
367.938	43.28
368.149	44.11
368.36	53.03
368.571	44.17
368.781	38.56
368.992	41.9
369.203	36.57
369.414	23.41
369.625	39.92
369.836	44.21
370.047	42.93
370.258	45.7
370.468	51.84
370.679	38.56
370.89	32.59
371.101	33.5
371.312	36.87
371.522	33.33
371.733	43.49
371.944	44.02
372.155	40.76
372.365	29.6
372.576	32.83
372.787	33.83
372.997	38.4
373.208	41.62
373.419	43.12
373.629	47.07
373.84	48.37
374.05	41.05
374.261	37.75
374.472	47.57
374.682	36.63
374.893	37.08
375.103	39.5
375.314	47.42
375.524	53.36
375.735	56.2
375.945	52.6
376.156	57.36
376.366	50.83
376.577	37.11
376.787	40.16
376.997	44.88
377.208	44.53
377.418	43.14
377.629	51.42
377.839	74.4
378.049	62.16
378.26	51.86
378.47	54.17
378.68	57.94
378.89	37.94
379.101	28.03
379.311	26.9
379.521	24.25
379.732	17.04
379.942	34.25
380.152	45.57
380.362	60.66
380.572	61.82
380.783	67.04
380.993	44.66
381.203	46.26
381.413	34.07
381.623	35.68
381.833	28.4
382.043	35.12
382.253	29.09
382.463	30.94
382.674	31.74
382.884	27.45
383.094	20.84
383.304	31.94
383.514	34.16
383.724	22.55
383.934	27.25
384.144	24.63
384.353	15.97
384.563	13.07
384.773	21.19
384.983	13.37
385.193	18.46
385.403	21.51
385.613	23.67
385.823	20.12
386.033	25.81
386.242	25.92
386.452	24.27
386.662	27.4
386.872	26.32
387.082	23.01
387.291	11.29
387.501	11.99
387.711	7.27
387.921	9.22
388.13	13.66
388.34	20.96
388.55	18.94
388.759	18.45
388.969	15.57
389.179	16.68
389.388	19.41
389.598	21.27
389.807	18.39
390.017	20.59
390.227	18.51
390.436	16.61
390.646	14.18
390.855	13.48
391.065	10.43
391.274	9.8
391.484	7.62
391.693	7.6
391.903	10.19
392.112	12.63
392.322	11.75
392.531	10.97
392.74	10.55
392.95	9.25
393.159	8.65
393.369	8.7
393.578	10.11
393.787	10.35
393.997	11.27
394.206	11.51
394.415	11.69
394.625	10.76
394.834	10.36
395.043	11.02
395.252	10.67
395.462	10.81
395.671	10.73
395.88	11.8
396.089	11.5
396.298	11.16
396.508	10.94
396.717	11.18
396.926	10.24
397.135	9.22
397.344	8.76
397.553	8.98
397.762	8.23
397.971	8.02
398.181	8.06
398.39	7.97
398.599	7.81
398.808	8.25
399.017	8.7
399.226	8.78
399.435	9.22
399.644	9.42
399.853	9.56
400.062	9.53
400.27	9.29
400.479	8.97
400.688	8.33
400.897	8.18
401.106	8.08
401.315	8.24
401.524	8.14
401.733	8.11
401.941	7.85
402.15	7.63
402.359	7.55
402.568	7.42
402.777	7.54
402.985	7.57
403.194	7.89
403.403	7.85
403.612	7.99
403.82	7.98
404.029	8.05
404.238	7.9
404.446	7.77
404.655	7.79
404.864	7.77
405.072	7.76
405.281	7.63
405.489	7.7
405.698	7.6
405.906	7.57
406.115	7.41
406.324	7.23
406.532	6.97
406.741	6.93
406.949	6.92
407.158	6.98
407.366	7.01
407.574	7.24
407.783	7.1
407.991	7.1
408.2	7.03
408.408	7.14
408.617	7
408.825	7.02
409.033	6.93
409.242	6.85
409.45	6.79
409.658	6.75
409.867	6.79
410.075	6.69
410.283	6.73
410.491	6.67
410.7	6.68
410.908	6.66
411.116	6.63
411.324	6.63
411.533	6.48
411.741	6.31
411.949	6.23
412.157	6.3
412.365	6.43
412.573	6.4
412.781	6.53
412.99	6.68
413.198	6.77
413.406	6.66
413.614	6.72
413.822	6.63
414.03	6.5
414.238	6.25
414.446	6.18
414.654	6.24
414.862	6.31
415.07	6.26
415.278	6.21
415.486	6.08
415.694	5.98
415.902	6
416.109	6.06
416.317	6.19
416.525	6.2
416.733	6.27
416.941	6.35
417.149	6.15
417.357	6.18
417.564	6.14
417.772	6.01
417.98	5.95
418.188	6.13
418.395	5.96
418.603	6.01
418.811	6.16
419.019	5.96
419.226	5.97
419.434	6.2
419.642	6.28
419.849	6.22
420.057	6.15
420.265	6.21
420.472	5.98
420.68	6
420.887	6.1
421.095	6.31
421.302	6.11
421.51	5.94
421.717	5.78
421.925	5.61
422.132	5.6
422.34	5.59
422.547	5.72
422.755	5.82
422.962	5.73
423.17	5.72
423.377	5.81
423.585	6.03
423.792	6.05
423.999	6.08
424.207	5.93
424.414	5.78
424.621	5.67
424.829	5.32
425.036	5.33
425.243	5.39
425.451	5.34
425.658	5.22
425.865	5.4
426.072	5.27
426.28	5.34
426.487	5.52
426.694	5.43
426.901	5.47
427.108	5.62
427.315	5.58
427.523	5.36
427.73	5.37
427.937	5.27
428.144	5.33
428.351	5.26
428.558	5.52
428.765	5.64
428.972	5.77
429.179	5.65
429.386	5.6
429.593	5.44
429.8	5.39
430.007	5.31
430.214	5.35
430.421	5.51
430.628	5.55
430.835	5.6
431.042	5.52
431.249	5.6
431.456	5.73
431.662	5.77
431.869	5.75
432.076	5.7
432.283	5.6
432.49	5.4
432.697	5.37
432.903	5.33
433.11	5.78
433.317	5.69
433.524	5.75
433.73	5.72
433.937	5.69
434.144	5.51
434.35	5.63
434.557	5.6
434.764	5.53
434.97	5.6
435.177	5.54
435.384	5.55
435.59	5.53
435.797	5.63
436.003	5.64
436.21	5.58
436.416	5.52
436.623	5.39
436.829	5.26
437.036	5.24
437.242	5.19
437.449	5.2
437.655	5.37
437.862	5.58
438.068	5.58
438.275	5.63
438.481	5.63
438.687	5.63
438.894	5.61
439.1	5.57
439.307	5.51
439.513	5.5
439.719	5.56
439.926	5.44
440.132	5.52
440.338	5.46
440.544	5.37
440.751	5.19
440.957	5.23
441.163	5.16
441.369	5.26
441.575	5.4
441.782	5.58
441.988	5.54
442.194	5.52
442.4	5.6
442.606	5.63
442.812	5.67
443.018	5.58
443.224	5.61
443.431	5.46
443.637	5.51
443.843	5.39
444.049	5.54
444.255	5.52
444.461	5.47
444.667	5.3
444.873	5.24
445.079	5.29
445.284	5.3
445.49	5.38
445.696	5.39
445.902	5.4
446.108	5.32
446.314	5.32
446.52	5.38
446.726	5.42
446.931	5.47
447.137	5.41
447.343	5.35
447.549	5.31
447.755	5.28
447.96	5.29
448.166	5.41
448.372	5.42
448.578	5.45
448.783	5.5
448.989	5.53
449.195	5.4
449.4	5.45
449.606	5.36
449.812	5.34
450.017	5.34
450.223	5.44
450.428	5.42
450.634	5.45
450.84	5.34
451.045	5.37
451.251	5.45
451.456	5.55
451.662	5.54
451.867	5.62
452.073	5.48
452.278	5.31
452.483	5.24
452.689	5.26
452.894	5.29
453.1	5.37
453.305	5.35
453.51	5.43
453.716	5.47
453.921	5.54
454.127	5.53
454.332	5.51
454.537	5.45
454.742	5.32
454.948	5.16
455.153	5.16
455.358	5.23
455.563	5.21
455.769	5.17
455.974	5.22
456.179	5.17
456.384	5
456.589	5.07
456.795	5.18
457	5.14
457.205	5.1
457.41	5.18
457.615	5.08
457.82	5.05
458.025	5.07
458.23	5.18
458.435	5.26
458.64	5.19
458.845	5.21
459.05	5.11
459.255	5.15
459.46	5.11
459.665	5.2
459.87	5.26
460.075	5.39
460.28	5.31
460.485	5.22
460.69	5.19
460.895	5.13
461.099	5.1
461.304	5.07
461.509	5.12
461.714	5.14
461.919	5.11
462.123	5.04
462.328	5.06
462.533	5.05
462.738	5.06
462.942	5.05
463.147	5.16
463.352	5.03
463.556	5.18
463.761	5.17
463.966	5.17
464.17	5.12
464.375	5.29
464.58	5.14
464.784	5.21
464.989	5.23
465.193	5.2
465.398	5.22
465.602	5.33
465.807	5.11
466.011	5.11
466.216	5.06
466.42	5.07
466.625	4.98
466.829	5.02
467.034	5.09
467.238	5.14
467.443	5.06
467.647	5.03
467.851	5.12
468.056	5.08
468.26	5.12
468.464	5.19
468.669	5.26
468.873	5.25
469.077	5.22
469.282	5.15
469.486	5.07
469.69	5
469.894	4.98
470.099	4.99
470.303	5.03
470.507	5.06
470.711	5.2
470.915	5.28
471.119	5.31
471.324	5.31
471.528	5.36
471.732	5.4
471.936	5.37
472.14	5.4
472.344	5.44
472.548	5.35
472.752	5.24
472.956	5.21
473.16	5.27
473.364	5.23
473.568	5.33
473.772	5.27
473.976	5.3
474.18	5.18
474.384	5.15
474.588	5.12
474.792	5.19
474.995	5.11
475.199	5.16
475.403	5.12
475.607	5.13
475.811	5.23
476.015	5.29
476.218	5.26
476.422	5.31
476.626	5.28
476.83	5.22
477.033	5.26
477.237	5.33
477.441	5.42
477.644	5.4
477.848	5.35
478.052	5.24
478.255	5.22
478.459	5.1
478.663	5.16
478.866	5.19
479.07	5.36
479.273	5.39
479.477	5.43
479.681	5.39
479.884	5.32
480.088	5.23
480.291	5.22
480.495	5.25
480.698	5.28
480.901	5.32
481.105	5.36
481.308	5.33
481.512	5.36
481.715	5.29
481.919	5.31
482.122	5.27
482.325	5.31
482.529	5.27
482.732	5.28
482.935	5.28
483.138	5.3
483.342	5.2
483.545	5.24
483.748	5.28
483.952	5.2
484.155	5.14
484.358	5.23
484.561	5.25
484.764	5.21
484.967	5.33
485.171	5.43
485.374	5.41
485.577	5.36
485.78	5.38
485.983	5.25
486.186	5.17
486.389	5.15
486.592	5.13
486.795	5.16
486.998	5.2
487.201	5.21
487.404	5.25
487.607	5.3
487.81	5.32
488.013	5.33
488.216	5.38
488.419	5.35
488.622	5.29
488.825	5.26
489.028	5.28
489.231	5.26
489.433	5.28
489.636	5.31
489.839	5.38
490.042	5.33
490.245	5.28
490.447	5.22
490.65	5.23
490.853	5.16
491.056	5.21
491.258	5.17
491.461	5.24
491.664	5.19
491.866	5.27
492.069	5.32
492.272	5.41
492.474	5.48
492.677	5.52
492.879	5.41
493.082	5.31
493.285	5.38
493.487	5.22
493.69	5.2
493.892	5.25
494.095	5.36
494.297	5.28
494.5	5.45
494.702	5.53
494.905	5.6
495.107	5.64
495.309	5.69
495.512	5.61
495.714	5.7
495.917	5.71
496.119	5.67
496.321	5.75
496.524	5.85
496.726	5.87
496.928	5.89
497.13	5.97
497.333	6
497.535	6.02
497.737	5.97
497.939	6.01
498.142	6
498.344	6.02
498.546	6.02
498.748	6.04
498.95	6.04
499.152	6.11
499.355	6.13
499.557	6.15
499.759	6.27
499.961	6.31
500.163	6.32
500.365	6.36
500.567	6.42
500.769	6.37
500.971	6.46
501.173	6.46
501.375	6.54
501.577	6.6
501.779	6.71
501.981	6.7
502.183	6.79
502.385	6.79
502.587	6.74
502.788	6.76
502.99	6.82
503.192	6.79
503.394	6.79
503.596	6.88
503.798	6.89
503.999	6.94
504.201	7
504.403	7.08
504.605	7.09
504.806	7.15
505.008	7.18
505.21	7.15
505.411	7.07
505.613	7.08
505.815	7.06
506.016	7.03
506.218	7.13
506.42	7.17
506.621	7.18
506.823	7.22
507.024	7.22
507.226	7.22
507.427	7.2
507.629	7.24
507.83	7.19
508.032	7.13
508.233	7.13
508.435	7.19
508.636	7.25
508.838	7.28
509.039	7.34
509.24	7.27
509.442	7.24
509.643	7.12
509.845	7.06
510.046	7.1
510.247	7.1
510.448	7.17
510.65	7.26
510.851	7.26
511.052	7.27
511.254	7.37
511.455	7.36
511.656	7.38
511.857	7.4
512.058	7.37
512.26	7.37
512.461	7.36
512.662	7.32
512.863	7.33
513.064	7.31
513.265	7.29
513.466	7.36
513.667	7.33
513.868	7.36
514.069	7.41
514.27	7.39
514.471	7.3
514.672	7.34
514.873	7.36
515.074	7.37
515.275	7.35
515.476	7.32
515.677	7.24
515.878	7.16
516.079	7.15
516.28	7.18
516.481	7.21
516.682	7.33
516.882	7.37
517.083	7.31
517.284	7.32
517.485	7.35
517.686	7.36
517.886	7.36
518.087	7.41
518.288	7.4
518.488	7.37
518.689	7.31
518.89	7.29
519.091	7.33
519.291	7.36
519.492	7.34
519.692	7.36
519.893	7.41
520.094	7.33
520.294	7.31
520.495	7.34
520.695	7.4
520.896	7.36
521.096	7.36
521.297	7.42
521.497	7.42
521.698	7.3
521.898	7.33
522.099	7.38
522.299	7.33
522.499	7.31
522.7	7.34
522.9	7.35
523.101	7.3
523.301	7.33
523.501	7.41
523.702	7.5
523.902	7.49
524.102	7.61
524.302	7.59
524.503	7.54
524.703	7.55
524.903	7.56
525.103	7.51
525.304	7.49
525.504	7.57
525.704	7.51
525.904	7.52
526.104	7.54
526.304	7.6
526.504	7.53
526.705	7.47
526.905	7.48
527.105	7.43
527.305	7.41
527.505	7.43
527.705	7.54
527.905	7.56
528.105	7.6
528.305	7.66
528.505	7.67
528.705	7.62
528.905	7.57
529.105	7.56
529.304	7.56
529.504	7.58
529.704	7.6
529.904	7.66
530.104	7.7
530.304	7.7
530.503	7.72
530.703	7.72
530.903	7.77
531.103	7.8
531.303	7.85
531.502	7.88
531.702	7.91
531.902	7.83
532.101	7.81
532.301	7.8
532.501	7.76
532.7	7.83
532.9	7.85
533.1	7.87
533.299	7.87
533.499	7.95
533.698	7.94
533.898	7.95
534.097	8.03
534.297	8.01
534.496	7.95
534.696	7.98
534.895	7.98
535.095	7.97
535.294	8.05
535.494	8.08
535.693	8.14
535.892	8.2
536.092	8.21
536.291	8.19
536.491	8.25
536.69	8.26
536.889	8.27
537.088	8.25
537.288	8.31
537.487	8.38
537.686	8.45
537.886	8.57
538.085	8.63
538.284	8.63
538.483	8.6
538.682	8.58
538.882	8.56
539.081	8.63
539.28	8.67
539.479	8.7
539.678	8.72
539.877	8.71
540.076	8.68
540.275	8.7
540.474	8.73
540.673	8.7
540.872	8.75
541.071	8.76
541.27	8.84
541.469	8.88
541.668	8.88
541.867	8.87
542.066	8.97
542.265	9.03
542.464	9.04
542.663	9.17
542.862	9.26
543.06	9.24
543.259	9.22
543.458	9.23
543.657	9.19
543.856	9.23
544.054	9.25
544.253	9.25
544.452	9.31
544.651	9.35
544.849	9.34
545.048	9.45
545.247	9.55
545.445	9.58
545.644	9.64
545.843	9.69
546.041	9.66
546.24	9.66
546.438	9.73
546.637	9.83
546.836	9.87
547.034	9.97
547.233	10.07
547.431	10.12
547.63	10.15
547.828	10.21
548.027	10.27
548.225	10.25
548.423	10.31
548.622	10.38
548.82	10.46
549.019	10.48
549.217	10.53
549.415	10.54
549.614	10.56
549.812	10.55
550.01	10.59
550.209	10.7
550.407	10.8
550.605	10.87
550.803	10.91
551.002	10.98
551.2	10.96
551.398	11.01
551.596	11.09
551.794	11.17
551.993	11.18
552.191	11.31
552.389	11.34
552.587	11.35
552.785	11.4
552.983	11.51
553.181	11.54
553.379	11.62
553.577	11.74
553.775	11.86
553.973	11.9
554.171	11.99
554.369	12.05
554.567	12.05
554.765	12.16
554.963	12.19
555.161	12.27
555.359	12.35
555.557	12.53
555.755	12.56
555.952	12.71
556.15	12.78
556.348	12.87
556.546	12.84
556.744	12.97
556.941	13.03
557.139	13.12
557.337	13.19
557.535	13.23
557.732	13.18
557.93	13.27
558.128	13.34
558.325	13.37
558.523	13.47
558.721	13.54
558.918	13.55
559.116	13.65
559.313	13.79
559.511	13.94
559.708	14.07
559.906	14.17
560.104	14.21
560.301	14.24
560.498	14.28
560.696	14.3
560.893	14.38
561.091	14.5
561.288	14.63
561.486	14.69
561.683	14.73
561.88	14.8
562.078	14.83
562.275	14.83
562.473	14.88
562.67	15.02
562.867	15.07
563.064	15.11
563.262	15.21
563.459	15.39
563.656	15.52
563.853	15.6
564.051	15.74
564.248	15.82
564.445	15.86
564.642	15.88
564.839	16.04
565.036	16.14
565.234	16.24
565.431	16.28
565.628	16.36
565.825	16.35
566.022	16.42
566.219	16.43
566.416	16.45
566.613	16.6
566.81	16.78
567.007	16.82
567.204	16.95
567.401	17.07
567.598	17.07
567.795	17.07
567.991	17.13
568.188	17.24
568.385	17.29
568.582	17.4
568.779	17.46
568.976	17.53
569.172	17.57
569.369	17.61
569.566	17.62
569.763	17.63
569.96	17.75
570.156	17.78
570.353	17.87
570.55	17.98
570.746	18.14
570.943	18.17
571.14	18.28
571.336	18.38
571.533	18.41
571.729	18.38
571.926	18.43
572.123	18.47
572.319	18.52
572.516	18.6
572.712	18.65
572.909	18.64
573.105	18.71
573.302	18.8
573.498	18.85
573.695	18.97
573.891	19.04
574.087	19.08
574.284	19.06
574.48	19.12
574.677	19.15
574.873	19.22
575.069	19.3
575.266	19.29
575.462	19.33
575.658	19.34
575.854	19.4
576.051	19.34
576.247	19.48
576.443	19.5
576.639	19.57
576.835	19.56
577.032	19.61
577.228	19.64
577.424	19.74
577.62	19.76
577.816	19.8
578.012	19.78
578.208	19.8
578.404	19.76
578.6	19.87
578.796	19.89
578.993	20
579.189	19.96
579.384	19.9
579.58	19.74
579.776	19.77
579.972	19.81
580.168	19.83
580.364	19.89
580.56	19.94
580.756	19.94
580.952	19.85
581.148	19.84
581.343	19.89
581.539	19.9
581.735	19.82
581.931	19.83
582.127	19.91
582.322	19.91
582.518	19.86
582.714	19.9
582.909	19.95
583.105	19.78
583.301	19.69
583.496	19.66
583.692	19.69
583.888	19.73
584.083	19.79
584.279	19.87
584.474	19.91
584.67	19.79
584.866	19.72
585.061	19.59
585.257	19.45
585.452	19.5
585.648	19.53
585.843	19.56
586.039	19.7
586.234	19.74
586.429	19.68
586.625	19.68
586.82	19.58
587.015	19.57
587.211	19.53
587.406	19.62
587.601	19.64
587.797	19.72
587.992	19.66
588.187	19.67
588.383	19.63
588.578	19.56
588.773	19.52
588.968	19.58
589.163	19.6
589.359	19.55
589.554	19.59
589.749	19.58
589.944	19.54
590.139	19.57
590.334	19.56
590.529	19.64
590.724	19.76
590.919	19.91
591.114	19.95
591.309	20.01
591.504	20.05
591.699	19.99
591.894	19.79
592.089	19.87
592.284	19.9
592.479	19.78
592.674	19.77
592.869	19.88
593.064	19.91
593.259	20.03
593.454	20.24
593.648	20.31
593.843	20.44
594.038	20.53
594.233	20.56
594.428	20.58
594.622	20.68
594.817	20.77
595.012	20.71
595.206	20.74
595.401	20.85
595.596	20.91
595.79	20.91
595.985	21.02
596.18	21.11
596.374	21.16
596.569	21.16
596.763	21.21
596.958	21.35
597.153	21.36
597.347	21.29
597.542	21.36
597.736	21.51
597.931	21.47
598.125	21.62
598.319	21.75
598.514	21.88
598.708	21.87
598.903	21.99
599.097	21.96
599.291	21.98
599.486	21.95
599.68	22.01
599.874	22.06
600.069	22.11
600.263	22.17
600.457	22.28
600.651	22.3
600.846	22.27
601.04	22.32
601.234	22.32
601.428	22.41
601.622	22.47
601.817	22.47
602.011	22.47
602.205	22.48
602.399	22.46
602.593	22.56
602.787	22.61
602.981	22.59
603.175	22.7
603.369	22.66
603.563	22.58
603.757	22.61
603.951	22.55
604.145	22.37
604.339	22.41
604.533	22.34
604.727	22.37
604.921	22.5
605.115	22.58
605.309	22.44
605.502	22.49
605.696	22.45
605.89	22.3
606.084	22.22
606.278	22.21
606.471	22.15
606.665	21.95
606.859	22.04
607.053	22.07
607.246	22.07
607.44	21.98
607.634	22.05
607.827	21.76
608.021	21.62
608.214	21.51
608.408	21.48
608.602	21.46
608.795	21.56
608.989	21.51
609.182	21.46
609.376	21.36
609.569	21.18
609.763	21.02
609.956	20.99
610.15	20.92
610.343	20.73
610.537	20.65
610.73	20.6
610.923	20.67
611.117	20.6
611.31	20.64
611.504	20.66
611.697	20.6
611.89	20.34
612.083	20.15
612.277	20.08
612.47	19.95
612.663	19.88
612.856	19.8
613.05	19.73
613.243	19.61
613.436	19.45
613.629	19.37
613.822	19.29
614.015	19.34
614.209	19.24
614.402	19.22
614.595	19.21
614.788	19.17
614.981	19.06
615.174	19.12
615.367	18.99
615.56	18.81
615.753	18.74
615.946	18.7
616.139	18.53
616.332	18.49
616.525	18.54
616.718	18.47
616.911	18.43
617.103	18.46
617.296	18.46
617.489	18.34
617.682	18.38
617.875	18.27
618.067	18.11
618.26	18.08
618.453	18
618.646	17.85
618.838	17.76
619.031	17.79
619.224	17.77
619.417	17.88
619.609	17.95
619.802	17.88
619.994	17.84
620.187	17.67
620.38	17.57
620.572	17.47
620.765	17.59
620.957	17.54
621.15	17.6
621.342	17.58
621.535	17.57
621.727	17.49
621.92	17.4
622.112	17.35
622.305	17.25
622.497	17.21
622.69	17.11
622.882	17.15
623.074	17.17
623.267	17.17
623.459	17.11
623.651	17.03
623.844	17
624.036	16.96
624.228	16.9
624.42	16.95
624.613	17.05
624.805	17.06
624.997	17.04
625.189	17.11
625.381	17.05
625.574	16.96
625.766	16.96
625.958	16.95
626.15	16.92
626.342	16.89
626.534	16.92
626.726	16.89
626.918	16.8
627.11	16.76
627.302	16.64
627.494	16.54
627.686	16.51
627.878	16.54
628.07	16.55
628.262	16.59
628.454	16.6
628.646	16.54
628.838	16.47
629.029	16.36
629.221	16.32
629.413	16.26
629.605	16.17
629.797	16.18
629.989	16.21
630.18	16.13
630.372	16.15
630.564	16.2
630.755	16.16
630.947	16.12
631.139	16.15
631.33	16.09
631.522	16
631.714	15.96
631.905	15.9
632.097	15.84
632.289	15.79
632.48	15.72
632.672	15.68
632.863	15.71
633.055	15.68
633.246	15.74
633.438	15.85
633.629	15.78
633.821	15.74
634.012	15.87
634.203	15.89
634.395	15.84
634.586	15.94
634.777	15.87
634.969	15.86
635.16	15.8
635.351	15.79
635.543	15.85
635.734	15.98
635.925	15.9
636.117	15.82
636.308	15.82
636.499	15.65
636.69	15.52
636.881	15.58
637.073	15.72
637.264	15.72
637.455	15.75
637.646	15.77
637.837	15.66
638.028	15.52
638.219	15.49
638.41	15.51
638.601	15.5
638.792	15.54
638.983	15.54
639.174	15.55
639.365	15.52
639.556	15.47
639.747	15.49
639.938	15.61
640.129	15.63
640.32	15.69
640.511	15.75
640.701	15.72
640.892	15.59
641.083	15.45
641.274	15.36
641.465	15.34
641.655	15.39
641.846	15.46
642.037	15.56
642.228	15.6
642.418	15.56
642.609	15.36
642.8	15.32
642.99	15.33
643.181	15.26
643.372	15.27
643.562	15.31
643.753	15.3
643.943	15.29
644.134	15.26
644.324	15.2
644.515	15.27
644.705	15.18
644.896	15.02
645.086	14.95
645.277	15.02
645.467	14.89
645.658	14.82
645.848	14.98
646.038	14.96
646.229	14.91
646.419	14.95
646.61	14.98
646.8	14.79
646.99	14.86
647.18	14.81
647.371	14.76
647.561	14.81
647.751	14.85
647.941	14.74
648.132	14.67
648.322	14.7
648.512	14.67
648.702	14.69
648.892	14.73
649.082	14.79
649.272	14.75
649.462	14.73
649.653	14.67
649.843	14.73
650.033	14.69
650.223	14.59
650.413	14.5
650.603	14.51
650.793	14.37
650.983	14.32
651.172	14.41
651.362	14.42
651.552	14.32
651.742	14.29
651.932	14.31
652.122	14.18
652.312	14.09
652.502	14.13
652.691	14.05
652.881	13.99
653.071	14.08
653.261	14.07
653.45	13.87
653.64	13.92
653.83	13.83
654.019	13.64
654.209	13.54
654.399	13.46
654.588	13.23
654.778	13.08
654.968	12.97
655.157	12.92
655.347	12.84
655.536	12.83
655.726	12.7
655.915	12.65
656.105	12.46
656.294	12.41
656.484	12.23
656.673	12.14
656.863	12.01
657.052	12
657.241	11.82
657.431	11.7
657.62	11.51
657.809	11.31
657.999	11.1
658.188	10.95
658.377	10.9
658.567	10.8
658.756	10.7
658.945	10.66
659.134	10.62
659.324	10.48
659.513	10.35
659.702	10.22
659.891	9.95
660.08	9.66
660.269	9.44
660.458	9.33
660.648	9.33
660.837	9.29
661.026	9.28
661.215	9.16
661.404	9
661.593	8.72
661.782	8.55
661.971	8.43
662.16	8.39
662.349	8.26
662.538	8.23
662.726	8.2
662.915	8.12
663.104	7.93
663.293	7.92
663.482	7.79
663.671	7.64
663.86	7.5
664.048	7.56
664.237	7.51
664.426	7.45
664.615	7.39
664.803	7.25
664.992	7.1
665.181	7.03
665.369	6.97
665.558	6.91
665.747	6.96
665.935	6.86
666.124	6.82
666.312	6.78
666.501	6.71
666.69	6.62
666.878	6.54
667.067	6.37
667.255	6.44
667.444	6.45
667.632	6.57
667.82	6.69
668.009	6.75
668.197	6.59
668.386	6.57
668.574	6.44
668.762	6.34
668.951	6.4
669.139	6.56
669.327	6.47
669.516	6.54
669.704	6.53
669.892	6.53
670.08	6.42
670.269	6.49
670.457	6.48
670.645	6.51
670.833	6.42
671.021	6.41
671.21	6.45
671.398	6.34
671.586	6.29
671.774	6.36
671.962	6.38
672.15	6.42
672.338	6.55
672.526	6.71
672.714	6.7
672.902	6.73
673.09	6.75
673.278	6.8
673.466	6.79
673.654	6.96
673.842	7.12
674.03	7.21
674.218	7.31
674.405	7.37
674.593	7.27
674.781	7.18
674.969	7
675.157	6.96
675.344	6.86
675.532	6.91
675.72	7.14
675.908	7.31
676.095	7.29
676.283	7.51
676.471	7.48
676.658	7.52
676.846	7.48
677.033	7.74
677.221	7.84
677.409	8.09
677.596	8.08
677.784	8.29
677.971	8.25
678.159	8.31
678.346	8.3
678.534	8.44
678.721	8.57
678.909	8.65
679.096	8.61
679.283	8.73
679.471	8.65
679.658	8.58
679.846	8.63
680.033	8.92
680.22	9.01
680.408	9.05
680.595	9.19
680.782	9.16
680.969	9.17
681.157	9.3
681.344	9.36
681.531	9.46
681.718	9.7
681.905	9.67
682.093	9.75
682.28	10.02
682.467	10.39
682.654	10.41
682.841	10.51
683.028	10.61
683.215	10.74
683.402	10.53
683.589	10.83
683.776	11.18
683.963	11.13
684.15	11.25
684.337	11.51
684.524	11.68
684.711	11.77
684.898	12.09
685.085	12.17
685.271	12.47
685.458	12.48
685.645	12.66
685.832	12.85
686.019	13.18
686.205	13.42
686.392	13.57
686.579	13.85
686.766	14.29
686.952	14.45
687.139	14.45
687.326	14.9
687.512	14.93
687.699	15.06
687.886	15.43
688.072	15.94
688.259	16.2
688.445	16.68
688.632	17.01
688.818	17.3
689.005	17.44
689.191	17.78
689.378	18.26
689.564	18.56
689.751	18.97
689.937	19.54
690.124	20.11
690.31	20.55
690.496	21.22
690.683	21.66
690.869	22.17
691.055	22.52
691.242	22.88
691.428	23.28
691.614	23.76
691.8	24.11
691.987	24.79
692.173	25.36
692.359	26.05
692.545	26.51
692.731	27.15
692.918	27.4
693.104	27.77
693.29	28.16
693.476	28.89
693.662	29.57
693.848	30.33
694.034	30.83
694.22	31.24
694.406	31.47
694.592	31.75
694.778	32.19
694.964	32.97
695.15	33.58
695.336	34.34
695.522	35.29
695.708	36.1
695.894	36.73
696.08	37.12
696.265	37.76
696.451	38.19
696.637	38.57
696.823	39.06
697.009	40.05
697.194	40.58
697.38	41.3
697.566	42.01
697.751	42.82
697.937	43.12
698.123	43.55
698.308	43.73
698.494	44.3
698.68	44.51
698.865	45.15
699.051	45.55
699.236	46
699.422	46.44
699.607	46.97
699.793	47.18
699.978	47.73
700.164	48.02
700.349	48.29
700.535	48.57
700.72	48.92
700.906	49.38
701.091	50.02
701.276	50.54
701.462	51.04
701.647	51.64
701.832	52.14
702.018	52.57
702.203	52.83
702.388	53.1
702.573	53.39
702.759	53.75
702.944	54.13
703.129	54.56
703.314	55
703.499	55.25
703.684	55.7
703.87	55.99
704.055	56.27
704.24	56.4
704.425	56.77
704.61	57
704.795	57.34
704.98	57.41
705.165	57.91
705.35	58.49
705.535	58.7
705.72	58.89
705.905	59.36
706.09	59.73
706.275	59.65
706.459	60.12
706.644	60.37
706.829	60.93
707.014	61.22
707.199	61.51
707.384	61.5
707.568	61.98
707.753	61.57
707.938	61.34
708.123	61.59
708.307	61.7
708.492	61.92
708.677	62.08
708.861	62.86
709.046	63.21
709.231	63.38
709.415	62.85
709.6	63.13
709.784	63.04
709.969	63.01
710.153	63.13
710.338	63.68
710.522	64.19
710.707	64.08
710.891	63.96
711.076	64.64
711.26	65.1
711.445	65.39
711.629	65.81
711.813	66.31
711.998	66.4
712.182	65.95
712.366	66.02
712.551	65.99
712.735	65.94
712.919	65.79
713.103	65.8
713.288	65.6
713.472	65.69
713.656	65.78
713.84	65.78
714.024	66.06
714.208	66.25
714.393	66.69
714.577	67.25
714.761	67.36
714.945	67.64
715.129	67.85
715.313	67.61
715.497	67.64
715.681	67.54
715.865	67.71
716.049	67.71
716.233	67.99
716.417	68.17
716.601	68.25
716.785	68.55
716.968	68.48
717.152	68.81
717.336	68.78
717.52	69.15
717.704	69.22
717.888	70.08
718.071	69.95
718.255	69.78
718.439	69.64
718.622	69.42
718.806	68.52
718.99	68.5
719.174	68.41
719.357	68.84
719.541	69.17
719.724	69.43
719.908	69.86
720.092	70.18
720.275	70.4
720.459	69.9
720.642	70.3
720.826	70.33
721.009	70.41
721.193	70.09
721.376	70.15
721.559	70.42
721.743	70.1
721.926	70.41
722.11	70.2
722.293	70.59
722.476	70.43
722.66	70.95
722.843	70.88
723.026	71.48
723.21	72.01
723.393	71.62
723.576	71.67
723.759	71.65
723.942	71.62
724.126	71.45
724.309	72.58
724.492	72.73
724.675	73.02
724.858	73.09
725.041	73.41
725.224	73.28
725.407	72.95
725.59	72.89
725.774	73.49
725.957	73.71
726.14	74.15
726.322	74.27
726.505	74.39
726.688	74.19
726.871	73.97
727.054	74.1
727.237	74.61
727.42	75.14
727.603	74.92
727.786	75.36
727.968	74.92
728.151	74.68
728.334	74.36
728.517	74.98
728.699	74.87
728.882	74.86
729.065	75.11
729.248	75.38
729.43	75.46
729.613	75.98
729.796	76.23
729.978	76.65
730.161	76.84
730.343	77.03
730.526	77.57
730.708	77.55
730.891	77.69
731.073	77.55
731.256	77.39
731.438	76.86
731.621	77.03
731.803	76.66
731.986	77.66
732.168	77.94
732.35	78.47
732.533	78.11
732.715	78.92
732.898	78.7
733.08	79.46
733.262	79.14
733.444	79.19
733.627	78.61
733.809	78.38
733.991	78.17
734.173	78.65
734.355	79.59
734.538	79.92
734.72	80.53
734.902	81.33
735.084	81.54
735.266	81.44
735.448	82.11
735.63	82.06
735.812	81.22
735.994	80.45
736.176	80.82
736.358	81.31
736.54	81.07
736.722	81.17
736.904	82.08
737.086	82.07
737.268	81.1
737.45	81.32
737.632	81.13
737.814	80.84
737.995	81.25
738.177	81.84
738.359	81.9
738.541	82.75
738.723	82.92
738.904	82.98
739.086	83.33
739.268	84.27
739.449	83.67
739.631	83.82
739.813	83.78
739.994	83.43
740.176	82.55
740.358	82.54
740.539	83.06
740.721	83.44
740.902	83.03
741.084	83.6
741.265	84.29
741.447	83.55
741.628	82.17
741.81	82.59
741.991	81.76
742.172	81.92
742.354	82.59
742.535	83.81
742.717	84.48
742.898	84.98
743.079	83.39
743.261	82.25
743.442	82.1
743.623	81.25
743.804	81.51
743.986	82.83
744.167	83.25
744.348	82.26
744.529	83.34
744.71	82.81
744.891	82.59
745.073	83.13
745.254	84.5
745.435	83.42
745.616	83.09
745.797	82.82
745.978	82.02
746.159	82.43
746.34	83.05
746.521	83.37
746.702	83.62
746.883	83.44
747.064	81.55
747.245	82.03
747.426	81.73
747.606	80.68
747.787	82.22
747.968	83.72
748.149	82.84
748.33	82.55
748.51	84.95
748.691	84.12
748.872	84.39
749.053	84.46
749.233	85.99
749.414	84.28
749.595	84.89
749.775	85
749.956	85.2
750.137	85.68
750.317	85.61
750.498	86.11
750.678	86.13
750.859	85.95
751.04	84.67
751.22	84.45
751.4	83.29
751.581	83.19
751.761	84
751.942	84.07
752.122	84.72
752.303	83.9
752.483	83.1
752.663	82.96
752.844	82.64
753.024	82.38
753.204	83.82
753.385	82.57
753.565	82.46
753.745	83.13
753.925	83.12
754.106	83.47
754.286	84.83
754.466	84.15
754.646	84.65
754.826	85.48
755.006	84.9
755.187	85.73
755.367	86.86
755.547	86.97
755.727	87.21
755.907	86.12
756.087	85.96
756.267	84.32
756.447	84.69
756.627	84.68
756.807	86.55
756.987	85.19
757.167	86.22
757.346	85.38
757.526	83.44
757.706	82.24
757.886	81.92
758.066	82.22
758.246	81.47
758.425	82.91
758.605	83.66
758.785	85.22
758.965	85.67
759.144	87.42
759.324	87.85
759.504	87.88
759.683	87.86
759.863	86.15
760.043	86.07
760.222	85.03
760.402	84.72
760.581	84.69
760.761	84.26
760.94	84.13
761.12	85.27
761.299	84.95
761.479	84.06
761.658	85.32
761.838	84.16
762.017	83.4
762.197	81.97
762.376	81.95
762.555	80.25
762.735	80.54
762.914	79.53
763.093	80.34
763.273	80.97
763.452	82.32
763.631	80.32
763.81	81.26
763.99	82.43
764.169	83.54
764.348	83.62
764.527	85.41
764.706	83.94
764.885	84.09
765.064	83.24
765.243	84.82
765.423	84.6
765.602	85.51
765.781	85.08
765.96	83.66
766.139	81.41
766.318	81.12
766.497	81.73
766.676	81.68
766.854	83.24
767.033	85.11
767.212	86.15
767.391	86.47
767.57	87.03
767.749	83.22
767.928	81.96
768.106	82.19
768.285	80.72
768.464	79.64
768.643	81.97
768.821	81.93
769	81.7
769.179	81.58
769.357	82.31
769.536	80.8
769.715	80.29
769.893	80.26
770.072	81.05
770.25	80.65
770.429	83.37
770.607	83.12
770.786	81.85
770.964	80.96
771.143	80.79
771.321	78.75
771.5	80.76
771.678	83.29
771.857	83.14
772.035	84.05
772.213	86.55
772.392	86.11
772.57	85.38
772.748	87.14
772.927	87.35
773.105	87.93
773.283	85.75
773.461	85.31
773.64	84.35
773.818	83.86
773.996	80.66
774.174	81.71
774.352	78.35
774.531	79.53
774.709	77.88
774.887	81.41
775.065	81.81
775.243	83.23
775.421	83.16
775.599	83.55
775.777	82.53
775.955	81.29
776.133	83.99
776.311	84.38
776.489	86.3
776.667	85.14
776.844	86.27
777.022	84.96
777.2	85.64
777.378	82.3
777.556	80.92
777.734	78.81
777.911	78.93
778.089	77.65
778.267	79.02
778.445	79.35
778.622	81.42
778.8	84.07
778.978	81.53
779.155	82.42
779.333	82.63
779.511	80.14
779.688	78.35
779.866	77.74
780.043	78.79
780.221	79.31
780.398	80.93
780.576	82.34
780.753	85.45
780.931	82.82
781.108	83.59
781.286	83.25
781.463	80.27
781.64	82.52
781.818	83.03
781.995	81.25
782.172	80.77
782.35	80.11
782.527	78.81
782.704	79.59
782.882	82.62
783.059	82.86
783.236	81.96
783.413	81.05
783.59	77.36
783.768	73.83
783.945	76.39
784.122	78.37
784.299	77.7
784.476	79.9
784.653	82
784.83	79.33
785.007	78.22
785.184	80.57
785.361	79.94
785.538	81.01
785.715	78.09
785.892	77.1
786.069	74.5
786.246	75.35
786.423	76.19
786.6	82.02
786.776	83.16
786.953	85.15
787.13	86.96
787.307	86.76
787.484	85.73
787.66	85.11
787.837	82.35
788.014	83.68
788.191	80.04
788.367	78.81
788.544	81.61
788.721	81.74
788.897	80.73
789.074	79.1
789.25	78.97
789.427	77.3
789.603	77.77
789.78	76.55
789.956	81.22
790.133	82.47
790.309	86.41
790.486	84.28
790.662	87.31
790.839	86.9
791.015	83.21
791.192	79.4
791.368	84.83
791.544	80.49
791.721	78.65
791.897	82.72
792.073	83.86
792.249	80.15
792.426	82.95
792.602	83.32
792.778	82.79
792.954	80.58
793.13	80.69
793.307	81.06
793.483	80.29
793.659	78.84
793.835	80.14
794.011	83.45
794.187	79.48
794.363	81.26
794.539	78.64
794.715	79.79
794.891	78.98
795.067	78.59
795.243	77.53
795.419	83.33
795.595	81.78
795.771	84.46
795.947	86.58
796.122	87.1
796.298	85.93
796.474	89.03
796.65	87.48
796.826	89.84
797.001	92.36
797.177	88.13
797.353	86.24
797.529	84.76
797.704	85.88
797.88	82.69
798.056	82.41
798.231	83.64
798.407	80.42
798.582	76.19
798.758	77.56
798.934	77.96
799.109	74.6
799.285	77.97
799.46	84.34
799.636	82.37
799.811	86.6
799.986	83.71
800.162	82.15
800.337	78.96
800.513	77.35
800.688	74.13
800.863	80.06
801.039	80.28
801.214	79.73
801.389	81.01
801.565	81.05
801.74	81.96
801.915	86.11
802.09	83.94
802.265	87.83
802.441	86.51
802.616	81.74
802.791	79.16
802.966	84.64
803.141	82.36
803.316	83.59
803.491	84.32
803.666	85.03
803.841	82.56
804.016	85.22
804.191	81.89
804.366	89.54
804.541	83.54
804.716	79.62
804.891	79.64
805.066	87.98
805.241	83.11
805.416	83.27
805.591	79.52
805.765	76.95
805.94	73.76
806.115	73.15
806.29	78.89
806.464	83.43
806.639	83.31
806.814	78.44
806.989	84.65
807.163	78.16
807.338	77.98
807.512	75.4
807.687	83.65
807.862	67.87
808.036	63.6
808.211	65.8
808.385	65.23
808.56	59.71
808.734	62.67
808.909	67.72
809.083	67.92
809.258	74.05
809.432	80.67
809.606	84.25
809.781	87.18
809.955	83.88
810.13	83.93
810.304	83.82
810.478	87.98
810.652	84.52
810.827	89.24
811.001	85.85
811.175	87.16
811.349	81.68
811.524	84.43
811.698	74.53
811.872	77.95
812.046	71.92
812.22	73.34
812.394	72.52
812.568	86.29
812.742	86.6
812.916	86.86
813.09	82.31
813.264	85.55
813.438	81.51
813.612	78.43
813.786	70.52
813.96	86.61
814.134	81.31
814.308	79.63
814.482	80.12
814.656	88.27
814.83	77.25
815.003	74.5
815.177	76.33
815.351	79.49
815.525	83.01
815.698	85.9
815.872	90.78
816.046	86.13
816.219	78.77
816.393	84.65
816.567	87.08
816.74	85.16
816.914	79.94
817.088	79.89
817.261	72.73
817.435	75.44
817.608	81.6
817.782	86.77
817.955	103.1
818.129	110.88
818.302	104.2
818.475	105.73
818.649	105.26
818.822	98.47
818.996	96.98
819.169	91.49
819.342	82.09
819.516	77.07
819.689	81.63
819.862	85.98
820.035	91.68
820.209	87.21
820.382	97.82
820.555	91.7
820.728	88.73
820.901	76.14
821.075	85.47
821.248	102.51
821.421	106.59
821.594	95.7
821.767	111.11
821.94	109.52
822.113	83.17
822.286	76.42
822.459	78.96
822.632	77.08
822.805	78.41
822.978	81.77
823.151	83.63
823.324	80.04
823.496	74.29
823.669	73.53
823.842	72.74
824.015	81.58
824.188	84.35
824.361	95.1
824.533	99.98
824.706	96.71
824.879	83.91
825.051	72.49
825.224	71.53
825.397	68.04
825.569	76.95
825.742	69.53
825.915	85.5
826.087	103.15
826.26	87.89
826.432	91.3
826.605	109.03
826.777	93.51
826.95	74.88
827.122	79.22
827.295	59.79
827.467	54.91
827.64	50.11
827.812	55.29
827.984	68.8
828.157	83.11
828.329	81.36
828.501	104.43
828.674	90.78
828.846	80.43
829.018	83.54
829.19	83.99
829.363	67.26
829.535	59.94
829.707	64.74
829.879	61.51
830.051	66.21
830.223	84.34
830.395	94.13
830.568	84.02
830.74	88.19
830.912	76.44
831.084	81.25
831.256	79.58
831.428	71.95
831.6	65.47
831.772	79.43
831.943	58.42
832.115	64.58
832.287	86.95
832.459	80.85
832.631	76.93
832.803	95.67
832.975	105.75
833.146	93.82
833.318	104.01
833.49	101.32
833.662	107.92
833.833	79.34
834.005	88.9
834.177	105.36
834.348	123.22
834.52	94.74
834.692	102.38
834.863	104.06
835.035	95.68
835.206	82.3
835.378	84.99
835.549	93.5
835.721	92.16
835.892	101.04
836.064	97.61
836.235	107.43
836.407	114.53
836.578	88.24
836.749	77.87
836.921	81.85
837.092	79.7
837.264	67.26
837.435	77.28
837.606	75.14
837.777	71.73
837.949	69.7
838.12	69.84
838.291	71.37
838.462	79.86
838.633	85.55
838.805	71.82
838.976	90.04
839.147	108.42
839.318	94.07
839.489	98.35
839.66	130.73
839.831	155.26
840.002	135.2
840.173	168.49
840.344	140.31
840.515	88.4
840.686	77.71
840.857	91.57
841.028	102.22
841.199	97.24
841.369	97.15
841.54	105.02
841.711	105.74
841.882	74.62
842.053	69.63
842.223	89.83
842.394	89.48
842.565	90.9
842.736	145.7
842.906	263.06
843.077	225.25
843.248	285.76
843.418	185.97
843.589	108.27
843.759	92.91
843.93	85.63
844.101	80.32
844.271	84.65
844.442	105.36
844.612	128.86
844.783	104.2
844.953	82.97
845.123	85.31
845.294	58.31
845.464	57.28
845.635	96.19
845.805	145.7
845.975	157.49
846.146	193.3
846.316	160.54
846.486	160.31
846.656	101.16
846.827	80.63
846.997	81.39
847.167	56.2
847.337	42.02
847.507	46.46
847.677	44.74
847.848	66.32
848.018	106.69
848.188	122.52
848.358	119.04
848.528	132.26
848.698	152.85
848.868	131.3
849.038	125.9
849.208	108.6
849.378	120.1
849.548	81
849.718	107.55
849.887	111.99
850.057	107.34
850.227	101.59
850.397	90.33
850.567	78.81
850.737	59.72
850.906	67.35
851.076	64.76
851.246	69.07
851.415	69.25
851.585	79.08
851.755	74.82
851.924	81.52
852.094	98.64
852.264	91.62
852.433	80.93
852.603	96.19
852.772	87.81
852.942	69.44
853.111	77.52
853.281	88.04
853.45	62.15
853.62	54.12
853.789	49.55
853.959	56.2
854.128	64.99
854.297	97.87
854.467	170.32
854.636	170.64
854.805	133.95
854.975	129.46
855.144	79.18
855.313	74.38
855.482	83.5
855.652	89.13
855.821	105.9
855.99	105.39
856.159	95.32
856.328	103.58
856.497	102.35
856.667	100.41
856.836	158.31
857.005	163.36
857.174	129.68
857.343	141.55
857.512	149.07
857.681	88.93
857.85	79.95
858.019	74
858.188	63.15
858.356	59.26
858.525	52.85
858.694	71.51
858.863	83.5
859.032	71.27
859.201	57.68
859.369	86.54
859.538	79.79
859.707	45.11
859.876	65.77
860.044	80.94
860.213	88.47
860.382	90.13
860.55	120.37
860.719	128.37
860.888	140.63
861.056	132.03
861.225	119.85
861.393	144.46
861.562	147.14
861.73	148.13
861.899	111.02
862.067	122.62
862.236	82.37
862.404	71.86
862.572	60.73
862.741	64.73
862.909	64.08
863.078	78.44
863.246	74.9
863.414	92.41
863.582	110.37
863.751	76.37
863.919	88.88
864.087	106.14
864.255	93.67
864.424	98.47
864.592	113.36
864.76	90.61
864.928	90.38
865.096	55.77
865.264	38.33
865.432	22.35
865.6	32.14
865.768	25.22
865.936	60.96
866.104	64.57
866.272	95.75
866.44	87.85
866.608	84.22
866.776	100.76
866.944	115.27
867.112	112.55
867.28	111.18
867.448	114.74
867.615	98.42
867.783	85.9
867.951	54.89
868.119	91.04
868.286	109.13
868.454	123.78
868.622	118.57
868.789	150.82
868.957	130.97
869.125	121.37
869.292	76.62
869.46	76.48
869.627	70.34
869.795	54.32
869.963	57
870.13	98.2
870.298	105.34
870.465	108.47
870.632	122.78
870.8	101.64
870.967	99.11
871.135	119.54
871.302	100.31
871.469	102.91
871.637	125.66
871.804	89.67
871.971	73.22
872.139	103.45
872.306	105.13
872.473	106
872.64	106.97
872.807	121.59
872.975	95.08
873.142	90.52
873.309	66.55
873.476	71.91
873.643	68.08
873.81	76.46
873.977	71.8
874.144	78.4
874.311	79.08
874.478	68.65
874.645	45.94
874.812	65.19
874.979	49.58
875.146	48.33
875.313	63.43
875.48	102.38
875.647	105.22
875.813	110.26
875.98	99.93
876.147	82.01
876.314	55.4
876.481	96.77
876.647	111.56
876.814	103.49
876.981	110.13
877.147	150.56
877.314	67.28
877.481	68.77
877.647	77.97
877.814	54.78
877.98	39.13
878.147	57.12
878.314	84.87
878.48	71.79
878.647	119.34
878.813	114.58
878.979	91.85
879.146	99.62
879.312	172.91
879.479	152.01
879.645	119.58
879.811	93.33
879.978	52.88
880.144	75.75
880.31	59.99
880.477	62.42
880.643	83.53
880.809	106.32
880.975	99.13
881.142	49.97
881.308	15.2
881.474	33.64
881.64	9.54
881.806	-184.35
881.972	19.41
882.138	96.98
882.304	53.25
882.47	30.07
882.636	49.15
882.802	67.83
882.968	65.41
883.134	70.95
883.3	84.97
883.466	101.72
883.632	115.39
883.798	125.56
883.964	222.1
884.129	328.03
884.295	187.72
884.461	128.12
884.627	111.75
884.793	82.77
884.958	83.81
885.124	85.22
885.29	75.79
885.455	82.52
885.621	93.76
885.787	85.6
885.952	82.47
886.118	98.49
886.283	108.88
886.449	109.59
886.614	98.24
886.78	112.62
886.945	107.59
887.111	97.46
887.276	78.07
887.442	96.16
887.607	115.98
887.773	114.57
887.938	108.28
888.103	96.22
888.269	97.04
888.434	67.86
888.599	62.87
888.764	58.94
888.93	77.98
889.095	68.62
889.26	74.23
889.425	71.83
889.59	99.67
889.756	66.33
889.921	49.33
890.086	67.84
890.251	93.11
890.416	41.41
890.581	47.85
890.746	59.02
890.911	61.74
891.076	61.72
891.241	95.08
891.406	120.44
891.571	129.14
891.736	81.99
891.901	84.6
892.065	89.58
892.23	107.68
892.395	104.26
892.56	139.95
892.725	123.28
892.889	97.85
893.054	62.91
893.219	63.64
893.384	73.98
893.548	65.32
893.713	65.52
893.878	51.79
