Data from Ofav_PP_310_Reflection_4.txt Node
Date: Tue Jul 27 19:02:11 EDT 2021
User: USUARIO
Spectrometer: FLMT01687
Trigger mode: 0
Integration Time (sec): 8.500000E-1
Scans to average: 2
Electric dark correction enabled: true
Nonlinearity correction enabled: false
Boxcar width: 2
XAxis mode: Wavelengths
Number of Pixels in Spectrum: 3648
>>>>>Begin Spectral Data<<<<<
179.494	-379.26
179.716	-190.05
179.937	-119.9
180.158	-137.16
180.38	-175.97
180.601	-204.03
180.823	70.53
181.044	54.55
181.265	1.55
181.486	-89.99
181.708	-51.9
181.929	108.7
182.15	101.96
182.372	-0.69
182.593	-10.52
182.814	13.68
183.035	37.37
183.257	15.76
183.478	15.63
183.699	13.76
183.92	26.3
184.141	16.39
184.363	44.4
184.584	65.32
184.805	80.01
185.026	49.08
185.247	48.18
185.468	20.69
185.689	9.68
185.91	-10.32
186.132	9.75
186.353	11.85
186.574	0.13
186.795	-0.77
187.016	3.62
187.237	-7.45
187.458	0.67
187.679	17.87
187.9	7.6
188.121	6.31
188.342	-2.41
188.563	-7.82
188.784	18.72
189.005	40.36
189.226	50.1
189.447	45.11
189.667	45.7
189.888	42.65
190.109	22.69
190.33	-9.67
190.551	-17.66
190.772	-5.3
190.993	-4.34
191.214	17.48
191.434	32.57
191.655	53.36
191.876	52.55
192.097	60.13
192.318	57.46
192.538	59.19
192.759	57.7
192.98	55.01
193.201	53.87
193.421	33.62
193.642	10.54
193.863	-0.22
194.083	8.93
194.304	-12.6
194.525	-19.19
194.745	-49.65
194.966	-94.46
195.187	-161.86
195.407	-127.58
195.628	-131.22
195.848	-50.4
196.069	-20.6
196.29	30.64
196.51	30.82
196.731	48.86
196.951	33.41
197.172	4.16
197.392	15.39
197.613	17.67
197.833	32.14
198.054	36.78
198.274	25.98
198.495	12.02
198.715	15.65
198.936	23.49
199.156	58.53
199.377	114.17
199.597	149.87
199.817	62.29
200.038	-20.37
200.258	-45.37
200.479	-21.23
200.699	19.16
200.919	19.68
201.14	40.1
201.36	41.2
201.58	52.17
201.801	42.89
202.021	55.57
202.241	53.42
202.461	33.67
202.682	-11.94
202.902	-46.15
203.122	-46.57
203.342	-72.83
203.563	-19.04
203.783	4.07
204.003	25.72
204.223	23.84
204.443	49.1
204.663	36.52
204.884	16.5
205.104	16.95
205.324	31.64
205.544	22.93
205.764	14.05
205.984	9.03
206.204	-23.48
206.424	-21.37
206.644	3.36
206.864	30.64
207.084	45.4
207.304	37.69
207.525	29.8
207.745	48.72
207.964	44.71
208.184	48.23
208.404	55.59
208.624	48
208.844	21.34
209.064	25.17
209.284	-4.55
209.504	0.72
209.724	-18.36
209.944	-31.46
210.164	-48.48
210.384	9.03
210.604	1.09
210.823	37.77
211.043	31.32
211.263	20.49
211.483	25.33
211.703	7.85
211.922	-25.54
212.142	-15.2
212.362	-0.85
212.582	-55.72
212.801	7.44
213.021	7.96
213.241	-9.53
213.461	-52.43
213.68	-15.11
213.9	-62.88
214.12	-25.81
214.339	-12.65
214.559	5.78
214.779	14.18
214.998	11.04
215.218	-0.06
215.438	11.47
215.657	18.38
215.877	6.6
216.096	15.47
216.316	14.55
216.535	7.77
216.755	29.26
216.974	41.49
217.194	43.23
217.413	40.71
217.633	36.65
217.852	12.43
218.072	2.8
218.291	-11.66
218.511	-14.29
218.73	-3.32
218.95	0.83
219.169	10.78
219.389	15.5
219.608	31.56
219.827	25.81
220.047	34.56
220.266	53.36
220.485	48.81
220.705	36.53
220.924	39.21
221.143	19.49
221.363	-6.68
221.582	4.84
221.801	18.27
222.021	30.59
222.24	36.57
222.459	28.05
222.678	27.36
222.897	9.38
223.117	7.21
223.336	0.17
223.555	9.02
223.774	-0.05
223.993	5.58
224.213	-22.53
224.432	9.74
224.651	28.45
224.87	30.94
225.089	17.69
225.308	26.11
225.527	21.41
225.746	-15.64
225.965	-7.86
226.184	-9.47
226.404	-22.26
226.623	-31.24
226.842	-9.88
227.061	-19.98
227.28	-4.99
227.499	7.5
227.718	-2.69
227.936	-3.19
228.155	14.84
228.374	31.73
228.593	41.85
228.812	53.05
229.031	47.81
229.25	31.63
229.469	5.58
229.688	-31.68
229.907	-70.11
230.125	-23.75
230.344	-22.74
230.563	-2.86
230.782	9.19
231.001	21.84
231.22	12.32
231.438	15.21
231.657	16.85
231.876	0.84
232.095	16.55
232.313	23.64
232.532	38.72
232.751	27.23
232.969	41.38
233.188	33.58
233.407	39.19
233.625	20.17
233.844	12.82
234.063	4.02
234.281	12.16
234.5	-5.41
234.719	7.5
234.937	-15.76
235.156	-13.14
235.374	-30.84
235.593	-23.28
235.811	-16.16
236.03	20.98
236.249	10.12
236.467	18.04
236.686	23.84
236.904	21.95
237.123	16.6
237.341	20.48
237.559	23.23
237.778	13.97
237.996	20.64
238.215	27.31
238.433	35.99
238.652	26.03
238.87	30.1
239.088	10.08
239.307	-0.94
239.525	-19.85
239.743	-2.36
239.962	-10.8
240.18	7.94
240.398	13.18
240.617	15.23
240.835	18.44
241.053	20.78
241.271	4.69
241.49	17.2
241.708	20.99
241.926	-6.81
242.144	-15.15
242.363	-27.27
242.581	-23.05
242.799	-21.46
243.017	-33.08
243.235	-25.31
243.453	0.18
243.672	-9.47
243.89	-10.82
244.108	8.66
244.326	10.12
244.544	-10.31
244.762	-3.76
244.98	19.36
245.198	4.38
245.416	10.63
245.634	39.65
245.852	37.69
246.07	35.39
246.288	40.51
246.506	32.66
246.724	17.58
246.942	19.06
247.16	0.25
247.378	9.33
247.596	23.87
247.814	31.12
248.032	24.35
248.25	46.18
248.468	42.15
248.685	15.49
248.903	26.06
249.121	23.66
249.339	26.85
249.557	34.71
249.775	31.34
249.992	9.86
250.21	6.05
250.428	-4.5
250.646	-24.42
250.863	-12.77
251.081	15.25
251.299	39.94
251.517	28.54
251.734	52.73
251.952	44.33
252.17	29.16
252.387	-9.41
252.605	18.01
252.823	20.11
253.04	32.01
253.258	39.94
253.475	47.89
253.693	47.3
253.911	54.3
254.128	50.15
254.346	40.24
254.563	32.57
254.781	21.21
254.998	12.39
255.216	-10.44
255.433	-17.17
255.651	6.14
255.868	-3.44
256.086	-18.96
256.303	-8.85
256.521	8.24
256.738	1.86
256.956	3.59
257.173	20.19
257.39	16.58
257.608	22.85
257.825	24.07
258.043	29.36
258.26	36.65
258.477	38.86
258.695	29.72
258.912	22.94
259.129	16.09
259.346	-19.81
259.564	-4.02
259.781	20.3
259.998	29.51
260.216	20.47
260.433	42.75
260.65	35.15
260.867	10.73
261.084	5.86
261.302	2.87
261.519	4.96
261.736	-5.57
261.953	1.18
262.17	5.6
262.387	13.71
262.604	14.19
262.822	10.31
263.039	22.6
263.256	24.2
263.473	32.18
263.69	21.8
263.907	28.64
264.124	15.61
264.341	12.13
264.558	12.66
264.775	4.01
264.992	20.7
265.209	26.7
265.426	32.98
265.643	23.95
265.86	27.4
266.077	14.09
266.294	19.74
266.51	20.96
266.727	18.6
266.944	13.81
267.161	4.32
267.378	-10.76
267.595	-18.8
267.812	-6.96
268.028	11.64
268.245	25.13
268.462	15.02
268.679	27.53
268.896	25.26
269.112	-5.34
269.329	-8.94
269.546	15.83
269.763	3.13
269.979	0.95
270.196	17.82
270.413	14.23
270.629	12.13
270.846	14.69
271.063	20
271.279	9.7
271.496	23.55
271.712	1.9
271.929	-2.87
272.146	-25.61
272.362	13.31
272.579	30.64
272.795	36.42
273.012	40.48
273.228	34.44
273.445	32.88
273.661	14.42
273.878	3.81
274.094	1.54
274.311	16.14
274.527	12.54
274.744	13.54
274.96	20.85
275.177	22.02
275.393	15.96
275.609	20.85
275.826	19.28
276.042	16.84
276.259	24.06
276.475	25.95
276.691	13.04
276.908	13.82
277.124	18.08
277.34	25.31
277.557	14.46
277.773	33.05
277.989	44.48
278.205	41.6
278.422	34.17
278.638	39.15
278.854	27.3
279.07	18.8
279.286	19.42
279.503	22.69
279.719	33.4
279.935	42.65
280.151	33.54
280.367	25.14
280.583	29.35
280.799	25.6
281.016	14.1
281.232	11.48
281.448	23.34
281.664	3.14
281.88	-10.26
282.096	-0.61
282.312	5.61
282.528	7.09
282.744	7.83
282.96	21.04
283.176	8.12
283.392	-0.51
283.608	-1.48
283.824	24.12
284.04	-2.41
284.256	14.67
284.471	21.45
284.687	21.4
284.903	27.73
285.119	49.62
285.335	37.02
285.551	31.51
285.767	34.02
285.982	15.21
286.198	-5.57
286.414	-1.56
286.63	0.12
286.846	-19.6
287.061	-13.31
287.277	-11.9
287.493	-25.48
287.709	-10.3
287.924	-1.58
288.14	6.05
288.356	35.48
288.571	52.79
288.787	36.94
289.003	32.35
289.218	29.26
289.434	-1.96
289.65	-8.14
289.865	-8.7
290.081	8.97
290.296	3.31
290.512	9.48
290.727	10.63
290.943	-9.28
291.159	-15.53
291.374	-13.13
291.59	5.89
291.805	12.92
292.021	33.37
292.236	16.71
292.451	3.11
292.667	-4.89
292.882	-8.76
293.098	-21
293.313	1.18
293.529	14.41
293.744	15.1
293.959	17.85
294.175	31.61
294.39	12.95
294.605	14.86
294.821	14.9
295.036	7.8
295.251	-10.92
295.467	-5.98
295.682	-19
295.897	3.67
296.112	31.87
296.328	26.41
296.543	41.38
296.758	39.37
296.973	23.29
297.188	22.31
297.404	17.72
297.619	19.94
297.834	15.62
298.049	19.05
298.264	10.35
298.479	15.47
298.694	9.3
298.909	1.46
299.125	8.94
299.34	-1.9
299.555	6.66
299.77	5.11
299.985	17.62
300.2	13.45
300.415	21.07
300.63	19.15
300.845	26.88
301.06	21.21
301.275	26.49
301.49	26.13
301.704	27.19
301.919	27.63
302.134	26.46
302.349	28.04
302.564	25.59
302.779	10.82
302.994	5.21
303.209	27.74
303.423	15.58
303.638	-0.75
303.853	17.61
304.068	10.44
304.283	-5.21
304.497	-8.21
304.712	4.16
304.927	-10.05
305.142	-6.31
305.356	-15.87
305.571	5.2
305.786	23.67
306	8.07
306.215	11.94
306.43	11.17
306.644	7.33
306.859	2.22
307.074	32.69
307.288	28.89
307.503	32.47
307.717	21.98
307.932	12.87
308.147	11.57
308.361	-4.36
308.576	1.29
308.79	-2.53
309.005	-9.66
309.219	-27.82
309.434	-17.87
309.648	-23.08
309.863	-20.55
310.077	-10.71
310.292	2.38
310.506	-4.53
310.72	-14.14
310.935	-14.69
311.149	-20.2
311.364	-49.92
311.578	-18.03
311.792	-14.92
312.007	-2.95
312.221	16.86
312.435	29.1
312.649	29.6
312.864	0.79
313.078	-6.62
313.292	-40.7
313.507	-30.43
313.721	-9.36
313.935	15.35
314.149	17.51
314.363	19.65
314.578	18.55
314.792	2.64
315.006	15.19
315.22	20.96
315.434	19.85
315.648	12.32
315.862	29.06
316.077	32.57
316.291	29
316.505	11.83
316.719	19.08
316.933	15.29
317.147	17.45
317.361	15.6
317.575	35.73
317.789	24.17
318.003	17.47
318.217	6.7
318.431	-0.91
318.645	-1.8
318.859	0.71
319.073	-4.41
319.287	-5
319.5	-20.73
319.714	-16.97
319.928	-12.37
320.142	-17.31
320.356	0.11
320.57	16.52
320.784	18.41
320.997	28.27
321.211	45.43
321.425	39.58
321.639	39.11
321.853	43.78
322.066	38.76
322.28	21.18
322.494	30
322.707	36.13
322.921	30.83
323.135	22.22
323.349	28.62
323.562	18.98
323.776	16.28
323.989	8.66
324.203	22.16
324.417	16.09
324.63	27.62
324.844	11.34
325.057	12.26
325.271	4.7
325.485	-0.57
325.698	-1.53
325.912	-0.41
326.125	2.73
326.339	6.2
326.552	4.55
326.766	-5.55
326.979	11.86
327.193	8.53
327.406	-3.99
327.619	-0.67
327.833	0.84
328.046	3.32
328.26	-7.24
328.473	-8.66
328.686	3.93
328.9	9.17
329.113	3.88
329.326	26.9
329.54	34.34
329.753	-3.01
329.966	7.86
330.179	-2.18
330.393	0.54
330.606	-3.21
330.819	27.52
331.032	24.48
331.246	26.71
331.459	28.22
331.672	27.81
331.885	14.07
332.098	19.46
332.311	11.52
332.525	4.69
332.738	10.15
332.951	14.44
333.164	4.52
333.377	12.56
333.59	21.67
333.803	26.7
334.016	17.49
334.229	15.25
334.442	19.45
334.655	25.11
334.868	20.56
335.081	29.21
335.294	34.91
335.507	20.07
335.72	13.33
335.933	2.74
336.146	1.65
336.359	-4.83
336.572	13.75
336.785	3.1
336.997	25.35
337.21	24.68
337.423	43.24
337.636	29.42
337.849	26.97
338.062	20.77
338.274	29.05
338.487	26.96
338.7	28.62
338.913	27.07
339.125	17.53
339.338	5.34
339.551	-15.9
339.763	-32.85
339.976	-22.63
340.189	-18.18
340.402	-20.13
340.614	-24.08
340.827	-22.35
341.039	-15.9
341.252	-25
341.465	-43.76
341.677	-27.49
341.89	-4.71
342.102	-4.07
342.315	14.58
342.527	22.91
342.74	21.71
342.952	12.33
343.165	25.14
343.377	16.48
343.59	4.78
343.802	2.52
344.015	5.58
344.227	-7.09
344.44	-24.35
344.652	-0.81
344.864	5.52
345.077	4.85
345.289	-8.72
345.502	3.12
345.714	-3.19
345.926	-8.68
346.139	-1.87
346.351	10.72
346.563	-1.53
346.775	-0.04
346.988	-2.54
347.2	-7.28
347.412	-21.53
347.624	3.14
347.837	-2.99
348.049	-4.99
348.261	-6.1
348.473	2.01
348.685	-5.95
348.897	-5.39
349.11	4.74
349.322	-2.17
349.534	-1.31
349.746	2.52
349.958	3.85
350.17	-3.72
350.382	-2.89
350.594	-20.93
350.806	-11.53
351.018	-13.01
351.23	-15.72
351.442	-23.43
351.654	-1.8
351.866	1.64
352.078	18.64
352.29	16.32
352.502	31.89
352.714	24.85
352.926	16.28
353.138	12.23
353.35	27.05
353.561	19.91
353.773	27.81
353.985	10.59
354.197	17.93
354.409	17.79
354.621	11.56
354.832	15.68
355.044	7.87
355.256	9.47
355.468	6.67
355.679	9.88
355.891	3.28
356.103	24.05
356.314	14.59
356.526	13.68
356.738	14.03
356.949	18.78
357.161	19.23
357.373	16.88
357.584	17.68
357.796	18.39
358.008	20.48
358.219	29.59
358.431	32.45
358.642	35.51
358.854	39.71
359.065	27.69
359.277	25.19
359.488	26.99
359.7	21
359.911	11.95
360.123	22.37
360.334	8.16
360.546	-7.92
360.757	-18.43
360.969	-15.18
361.18	-25.59
361.391	-6.71
361.603	-1.52
361.814	0.96
362.025	-1.33
362.237	-7.56
362.448	-13.08
362.659	-11.77
362.871	5.42
363.082	3.92
363.293	23.36
363.504	19.44
363.716	14.27
363.927	-19.68
364.138	-11.66
364.349	-10.25
364.56	-9.11
364.772	4.67
364.983	26.07
365.194	28.26
365.405	33.5
365.616	20.53
365.827	18.52
366.038	18.27
366.25	2.86
366.461	-27.82
366.672	-19.12
366.883	-11.51
367.094	-24.39
367.305	-15.09
367.516	-13.51
367.727	-8.66
367.938	-15.06
368.149	-2.82
368.36	5.46
368.571	5.21
368.781	12.11
368.992	8.25
369.203	-2.53
369.414	5.37
369.625	20.38
369.836	19.13
370.047	19.11
370.258	24.04
370.468	20
370.679	6.18
370.89	-3.82
371.101	-11.41
371.312	-6.92
371.522	-19.05
371.733	-15.34
371.944	-4.25
372.155	13.62
372.365	4.67
372.576	13.84
372.787	20.88
372.997	17.65
373.208	9.95
373.419	14.92
373.629	21.14
373.84	20.25
374.05	17.96
374.261	12.11
374.472	9.96
374.682	3.96
374.893	7.81
375.103	6.1
375.314	10.05
375.524	10.25
375.735	-2.58
375.945	-2.19
376.156	1.97
376.366	3.17
376.577	2.95
376.787	11.03
376.997	6.06
377.208	7.21
377.418	5.72
377.629	8.32
377.839	8.68
378.049	10.38
378.26	9.7
378.47	15.53
378.68	19.05
378.89	19.69
379.101	20.79
379.311	20.98
379.521	10.88
379.732	8.82
379.942	12.2
380.152	-1.22
380.362	12.07
380.572	5.31
380.783	1.02
380.993	-5.65
381.203	-2.56
381.413	-19.61
381.623	-6.97
381.833	3.51
382.043	14.17
382.253	13.2
382.463	16.72
382.674	19.83
382.884	4.08
383.094	-6
383.304	2.02
383.514	6.12
383.724	-2.98
383.934	3.08
384.144	-0.81
384.353	-1.01
384.563	-2.12
384.773	3.68
384.983	1.49
385.193	6.67
385.403	4.52
385.613	4.97
385.823	6.56
386.033	9.45
386.242	11.68
386.452	13.13
386.662	12.86
386.872	13.53
387.082	11.21
387.291	7.11
387.501	7.92
387.711	7.56
387.921	5.61
388.13	5.75
388.34	6.82
388.55	4.42
388.759	2.71
388.969	4.06
389.179	7.13
389.388	7.73
389.598	9.39
389.807	8.86
390.017	7.1
390.227	8.13
390.436	7.43
390.646	7.48
390.855	7.97
391.065	7.99
391.274	6.48
391.484	5.76
391.693	7.38
391.903	7.27
392.112	6.67
392.322	6.11
392.531	5.74
392.74	5.6
392.95	5.92
393.159	8.03
393.369	8.45
393.578	9.79
393.787	7.69
393.997	7.38
394.206	7.46
394.415	7.28
394.625	7.16
394.834	7.55
395.043	7.67
395.252	7.03
395.462	7.19
395.671	6.96
395.88	7.72
396.089	8.39
396.298	8.19
396.508	7.93
396.717	8.12
396.926	7.89
397.135	7.36
397.344	7.32
397.553	7.18
397.762	7.42
397.971	7.37
398.181	7.53
398.39	7.63
398.599	8.06
398.808	7.69
399.017	8.37
399.226	8.57
399.435	8.87
399.644	9.16
399.853	9.39
400.062	9.21
400.27	9.05
400.479	8.75
400.688	8.46
400.897	8.63
401.106	8.69
401.315	9.01
401.524	9.06
401.733	9.11
401.941	8.91
402.15	8.83
402.359	8.39
402.568	8.53
402.777	8.41
402.985	8.35
403.194	8.48
403.403	8.57
403.612	8.35
403.82	8.41
404.029	8.49
404.238	8.35
404.446	8.47
404.655	8.5
404.864	8.49
405.072	8.41
405.281	8.31
405.489	8.25
405.698	8.24
405.906	8.31
406.115	8.11
406.324	8.01
406.532	7.9
406.741	7.93
406.949	7.87
407.158	7.73
407.366	7.75
407.574	7.84
407.783	7.88
407.991	7.81
408.2	8.05
408.408	8.14
408.617	8.19
408.825	8.11
409.033	8.05
409.242	8.11
409.45	8.1
409.658	7.97
409.867	7.96
410.075	7.92
410.283	7.71
410.491	7.56
410.7	7.53
410.908	7.4
411.116	7.46
411.324	7.51
411.533	7.53
411.741	7.37
411.949	7.49
412.157	7.49
412.365	7.68
412.573	7.64
412.781	7.73
412.99	7.65
413.198	7.69
413.406	7.54
413.614	7.67
413.822	7.72
414.03	7.71
414.238	7.63
414.446	7.74
414.654	7.74
414.862	7.74
415.07	7.7
415.278	7.55
415.486	7.33
415.694	7.21
415.902	7.23
416.109	7.27
416.317	7.48
416.525	7.57
416.733	7.46
416.941	7.42
417.149	7.31
417.357	7.33
417.564	7.11
417.772	7.13
417.98	7.12
418.188	7.32
418.395	7.12
418.603	7.2
418.811	7.28
419.019	7.08
419.226	7.01
419.434	7.19
419.642	7.35
419.849	7.33
420.057	7.56
420.265	7.54
420.472	7.26
420.68	7.03
420.887	7.08
421.095	6.91
421.302	6.71
421.51	6.86
421.717	6.86
421.925	6.8
422.132	6.89
422.34	6.91
422.547	6.76
422.755	6.99
422.962	6.95
423.17	6.99
423.377	7.23
423.585	7.41
423.792	7.45
423.999	7.45
424.207	7.21
424.414	6.98
424.621	6.97
424.829	6.54
425.036	6.48
425.243	6.52
425.451	6.63
425.658	6.6
425.865	6.97
426.072	6.99
426.28	6.99
426.487	7
426.694	6.95
426.901	6.88
427.108	6.94
427.315	6.95
427.523	6.79
427.73	6.56
427.937	6.39
428.144	6.31
428.351	6.26
428.558	6.45
428.765	6.74
428.972	6.93
429.179	6.89
429.386	6.99
429.593	6.84
429.8	6.68
430.007	6.51
430.214	6.38
430.421	6.56
430.628	6.56
430.835	6.68
431.042	6.72
431.249	6.84
431.456	6.66
431.662	6.77
431.869	6.79
432.076	6.86
432.283	6.91
432.49	6.97
432.697	6.98
432.903	6.94
433.11	6.96
433.317	6.98
433.524	6.93
433.73	6.87
433.937	6.75
434.144	6.71
434.35	6.73
434.557	6.58
434.764	6.52
434.97	6.63
435.177	6.72
435.384	6.59
435.59	6.64
435.797	6.57
436.003	6.55
436.21	6.38
436.416	6.33
436.623	6.29
436.829	6.21
437.036	6.22
437.242	6.33
437.449	6.37
437.655	6.37
437.862	6.58
438.068	6.55
438.275	6.51
438.481	6.55
438.687	6.64
438.894	6.58
439.1	6.54
439.307	6.49
439.513	6.5
439.719	6.61
439.926	6.43
440.132	6.6
440.338	6.63
440.544	6.63
440.751	6.41
440.957	6.72
441.163	6.58
441.369	6.58
441.575	6.56
441.782	6.67
441.988	6.53
442.194	6.46
442.4	6.58
442.606	6.6
442.812	6.66
443.018	6.68
443.224	6.79
443.431	6.66
443.637	6.78
443.843	6.64
444.049	6.66
444.255	6.59
444.461	6.49
444.667	6.27
444.873	6.22
445.079	6.08
445.284	6.02
445.49	6.12
445.696	6.17
445.902	6.27
446.108	6.35
446.314	6.41
446.52	6.43
446.726	6.55
446.931	6.62
447.137	6.63
447.343	6.62
447.549	6.56
447.755	6.46
447.96	6.34
448.166	6.37
448.372	6.49
448.578	6.55
448.783	6.63
448.989	6.75
449.195	6.67
449.4	6.6
449.606	6.46
449.812	6.39
450.017	6.38
450.223	6.44
450.428	6.37
450.634	6.41
450.84	6.39
451.045	6.44
451.251	6.44
451.456	6.5
451.662	6.48
451.867	6.57
452.073	6.4
452.278	6.35
452.483	6.35
452.689	6.44
452.894	6.39
453.1	6.44
453.305	6.52
453.51	6.55
453.716	6.49
453.921	6.55
454.127	6.54
454.332	6.52
454.537	6.5
454.742	6.44
454.948	6.26
455.153	6.35
455.358	6.34
455.563	6.42
455.769	6.47
455.974	6.61
456.179	6.5
456.384	6.4
456.589	6.32
456.795	6.25
457	6.23
457.205	6.28
457.41	6.34
457.615	6.29
457.82	6.27
458.025	6.17
458.23	6.24
458.435	6.23
458.64	6.19
458.845	6.29
459.05	6.32
459.255	6.25
459.46	6.29
459.665	6.41
459.87	6.46
460.075	6.62
460.28	6.59
460.485	6.51
460.69	6.39
460.895	6.34
461.099	6.25
461.304	6.24
461.509	6.35
461.714	6.44
461.919	6.39
462.123	6.39
462.328	6.31
462.533	6.27
462.738	6.38
462.942	6.35
463.147	6.47
463.352	6.5
463.556	6.57
463.761	6.39
463.966	6.47
464.17	6.39
464.375	6.46
464.58	6.42
464.784	6.45
464.989	6.44
465.193	6.39
465.398	6.42
465.602	6.4
465.807	6.33
466.011	6.32
466.216	6.34
466.42	6.3
466.625	6.23
466.829	6.29
467.034	6.38
467.238	6.49
467.443	6.57
467.647	6.64
467.851	6.71
468.056	6.72
468.26	6.65
468.464	6.62
468.669	6.58
468.873	6.54
469.077	6.43
469.282	6.35
469.486	6.39
469.69	6.32
469.894	6.34
470.099	6.33
470.303	6.36
470.507	6.22
470.711	6.46
470.915	6.48
471.119	6.55
471.324	6.61
471.528	6.7
471.732	6.62
471.936	6.6
472.14	6.63
472.344	6.65
472.548	6.61
472.752	6.6
472.956	6.57
473.16	6.54
473.364	6.41
473.568	6.48
473.772	6.45
473.976	6.44
474.18	6.43
474.384	6.48
474.588	6.49
474.792	6.55
474.995	6.6
475.199	6.58
475.403	6.61
475.607	6.57
475.811	6.49
476.015	6.44
476.218	6.38
476.422	6.31
476.626	6.36
476.83	6.37
477.033	6.5
477.237	6.55
477.441	6.61
477.644	6.59
477.848	6.62
478.052	6.52
478.255	6.56
478.459	6.53
478.663	6.45
478.866	6.4
479.07	6.47
479.273	6.43
479.477	6.46
479.681	6.57
479.884	6.54
480.088	6.52
480.291	6.56
480.495	6.56
480.698	6.49
480.901	6.56
481.105	6.59
481.308	6.54
481.512	6.44
481.715	6.37
481.919	6.36
482.122	6.26
482.325	6.32
482.529	6.38
482.732	6.49
482.935	6.47
483.138	6.6
483.342	6.49
483.545	6.52
483.748	6.48
483.952	6.51
484.155	6.44
484.358	6.58
484.561	6.57
484.764	6.55
484.967	6.57
485.171	6.55
485.374	6.43
485.577	6.48
485.78	6.44
485.983	6.33
486.186	6.32
486.389	6.33
486.592	6.32
486.795	6.41
486.998	6.56
487.201	6.56
487.404	6.59
487.607	6.61
487.81	6.59
488.013	6.48
488.216	6.62
488.419	6.62
488.622	6.53
488.825	6.55
489.028	6.57
489.231	6.45
489.433	6.47
489.636	6.51
489.839	6.53
490.042	6.48
490.245	6.44
490.447	6.44
490.65	6.47
490.853	6.45
491.056	6.51
491.258	6.53
491.461	6.48
491.664	6.49
491.866	6.47
492.069	6.43
492.272	6.5
492.474	6.63
492.677	6.64
492.879	6.67
493.082	6.69
493.285	6.7
493.487	6.68
493.69	6.62
493.892	6.58
494.095	6.72
494.297	6.65
494.5	6.68
494.702	6.78
494.905	6.84
495.107	6.78
495.309	6.79
495.512	6.71
495.714	6.64
495.917	6.66
496.119	6.59
496.321	6.6
496.524	6.68
496.726	6.72
496.928	6.74
497.13	6.85
497.333	6.91
497.535	6.92
497.737	6.95
497.939	6.95
498.142	6.91
498.344	6.94
498.546	6.94
498.748	7.02
498.95	7.06
499.152	7.14
499.355	7.15
499.557	7.18
499.759	7.14
499.961	7.14
500.163	7.14
500.365	7.19
500.567	7.17
500.769	7.18
500.971	7.24
501.173	7.22
501.375	7.2
501.577	7.27
501.779	7.32
501.981	7.25
502.183	7.29
502.385	7.33
502.587	7.26
502.788	7.25
502.99	7.3
503.192	7.22
503.394	7.22
503.596	7.31
503.798	7.26
503.999	7.24
504.201	7.25
504.403	7.27
504.605	7.22
504.806	7.27
505.008	7.37
505.21	7.39
505.411	7.28
505.613	7.22
505.815	7.24
506.016	7.13
506.218	7.13
506.42	7.19
506.621	7.25
506.823	7.19
507.024	7.18
507.226	7.2
507.427	7.2
507.629	7.1
507.83	7.06
508.032	7.06
508.233	7.03
508.435	7.04
508.636	7.14
508.838	7.21
509.039	7.19
509.24	7.21
509.442	7.22
509.643	7.15
509.845	7.09
510.046	7.1
510.247	7.1
510.448	7.08
510.65	7.09
510.851	7.13
511.052	7.13
511.254	7.1
511.455	7.08
511.656	7.1
511.857	7.1
512.058	7.13
512.26	7.12
512.461	7.12
512.662	7.12
512.863	7.09
513.064	6.99
513.265	6.95
513.466	6.94
513.667	6.95
513.868	6.91
514.069	6.99
514.27	7.03
514.471	7.05
514.672	6.99
514.873	7.05
515.074	7.06
515.275	7.07
515.476	7.01
515.677	6.99
515.878	6.97
516.079	6.93
516.28	6.9
516.481	6.93
516.682	7.02
516.882	6.99
517.083	6.99
517.284	6.99
517.485	6.98
517.686	6.96
517.886	6.99
518.087	6.97
518.288	6.96
518.488	6.94
518.689	6.91
518.89	6.9
519.091	6.96
519.291	6.99
519.492	7.03
519.692	7.06
519.893	7.07
520.094	7.03
520.294	7.01
520.495	7.02
520.695	7.06
520.896	7.07
521.096	7.11
521.297	7.16
521.497	7.17
521.698	7.13
521.898	7.07
522.099	7.04
522.299	7.01
522.499	6.92
522.7	6.91
522.9	6.98
523.101	7.01
523.301	7.05
523.501	7.17
523.702	7.21
523.902	7.18
524.102	7.21
524.302	7.21
524.503	7.2
524.703	7.21
524.903	7.3
525.103	7.27
525.304	7.24
525.504	7.24
525.704	7.24
525.904	7.19
526.104	7.2
526.304	7.21
526.504	7.14
526.705	7.1
526.905	7.1
527.105	7.06
527.305	7.05
527.505	7.06
527.705	7.12
527.905	7.09
528.105	7.07
528.305	7.06
528.505	7.09
528.705	7.07
528.905	7.03
529.105	7.09
529.304	7.09
529.504	7.1
529.704	7.07
529.904	7.17
530.104	7.15
530.304	7.15
530.503	7.21
530.703	7.21
530.903	7.2
531.103	7.22
531.303	7.26
531.502	7.26
531.702	7.27
531.902	7.23
532.101	7.2
532.301	7.23
532.501	7.15
532.7	7.17
532.9	7.19
533.1	7.25
533.299	7.29
533.499	7.36
533.698	7.36
533.898	7.38
534.097	7.38
534.297	7.34
534.496	7.31
534.696	7.32
534.895	7.33
535.095	7.33
535.294	7.35
535.494	7.43
535.693	7.53
535.892	7.55
536.092	7.56
536.291	7.49
536.491	7.45
536.69	7.45
536.889	7.46
537.088	7.43
537.288	7.49
537.487	7.54
537.686	7.51
537.886	7.54
538.085	7.57
538.284	7.63
538.483	7.64
538.682	7.65
538.882	7.69
539.081	7.7
539.28	7.65
539.479	7.61
539.678	7.62
539.877	7.63
540.076	7.62
540.275	7.64
540.474	7.68
540.673	7.64
540.872	7.63
541.071	7.77
541.27	7.76
541.469	7.72
541.668	7.75
541.867	7.73
542.066	7.64
542.265	7.76
542.464	7.78
542.663	7.86
542.862	7.94
543.06	8
543.259	7.98
543.458	8.05
543.657	8.11
543.856	8.1
544.054	8.11
544.253	8.07
544.452	8.12
544.651	8.08
544.849	8.09
545.048	8.06
545.247	8.11
545.445	8.06
545.644	8.07
545.843	8.06
546.041	8.15
546.24	8.19
546.438	8.25
546.637	8.27
546.836	8.33
547.034	8.33
547.233	8.43
547.431	8.47
547.63	8.52
547.828	8.56
548.027	8.58
548.225	8.55
548.423	8.57
548.622	8.59
548.82	8.65
549.019	8.71
549.217	8.71
549.415	8.75
549.614	8.77
549.812	8.79
550.01	8.76
550.209	8.85
550.407	8.87
550.605	8.94
550.803	8.99
551.002	9.06
551.2	9.11
551.398	9.16
551.596	9.23
551.794	9.2
551.993	9.21
552.191	9.17
552.389	9.23
552.587	9.2
552.785	9.25
552.983	9.36
553.181	9.39
553.379	9.37
553.577	9.45
553.775	9.55
553.973	9.58
554.171	9.66
554.369	9.78
554.567	9.86
554.765	9.91
554.963	9.95
555.161	10.1
555.359	10.14
555.557	10.19
555.755	10.23
555.952	10.28
556.15	10.23
556.348	10.3
556.546	10.35
556.744	10.4
556.941	10.42
557.139	10.5
557.337	10.6
557.535	10.61
557.732	10.65
557.93	10.78
558.128	10.82
558.325	10.8
558.523	10.88
558.721	10.92
558.918	10.9
559.116	11.08
559.313	11.11
559.511	11.2
559.708	11.27
559.906	11.37
560.104	11.39
560.301	11.49
560.498	11.52
560.696	11.55
560.893	11.6
561.091	11.68
561.288	11.82
561.486	11.8
561.683	11.86
561.88	11.94
562.078	11.95
562.275	11.93
562.473	12.08
562.67	12.22
562.867	12.22
563.064	12.34
563.262	12.41
563.459	12.53
563.656	12.58
563.853	12.72
564.051	12.7
564.248	12.72
564.445	12.75
564.642	12.78
564.839	12.87
565.036	12.98
565.234	13.1
565.431	13.2
565.628	13.3
565.825	13.24
566.022	13.26
566.219	13.35
566.416	13.4
566.613	13.46
566.81	13.63
567.007	13.71
567.204	13.63
567.401	13.6
567.598	13.7
567.795	13.68
567.991	13.69
568.188	13.87
568.385	13.89
568.582	13.88
568.779	13.93
568.976	13.95
569.172	13.98
569.369	14.01
569.566	14.07
569.763	14.06
569.96	14.15
570.156	14.16
570.353	14.24
570.55	14.23
570.746	14.35
570.943	14.36
571.14	14.38
571.336	14.39
571.533	14.38
571.729	14.35
571.926	14.42
572.123	14.45
572.319	14.51
572.516	14.64
572.712	14.71
572.909	14.68
573.105	14.71
573.302	14.64
573.498	14.55
573.695	14.54
573.891	14.49
574.087	14.5
574.284	14.54
574.48	14.65
574.677	14.67
574.873	14.75
575.069	14.79
575.266	14.8
575.462	14.77
575.658	14.73
575.854	14.85
576.051	14.79
576.247	14.84
576.443	14.87
576.639	15
576.835	14.9
577.032	14.89
577.228	14.85
577.424	14.78
577.62	14.75
577.816	14.71
578.012	14.7
578.208	14.7
578.404	14.76
578.6	14.73
578.796	14.77
578.993	14.84
579.189	14.88
579.384	14.78
579.58	14.77
579.776	14.69
579.972	14.67
580.168	14.59
580.364	14.62
580.56	14.66
580.756	14.69
580.952	14.65
581.148	14.69
581.343	14.64
581.539	14.57
581.735	14.54
581.931	14.6
582.127	14.65
582.322	14.65
582.518	14.61
582.714	14.63
582.909	14.54
583.105	14.35
583.301	14.31
583.496	14.32
583.692	14.27
583.888	14.2
584.083	14.3
584.279	14.28
584.474	14.29
584.67	14.22
584.866	14.3
585.061	14.23
585.257	14.18
585.452	14.14
585.648	14.16
585.843	14.06
586.039	14.08
586.234	14.05
586.429	14.06
586.625	14.03
586.82	14.03
587.015	14.02
587.211	14.07
587.406	14.09
587.601	14.14
587.797	14.18
587.992	14.12
588.187	14.07
588.383	14.02
588.578	14.02
588.773	14.01
588.968	14.03
589.163	14.05
589.359	13.95
589.554	13.89
589.749	13.84
589.944	13.83
590.139	13.89
590.334	13.94
590.529	13.98
590.724	14.02
590.919	14.06
591.114	14.03
591.309	13.96
591.504	13.98
591.699	14
591.894	13.94
592.089	13.98
592.284	14.06
592.479	13.98
592.674	13.96
592.869	13.97
593.064	14.03
593.259	14.09
593.454	14.19
593.648	14.13
593.843	14.2
594.038	14.23
594.233	14.25
594.428	14.31
594.622	14.42
594.817	14.52
595.012	14.44
595.206	14.48
595.401	14.55
595.596	14.57
595.79	14.52
595.985	14.65
596.18	14.66
596.374	14.61
596.569	14.66
596.763	14.71
596.958	14.7
597.153	14.68
597.347	14.73
597.542	14.8
597.736	14.77
597.931	14.78
598.125	14.95
598.319	14.96
598.514	14.97
598.708	15.08
598.903	15.14
599.097	15.08
599.291	15.14
599.486	15.13
599.68	15.06
599.874	15.09
600.069	15.15
600.263	15.09
600.457	15.09
600.651	15.16
600.846	15.19
601.04	15.15
601.234	15.2
601.428	15.3
601.622	15.29
601.817	15.25
602.011	15.3
602.205	15.35
602.399	15.3
602.593	15.42
602.787	15.36
602.981	15.35
603.175	15.29
603.369	15.26
603.563	15.19
603.757	15.25
603.951	15.24
604.145	15.19
604.339	15.22
604.533	15.19
604.727	15.08
604.921	15.08
605.115	15.08
605.309	15.01
605.502	15.04
605.696	15.14
605.89	15.12
606.084	15.13
606.278	15.14
606.471	15.02
606.665	14.88
606.859	14.81
607.053	14.83
607.246	14.78
607.44	14.74
607.634	14.81
607.827	14.74
608.021	14.65
608.214	14.52
608.408	14.46
608.602	14.37
608.795	14.33
608.989	14.37
609.182	14.43
609.376	14.45
609.569	14.4
609.763	14.32
609.956	14.23
610.15	14.16
610.343	14.1
610.537	14.08
610.73	14.11
610.923	14.11
611.117	14.04
611.31	13.98
611.504	13.89
611.697	13.86
611.89	13.76
612.083	13.63
612.277	13.68
612.47	13.67
612.663	13.58
612.856	13.47
613.05	13.53
613.243	13.45
613.436	13.31
613.629	13.25
613.822	13.2
614.015	13.11
614.209	12.97
614.402	13.01
614.595	13
614.788	13
614.981	13.02
615.174	13.03
615.367	12.97
615.56	12.85
615.753	12.74
615.946	12.65
616.139	12.58
616.332	12.51
616.525	12.56
616.718	12.56
616.911	12.53
617.103	12.5
617.296	12.48
617.489	12.4
617.682	12.43
617.875	12.44
618.067	12.33
618.26	12.31
618.453	12.29
618.646	12.28
618.838	12.19
619.031	12.18
619.224	12.22
619.417	12.18
619.609	12.1
619.802	12.1
619.994	12.09
620.187	11.95
620.38	11.92
620.572	11.9
620.765	11.78
620.957	11.82
621.15	11.88
621.342	11.85
621.535	11.84
621.727	11.83
621.92	11.7
622.112	11.59
622.305	11.57
622.497	11.47
622.69	11.47
622.882	11.52
623.074	11.55
623.267	11.53
623.459	11.53
623.651	11.5
623.844	11.47
624.036	11.5
624.228	11.49
624.42	11.51
624.613	11.56
624.805	11.47
624.997	11.4
625.189	11.35
625.381	11.38
625.574	11.32
625.766	11.41
625.958	11.42
626.15	11.4
626.342	11.3
626.534	11.26
626.726	11.22
626.918	11.16
627.11	11.15
627.302	11.19
627.494	11.21
627.686	11.18
627.878	11.2
628.07	11.17
628.262	11.12
628.454	11.03
628.646	11.02
628.838	11.02
629.029	11.05
629.221	11.06
629.413	11.12
629.605	11.08
629.797	10.99
629.989	10.96
630.18	10.91
630.372	10.88
630.564	10.89
630.755	10.91
630.947	10.82
631.139	10.84
631.33	10.8
631.522	10.71
631.714	10.64
631.905	10.67
632.097	10.58
632.289	10.52
632.48	10.59
632.672	10.62
632.863	10.58
633.055	10.55
633.246	10.61
633.438	10.56
633.629	10.49
633.821	10.46
634.012	10.51
634.203	10.48
634.395	10.45
634.586	10.5
634.777	10.42
634.969	10.37
635.16	10.3
635.351	10.25
635.543	10.23
635.734	10.25
635.925	10.26
636.117	10.25
636.308	10.27
636.499	10.2
636.69	10.17
636.881	10.12
637.073	10.12
637.264	10.14
637.455	10.08
637.646	10.1
637.837	10.11
638.028	10.01
638.219	9.99
638.41	9.96
638.601	9.94
638.792	9.84
638.983	9.93
639.174	9.8
639.365	9.8
639.556	9.78
639.747	9.81
639.938	9.76
640.129	9.78
640.32	9.82
640.511	9.69
640.701	9.63
640.892	9.61
641.083	9.62
641.274	9.59
641.465	9.66
641.655	9.7
641.846	9.71
642.037	9.65
642.228	9.56
642.418	9.45
642.609	9.45
642.8	9.4
642.99	9.34
643.181	9.31
643.372	9.37
643.562	9.29
643.753	9.24
643.943	9.31
644.134	9.26
644.324	9.29
644.515	9.27
644.705	9.21
644.896	9.17
645.086	9.21
645.277	9.11
645.467	9.07
645.658	9.1
645.848	9.08
646.038	9.06
646.229	9.1
646.419	9.14
646.61	9.13
646.8	9.07
646.99	9.1
647.18	9.07
647.371	9.08
647.561	9.03
647.751	9.08
647.941	8.97
648.132	8.97
648.322	8.86
648.512	8.91
648.702	8.88
648.892	8.9
649.082	8.87
649.272	8.89
649.462	8.92
649.653	8.85
649.843	8.85
650.033	8.81
650.223	8.75
650.413	8.56
650.603	8.69
650.793	8.64
650.983	8.68
651.172	8.75
651.362	8.85
651.552	8.74
651.742	8.74
651.932	8.7
652.122	8.68
652.312	8.59
652.502	8.53
652.691	8.48
652.881	8.52
653.071	8.51
653.261	8.58
653.45	8.52
653.64	8.6
653.83	8.56
654.019	8.42
654.209	8.33
654.399	8.31
654.588	8.11
654.778	7.98
654.968	7.98
655.157	7.87
655.347	7.88
655.536	7.86
655.726	7.81
655.915	7.76
656.105	7.81
656.294	7.77
656.484	7.78
656.673	7.72
656.863	7.65
657.052	7.6
657.241	7.48
657.431	7.33
657.62	7.26
657.809	7.15
657.999	7.08
658.188	7.1
658.377	7.12
658.567	7.06
658.756	7.09
658.945	7.05
659.134	7
659.324	7.02
659.513	7.15
659.702	7.05
659.891	6.96
660.08	6.8
660.269	6.58
660.458	6.4
660.648	6.46
660.837	6.39
661.026	6.46
661.215	6.44
661.404	6.33
661.593	6.15
661.782	6.14
661.971	6.03
662.16	6.01
662.349	5.93
662.538	5.93
662.726	5.91
662.915	5.88
663.104	5.86
663.293	5.96
663.482	5.91
663.671	5.79
663.86	5.73
664.048	5.65
664.237	5.49
664.426	5.49
664.615	5.47
664.803	5.44
664.992	5.49
665.181	5.61
665.369	5.56
665.558	5.57
665.747	5.55
665.935	5.52
666.124	5.46
666.312	5.42
666.501	5.42
666.69	5.38
666.878	5.35
667.067	5.33
667.255	5.52
667.444	5.54
667.632	5.76
667.82	5.81
668.009	5.81
668.197	5.73
668.386	5.8
668.574	5.73
668.762	5.74
668.951	5.82
669.139	5.98
669.327	5.89
669.516	5.92
669.704	6.01
669.892	6.07
670.08	6.04
670.269	6.09
670.457	6.07
670.645	6.01
670.833	5.98
671.021	5.96
671.21	5.97
671.398	6.02
671.586	6.01
671.774	6.13
671.962	6.09
672.15	6.16
672.338	6.24
672.526	6.47
672.714	6.47
672.902	6.57
673.09	6.68
673.278	6.67
673.466	6.61
673.654	6.63
673.842	6.7
674.03	6.75
674.218	6.85
674.405	6.96
674.593	6.99
674.781	6.94
674.969	6.93
675.157	6.9
675.344	6.95
675.532	7.08
675.72	7.2
675.908	7.24
676.095	7.28
676.283	7.34
676.471	7.35
676.658	7.4
676.846	7.51
677.033	7.59
677.221	7.57
677.409	7.61
677.596	7.66
677.784	7.74
677.971	7.81
678.159	7.94
678.346	8
678.534	8.04
678.721	8.06
678.909	8.24
679.096	8.2
679.283	8.43
679.471	8.4
679.658	8.4
679.846	8.42
680.033	8.46
680.22	8.37
680.408	8.46
680.595	8.61
680.782	8.6
680.969	8.67
681.157	8.76
681.344	8.78
681.531	8.79
681.718	8.84
681.905	8.93
682.093	8.93
682.28	8.97
682.467	9.18
682.654	9.24
682.841	9.3
683.028	9.33
683.215	9.47
683.402	9.27
683.589	9.35
683.776	9.54
683.963	9.55
684.15	9.66
684.337	9.95
684.524	10.02
684.711	10.15
684.898	10.22
685.085	10.35
685.271	10.41
685.458	10.4
685.645	10.31
685.832	10.6
686.019	10.77
686.205	10.94
686.392	11.24
686.579	11.49
686.766	11.66
686.952	11.76
687.139	11.9
687.326	12.1
687.512	12.12
687.699	12.08
687.886	12.29
688.072	12.38
688.259	12.57
688.445	12.8
688.632	13.31
688.818	13.55
689.005	13.91
689.191	13.96
689.378	14.38
689.564	14.57
689.751	14.82
689.937	15.08
690.124	15.56
690.31	15.84
690.496	16.28
690.683	16.56
690.869	16.86
691.055	17.31
691.242	17.55
691.428	17.78
691.614	18.15
691.8	18.47
691.987	18.81
692.173	19.34
692.359	19.76
692.545	20.17
692.731	20.9
692.918	21.32
693.104	21.63
693.29	22.2
693.476	22.73
693.662	23.02
693.848	23.44
694.034	23.87
694.22	24.3
694.406	24.8
694.592	25.22
694.778	25.75
694.964	26.44
695.15	26.92
695.336	27.29
695.522	27.89
695.708	28.52
695.894	28.98
696.08	29.44
696.265	30.3
696.451	30.79
696.637	31.31
696.823	32.01
697.009	32.55
697.194	32.94
697.38	33.71
697.566	34.06
697.751	34.65
697.937	35.29
698.123	35.86
698.308	36.08
698.494	36.86
698.68	37.29
698.865	37.86
699.051	38.45
699.236	39.18
699.422	39.45
699.607	40.14
699.793	40.76
699.978	41.3
700.164	41.66
700.349	42.33
700.535	42.79
700.72	43.2
700.906	43.62
701.091	44.54
701.276	45.1
701.462	45.67
701.647	46.28
701.832	46.94
702.018	47.44
702.203	47.94
702.388	48.41
702.573	48.93
702.759	49.46
702.944	49.92
703.129	50.43
703.314	50.77
703.499	51.45
703.684	52.02
703.87	52.61
704.055	53.08
704.24	53.7
704.425	53.94
704.61	54.37
704.795	54.63
704.98	55.28
705.165	55.67
705.35	56.39
705.535	56.68
705.72	57.21
705.905	57.68
706.09	57.94
706.275	58.4
706.459	59.29
706.644	59.65
706.829	60.11
707.014	60.66
707.199	60.8
707.384	60.87
707.568	61.25
707.753	61.58
707.938	62.04
708.123	62.71
708.307	63.24
708.492	63.73
708.677	63.99
708.861	64.96
709.046	65.27
709.231	65.36
709.415	65.74
709.6	66.22
709.784	66.48
709.969	66.97
710.153	67.5
710.338	68.1
710.522	68.83
710.707	68.46
710.891	68.73
711.076	69.13
711.26	69.26
711.445	69.31
711.629	69.92
711.813	70.14
711.998	70.63
712.182	70.75
712.366	70.94
712.551	71.21
712.735	71.32
712.919	71.5
713.103	71.59
713.288	71.67
713.472	71.89
713.656	72.24
713.84	72.35
714.024	72.76
714.208	73
714.393	73.6
714.577	74.07
714.761	74.53
714.945	74.56
715.129	74.68
715.313	74.66
715.497	75.01
715.681	75.1
715.865	76.09
716.049	76.78
716.233	77.42
716.417	77.66
716.601	77.55
716.785	77.33
716.968	77.22
717.152	77.28
717.336	77.95
717.52	78.28
717.704	78.76
717.888	79.73
718.071	79.62
718.255	79.56
718.439	79.97
718.622	79.91
718.806	79.61
718.99	79.88
719.174	79.29
719.357	79.06
719.541	79.44
719.724	79.48
719.908	79.82
720.092	80.36
720.275	81.23
720.459	81.41
720.642	81.9
720.826	82.47
721.009	82.58
721.193	82.71
721.376	82.85
721.559	82.96
721.743	82.4
721.926	82.83
722.11	82.46
722.293	82.46
722.476	82.9
722.66	83.27
722.843	82.9
723.026	83.6
723.21	84.19
723.393	83.52
723.576	83.61
723.759	83.74
723.942	83.86
724.126	83.87
724.309	84.63
724.492	85.07
724.675	85.78
724.858	85.97
725.041	86.06
725.224	85.89
725.407	85.9
725.59	86.11
725.774	86.72
725.957	87.25
726.14	87.68
726.322	88.05
726.505	87.93
726.688	87.41
726.871	87.18
727.054	87.09
727.237	86.98
727.42	87.24
727.603	87.48
727.786	87.21
727.968	87.59
728.151	87.95
728.334	87.7
728.517	87.84
728.699	88.62
728.882	88.95
729.065	89.46
729.248	90.28
729.43	90.71
729.613	90.98
729.796	90.56
729.978	90.88
730.161	90.28
730.343	89.97
730.526	90.27
730.708	90.35
730.891	90.13
731.073	90.66
731.256	91.62
731.438	91.34
731.621	92.03
731.803	91.44
731.986	92.18
732.168	91.59
732.35	91.29
732.533	90.69
732.715	91.22
732.898	90.81
733.08	91.52
733.262	92
733.444	92.53
733.627	93.03
733.809	92.72
733.991	92.69
734.173	92.96
734.355	94.05
734.538	93.64
734.72	94.47
734.902	94.75
735.084	95.05
735.266	94.02
735.448	94.62
735.63	94.9
735.812	94.29
735.994	93.63
736.176	93.85
736.358	95.04
736.54	94.45
736.722	94.62
736.904	95.37
737.086	95.35
737.268	93.87
737.45	94.19
737.632	94.5
737.814	93.9
737.995	94.98
738.177	94.87
738.359	95.1
738.541	95.28
738.723	96.59
738.904	96.31
739.086	96.84
739.268	96.56
739.449	96.26
739.631	95.26
739.813	95.39
739.994	95.04
740.176	94.9
740.358	94.98
740.539	95.47
740.721	95.31
740.902	95.39
741.084	95.43
741.265	95.1
741.447	94.47
741.628	94.12
741.81	94.57
741.991	95.4
742.172	96.39
742.354	97.89
742.535	98.53
742.717	98.59
742.898	99.11
743.079	98.42
743.261	97.2
743.442	96.84
743.623	96.16
743.804	94.7
743.986	95.33
744.167	96.67
744.348	95.53
744.529	96.63
744.71	96.92
744.891	97.4
745.073	97.23
745.254	98.92
745.435	98.7
745.616	98.47
745.797	97.35
745.978	96.74
746.159	96.76
746.34	96.46
746.521	96.72
746.702	96.93
746.883	96.26
747.064	95.63
747.245	96.35
747.426	96.87
747.606	96.68
747.787	97.83
747.968	97.86
748.149	98.42
748.33	98.24
748.51	99.1
748.691	97.79
748.872	97.48
749.053	96.3
749.233	97.16
749.414	95.82
749.595	97.1
749.775	97.98
749.956	98.29
750.137	97.42
750.317	97.95
750.498	96.93
750.678	97.46
750.859	97.72
751.04	97.72
751.22	96.85
751.4	97.6
751.581	96.82
751.761	96.5
751.942	95.67
752.122	96.26
752.303	95.36
752.483	94.05
752.663	93.86
752.844	93.89
753.024	94.78
753.204	94.59
753.385	95.45
753.565	96.48
753.745	98
753.925	96.8
754.106	97.78
754.286	97.38
754.466	96.75
754.646	97.6
754.826	97.61
755.006	97.87
755.187	99
755.367	98.45
755.547	96.79
755.727	96.46
755.907	95.66
756.087	96.32
756.267	95.6
756.447	97.16
756.627	98.94
756.807	99.19
756.987	96.92
757.167	98.81
757.346	97.11
757.526	95.2
757.706	95.11
757.886	95.46
758.066	94.32
758.246	94.13
758.425	96.22
758.605	96.72
758.785	97.7
758.965	98.71
759.144	100.9
759.324	99.67
759.504	99.38
759.683	99.87
759.863	98.83
760.043	97.09
760.222	95.83
760.402	95.67
760.581	96.95
760.761	96
760.94	95.91
761.12	96.97
761.299	96.16
761.479	95.09
761.658	95.08
761.838	94.86
762.017	95.02
762.197	96.48
762.376	95.46
762.555	94.75
762.735	95.27
762.914	94.92
763.093	93.72
763.273	93.69
763.452	95.21
763.631	93.17
763.81	93.05
763.99	93.76
764.169	94.95
764.348	95.43
764.527	96.88
764.706	95.93
764.885	95.52
765.064	96.39
765.243	96.22
765.423	95.42
765.602	95.38
765.781	96.01
765.96	93.76
766.139	92.81
766.318	93.03
766.497	94.94
766.676	95.8
766.854	97.22
767.033	97.68
767.212	98.25
767.391	97.62
767.57	97.44
767.749	94.35
767.928	94.46
768.106	96.34
768.285	95.96
768.464	94.85
768.643	96.81
768.821	97.49
769	95.23
769.179	96.67
769.357	95.59
769.536	94.63
769.715	93.53
769.893	94.5
770.072	92.63
770.25	94.03
770.429	94.81
770.607	93.79
770.786	94.03
770.964	93.47
771.143	92.51
771.321	91.34
771.5	93.61
771.678	91.57
771.857	91.5
772.035	93.66
772.213	93.5
772.392	91.77
772.57	93.36
772.748	93.86
772.927	92.66
773.105	92.91
773.283	92.3
773.461	91.58
773.64	92.4
773.818	91.69
773.996	90.04
774.174	90.31
774.352	89.2
774.531	89.12
774.709	89.49
774.887	92
775.065	92.66
775.243	95.02
775.421	94.91
775.599	91.7
775.777	91.85
775.955	90.59
776.133	91.36
776.311	91.84
776.489	94.64
776.667	94.41
776.844	96.5
777.022	94.87
777.2	93.28
777.378	93.34
777.556	92.8
777.734	89.05
777.911	87.2
778.089	87.37
778.267	85.03
778.445	84.9
778.622	86.31
778.8	90.07
778.978	89.67
779.155	90.69
779.333	89.97
779.511	91.5
779.688	88.75
779.866	89.78
780.043	90.94
780.221	93.73
780.398	93.03
780.576	93.7
780.753	92.98
780.931	91.45
781.108	89.93
781.286	88.64
781.463	87.83
781.64	88.47
781.818	89.59
781.995	86.91
782.172	87.54
782.35	86.77
782.527	89.82
782.704	87.65
782.882	89.65
783.059	89.34
783.236	88.5
783.413	84.92
783.59	84.52
783.768	83.6
783.945	86.18
784.122	86.43
784.299	88.55
784.476	89.2
784.653	90.82
784.83	89.73
785.007	90.89
785.184	88.66
785.361	87.78
785.538	88.11
785.715	85.66
785.892	84.01
786.069	84.79
786.246	86.22
786.423	85.75
786.6	87.28
786.776	88.74
786.953	88.56
787.13	90.05
787.307	88.42
787.484	90.29
787.66	90.56
787.837	91.27
788.014	94.25
788.191	93.15
788.367	92.61
788.544	92.54
788.721	89.21
788.897	86.13
789.074	88.68
789.25	85.21
789.427	82.5
789.603	82.71
789.78	79.9
789.956	76.92
790.133	80
790.309	81.67
790.486	82.38
790.662	85.73
790.839	88
791.015	82.85
791.192	82.76
791.368	84.15
791.544	82.55
791.721	81.58
791.897	82.44
792.073	82.04
792.249	79.6
792.426	85.92
792.602	88.45
792.778	87.98
792.954	88.15
793.13	87.38
793.307	79.97
793.483	77.83
793.659	80.81
793.835	82.05
794.011	87.51
794.187	87.99
794.363	91.78
794.539	85.8
794.715	86.28
794.891	84.09
795.067	81.05
795.243	76.84
795.419	83.44
795.595	79.47
795.771	79.49
795.947	78.31
796.122	75.66
796.298	73.88
796.474	76.74
796.65	74.95
796.826	75.82
797.001	76.88
797.177	74.17
797.353	71.95
797.529	79.69
797.704	80.83
797.88	82.99
798.056	83.08
798.231	87.92
798.407	78.24
798.582	78.31
798.758	74.14
798.934	77.64
799.109	77.09
799.285	77.65
799.46	76.69
799.636	83.02
799.811	77.37
799.986	74.31
800.162	70.83
800.337	71.72
800.513	66.41
800.688	72.33
800.863	73.52
801.039	79.95
801.214	82.99
801.389	84.43
801.565	74.6
801.74	78.25
801.915	73.9
802.09	72.62
802.265	81.24
802.441	83.92
802.616	76.72
802.791	79.3
802.966	78.15
803.141	67.35
803.316	69.93
803.491	73.18
803.666	71.57
803.841	75.62
804.016	77.64
804.191	74.91
804.366	84.11
804.541	82.12
804.716	75.12
804.891	79.09
805.066	85.4
805.241	75.97
805.416	76.08
805.591	78.77
805.765	75.82
805.94	70.79
806.115	67.75
806.29	71.28
806.464	73.65
806.639	78.21
806.814	74.89
806.989	78.64
807.163	73.47
807.338	71.21
807.512	70.71
807.687	75.38
807.862	71.78
808.036	73.54
808.211	72.14
808.385	64.34
808.56	64.99
808.734	62.52
808.909	60.16
809.083	59.56
809.258	64.59
809.432	68.54
809.606	68.41
809.781	69.95
809.955	69.59
810.13	70.67
810.304	62.54
810.478	69.5
810.652	69.15
810.827	68.91
811.001	72.47
811.175	80.62
811.349	77.46
811.524	68.31
811.698	68.7
811.872	64.32
812.046	60.95
812.22	60.12
812.394	72.86
812.568	76.01
812.742	74.45
812.916	78.51
813.09	71.07
813.264	78.22
813.438	81.62
813.612	83.52
813.786	76.55
813.96	91.26
814.134	76.59
814.308	71.94
814.482	67.54
814.656	75.61
814.83	63.69
815.003	72.14
815.177	65.84
815.351	82.44
815.525	78.78
815.698	82.23
815.872	84.86
816.046	92.4
816.219	79.45
816.393	84.83
816.567	89.68
816.74	76.19
816.914	65.2
817.088	64.77
817.261	60.01
817.435	60.48
817.608	64
817.782	65.02
817.955	63.53
818.129	68.6
818.302	64.77
818.475	72.7
818.649	79.38
818.822	83.44
818.996	79.06
819.169	76.95
819.342	73.28
819.516	71.71
819.689	72.07
819.862	77.11
820.035	71.56
820.209	64.31
820.382	77.88
820.555	77.04
820.728	72.29
820.901	82.62
821.075	98.36
821.248	97.79
821.421	96.75
821.594	92.34
821.767	91.89
821.94	99.25
822.113	83.03
822.286	85.48
822.459	86.73
822.632	91.49
822.805	73.93
822.978	77.42
823.151	73.55
823.324	69.77
823.496	62.99
823.669	62.85
823.842	56.67
824.015	66.13
824.188	58.36
824.361	55.4
824.533	61.98
824.706	63.07
824.879	52.88
825.051	55.89
825.224	55.93
825.397	61.96
825.569	69.9
825.742	58.72
825.915	70.97
826.087	70
826.26	63.65
826.432	70
826.605	69.77
826.777	62.33
826.95	60.1
827.122	51.92
827.295	36.19
827.467	48.21
827.64	40.93
827.812	43.95
827.984	55.14
828.157	65.46
828.329	55.32
828.501	68.64
828.674	61.26
828.846	47.86
829.018	51.25
829.19	59.4
829.363	47.12
829.535	54.37
829.707	61.03
829.879	52.09
830.051	40.59
830.223	46.4
830.395	28.6
830.568	39.8
830.74	47.1
830.912	52.55
831.084	59.74
831.256	70.57
831.428	63.9
831.6	70.56
831.772	72.95
831.943	77.55
832.115	63.95
832.287	65.91
832.459	46.46
832.631	44.32
832.803	35.5
832.975	49.83
833.146	46.49
833.318	67.29
833.49	76.81
833.662	92.32
833.833	72.55
834.005	85.77
834.177	88
834.348	85.84
834.52	50.78
834.692	59.64
834.863	45.84
835.035	48.93
835.206	47.95
835.378	50.01
835.549	54.19
835.721	66.99
835.892	59.47
836.064	66.33
836.235	83.98
836.407	81.48
836.578	69.76
836.749	57.85
836.921	45.14
837.092	48.03
837.264	45.24
837.435	52.69
837.606	60.24
837.777	61.49
837.949	45.79
838.12	35.66
838.291	22.11
838.462	29.52
838.633	19.2
838.805	28.31
838.976	60.17
839.147	85.69
839.318	63.24
839.489	56.58
839.66	75
839.831	62.02
840.002	37.26
840.173	28.08
840.344	63.33
840.515	72.41
840.686	64.32
840.857	62.21
841.028	72.7
841.199	61.18
841.369	52.49
841.54	65.07
841.711	69.55
841.882	68.55
842.053	65.18
842.223	70.77
842.394	73.99
842.565	75.65
842.736	67.32
842.906	73.47
843.077	64.67
843.248	74.05
843.418	74.06
843.589	65
843.759	68.53
843.93	56.06
844.101	47.98
844.271	40.91
844.442	36.12
844.612	47.26
844.783	40.3
844.953	44.28
845.123	58
845.294	56.12
845.464	45.62
845.635	76.3
845.805	77.64
845.975	77.44
846.146	72.71
846.316	57.64
846.486	29.23
846.656	36.74
846.827	48.25
846.997	75.19
847.167	81.15
847.337	77.52
847.507	90.86
847.677	63.38
847.848	49.77
848.018	58.05
848.188	53.82
848.358	38.08
848.528	27.92
848.698	53.11
848.868	61.26
849.038	53.57
849.208	21.54
849.378	51.92
849.548	35.3
849.718	35.92
849.887	29.8
850.057	46.04
850.227	40.28
850.397	49.31
850.567	37.21
850.737	40.17
850.906	46.34
851.076	52.66
851.246	54.66
851.415	58.13
851.585	62.64
851.755	54.83
851.924	51.24
852.094	46.45
852.264	30.54
852.433	26.81
852.603	41.89
852.772	28.25
852.942	14.97
853.111	35.24
853.281	41.79
853.45	29.85
853.62	23.6
853.789	15.42
853.959	28.75
854.128	30.38
854.297	22.65
854.467	57.18
854.636	63.58
854.805	44.9
854.975	52.5
855.144	42.19
855.313	25.32
855.482	27.33
855.652	27.79
855.821	-8.87
855.99	10.27
856.159	22.35
856.328	21.12
856.497	41.64
856.667	57.61
856.836	53.79
857.005	58.54
857.174	71.93
857.343	34.82
857.512	28.29
857.681	28.99
857.85	56.75
858.019	17.71
858.188	12.5
858.356	23.79
858.525	47.54
858.694	26.85
858.863	52.75
859.032	54.28
859.201	48.29
859.369	38.83
859.538	42.52
859.707	34.65
859.876	31.14
860.044	48.21
860.213	55.29
860.382	50.15
860.55	53.73
860.719	59.81
860.888	66
861.056	48.16
861.225	56.35
861.393	48.79
861.562	71.04
861.73	50.84
861.899	46.07
862.067	52.16
862.236	48.19
862.404	28.92
862.572	33.7
862.741	49.68
862.909	42.13
863.078	33.43
863.246	51.92
863.414	63.28
863.582	60.99
863.751	47.97
863.919	51.48
864.087	21.86
864.255	30.17
864.424	22.3
864.592	17.28
864.76	26.09
864.928	18.29
865.096	-12.01
865.264	4.68
865.432	4.05
865.6	2.84
865.768	16.02
865.936	41.49
866.104	21.79
866.272	25.94
866.44	12.94
866.608	-7.38
866.776	-24.08
866.944	13.94
867.112	23.64
867.28	45.38
867.448	56
867.615	44.15
867.783	39.21
867.951	30.98
868.119	45.44
868.286	60.52
868.454	59.91
868.622	69.25
868.789	96.95
868.957	77.23
869.125	84.68
869.292	89.62
869.46	70.58
869.627	53.95
869.795	50.93
869.963	54.68
870.13	46.65
870.298	37.89
870.465	53.52
870.632	56.24
870.8	38.92
870.967	50.44
871.135	75.39
871.302	49.27
871.469	58.47
871.637	61.85
871.804	51.11
871.971	35.83
872.139	47.73
872.306	35.61
872.473	40.17
872.64	28.47
872.807	42.04
872.975	13.92
873.142	26
873.309	15.09
873.476	24.47
873.643	22.01
873.81	59.03
873.977	42.49
874.144	29.24
874.311	30.83
874.478	38.04
874.645	22.79
874.812	24.33
874.979	35.66
875.146	39.66
875.313	16.61
875.48	36.35
875.647	31.55
875.813	45.93
875.98	55.86
876.147	71.61
876.314	42.9
876.481	68.55
876.647	70.79
876.814	73.7
876.981	66.97
877.147	91.32
877.314	63.39
877.481	52.51
877.647	26.9
877.814	18.86
877.98	5.95
878.147	-15.13
878.314	-32.08
878.48	-15.91
878.647	-11.25
878.813	-10.73
878.979	-2.91
879.146	11.25
879.312	19.14
879.479	27.56
879.645	19.09
879.811	-7.63
879.978	-2.57
880.144	0.14
880.31	2.64
880.477	-2.66
880.643	9.35
880.809	-9.08
880.975	-19.39
881.142	-96.81
881.308	-25.57
881.474	-83.75
881.64	-55.99
881.806	-78.91
881.972	72.47
882.138	115.43
882.304	73.36
882.47	76.95
882.636	57.71
882.802	37.73
882.968	26.84
883.134	38.62
883.3	43.97
883.466	49.51
883.632	79.15
883.798	63.5
883.964	81.5
884.129	80.08
884.295	33.56
884.461	7.96
884.627	29.15
884.793	46.42
884.958	32.46
885.124	46.54
885.29	35.11
885.455	23.74
885.621	0.64
885.787	-1.68
885.952	-12.58
886.118	7.81
886.283	29.57
886.449	38.72
886.614	42.64
886.78	50.8
886.945	59.67
887.111	57.63
887.276	49.18
887.442	39.72
887.607	34.19
887.773	-17.11
887.938	-49.36
888.103	-37.61
888.269	36.8
888.434	31.29
888.599	36.26
888.764	35.72
888.93	40.55
889.095	7.81
889.26	13.8
889.425	35.11
889.59	43.57
889.756	37.64
889.921	13.62
890.086	9.8
890.251	-5.45
890.416	0.22
890.581	-14.23
890.746	37.4
890.911	47.24
891.076	38.85
891.241	41.09
891.406	38.35
891.571	-7.81
891.736	-25.9
891.901	-4.55
892.065	-12.7
892.23	1.03
892.395	21.5
892.56	-40.33
892.725	-70.98
892.889	-49.59
893.054	-7.8
893.219	34.27
893.384	81.56
893.548	105.95
893.713	125.73
893.878	143.02
