Data from Ofav_PP_Phys_362_Reflection_2.txt Node
Date: Tue Jul 27 19:09:35 EDT 2021
User: USUARIO
Spectrometer: FLMT01687
Trigger mode: 0
Integration Time (sec): 8.500000E-1
Scans to average: 2
Electric dark correction enabled: true
Nonlinearity correction enabled: false
Boxcar width: 2
XAxis mode: Wavelengths
Number of Pixels in Spectrum: 3648
>>>>>Begin Spectral Data<<<<<
179.494	-2202.96
179.716	-672.85
179.937	-462.58
180.158	-357.62
180.38	-373.08
180.601	-206.64
180.823	100.31
181.044	71.32
181.265	64.46
181.486	-9.6
181.708	-10.63
181.929	82.99
182.15	106.96
182.372	90.85
182.593	35.68
182.814	55.45
183.035	93.94
183.257	63.36
183.478	59.44
183.699	55.8
183.92	58.63
184.141	45.67
184.363	66.1
184.584	85.98
184.805	97.75
185.026	84.4
185.247	90.15
185.468	65.22
185.689	28.58
185.91	20.43
186.132	12.6
186.353	18.95
186.574	19.4
186.795	51.21
187.016	57.8
187.237	66.01
187.458	67.76
187.679	80.25
187.9	43.58
188.121	49.72
188.342	65.12
188.563	62.98
188.784	68.48
189.005	82.42
189.226	71.86
189.447	59.22
189.667	79.37
189.888	69.66
190.109	80.55
190.33	91.29
190.551	68.31
190.772	50.84
190.993	40.24
191.214	28.27
191.434	23.66
191.655	46.96
191.876	47.01
192.097	43.81
192.318	57.49
192.538	75.5
192.759	58.1
192.98	38.91
193.201	36.03
193.421	33.66
193.642	16.04
193.863	6.52
194.083	4.71
194.304	-8.27
194.525	-33.6
194.745	-65.04
194.966	-88.08
195.187	-115.11
195.407	-30.49
195.628	1.73
195.848	17.48
196.069	28.33
196.29	61.04
196.51	44.21
196.731	28.17
196.951	33.46
197.172	5.65
197.392	33.11
197.613	12.19
197.833	34.53
198.054	49.21
198.274	57.68
198.495	56.83
198.715	72.37
198.936	24.72
199.156	13.53
199.377	45.45
199.597	20.11
199.817	47.34
200.038	86.52
200.258	95
200.479	27.1
200.699	35.15
200.919	19.95
201.14	19.09
201.36	1.25
201.58	26.08
201.801	4.46
202.021	5.53
202.241	43.11
202.461	41.28
202.682	8.84
202.902	20.84
203.122	37.18
203.342	-6.55
203.563	11.12
203.783	21.69
204.003	27.07
204.223	32.3
204.443	31.46
204.663	20.77
204.884	26.82
205.104	12.73
205.324	18.09
205.544	39.46
205.764	36.51
205.984	30.61
206.204	39.23
206.424	6.65
206.644	11.53
206.864	37.9
207.084	26.01
207.304	38.94
207.525	48.47
207.745	57.68
207.964	52.74
208.184	62.46
208.404	58.82
208.624	49.67
208.844	55.81
209.064	62.66
209.284	63.98
209.504	68.83
209.724	58.64
209.944	6.7
210.164	-31.57
210.384	-36.48
210.604	-60.54
210.823	-7.45
211.043	21.16
211.263	32.74
211.483	38.49
211.703	49.4
211.922	55.15
212.142	74.38
212.362	38.26
212.582	40.59
212.801	40.07
213.021	59.4
213.241	45.07
213.461	70.55
213.68	52.48
213.9	40.62
214.12	29.43
214.339	45.33
214.559	40.7
214.779	24.75
214.998	9.88
215.218	0.94
215.438	12.05
215.657	15.19
215.877	17.66
216.096	36.25
216.316	52.89
216.535	22.73
216.755	33.64
216.974	52.94
217.194	56.29
217.413	56.06
217.633	62.53
217.852	34.68
218.072	21.68
218.291	10.6
218.511	-11.12
218.73	-8.58
218.95	-24.84
219.169	-16.48
219.389	-26.86
219.608	-21.13
219.827	0.52
220.047	22.18
220.266	23.71
220.485	30.39
220.705	46.5
220.924	45.62
221.143	41.14
221.363	22.55
221.582	13.05
221.801	1.54
222.021	8.04
222.24	19.49
222.459	19.75
222.678	22.51
222.897	18.86
223.117	8.16
223.336	-17.65
223.555	-3.74
223.774	-7.74
223.993	-15.55
224.213	-4.08
224.432	24.08
224.651	42.39
224.87	42.74
225.089	51.62
225.308	29.56
225.527	31.15
225.746	25
225.965	26.9
226.184	0.82
226.404	29.47
226.623	8.35
226.842	5.78
227.061	1.22
227.28	17.62
227.499	14.54
227.718	23.47
227.936	31.97
228.155	53.64
228.374	57.62
228.593	63.92
228.812	73.39
229.031	63.28
229.25	63.89
229.469	56.57
229.688	25.22
229.907	-24.11
230.125	12.63
230.344	8.38
230.563	20.92
230.782	37.44
231.001	35.32
231.22	24.43
231.438	3.57
231.657	-7.52
231.876	-16.12
232.095	0.46
232.313	8.52
232.532	19.26
232.751	26.06
232.969	31.81
233.188	43.91
233.407	34.98
233.625	48.67
233.844	51.85
234.063	49.36
234.281	41.93
234.5	26.16
234.719	36.78
234.937	13.31
235.156	5.7
235.374	1.37
235.593	11.94
235.811	0.32
236.03	5.23
236.249	12.49
236.467	24.26
236.686	23.7
236.904	26.85
237.123	34.48
237.341	39.03
237.559	35.93
237.778	45.06
237.996	33.4
238.215	35
238.433	36.82
238.652	26.05
238.87	12.6
239.088	12.14
239.307	19.71
239.525	-5.24
239.743	-8.84
239.962	4.3
240.18	20.03
240.398	19.83
240.617	25.56
240.835	34.44
241.053	27.95
241.271	10.35
241.49	15.27
241.708	27.11
241.926	25.34
242.144	5.98
242.363	13.19
242.581	17.88
242.799	0.99
243.017	-16.66
243.235	-9.95
243.453	-12.94
243.672	-27.8
243.89	-22.33
244.108	7.93
244.326	14.68
244.544	3.5
244.762	5.19
244.98	24.79
245.198	20.65
245.416	36.78
245.634	53.64
245.852	76.58
246.07	67.67
246.288	51.24
246.506	44.49
246.724	45.76
246.942	41.33
247.16	33.94
247.378	34.88
247.596	37.64
247.814	41.74
248.032	31.3
248.25	46.04
248.468	38.87
248.685	35.55
248.903	21.74
249.121	35.76
249.339	18.49
249.557	26.37
249.775	-3.44
249.992	-29.93
250.21	-23.02
250.428	-27.54
250.646	-35.21
250.863	-9.7
251.081	35.37
251.299	39.51
251.517	35.51
251.734	48.46
251.952	37.76
252.17	41.15
252.387	18.38
252.605	33.27
252.823	35.23
253.04	52.15
253.258	53.58
253.475	63.32
253.693	67.18
253.911	74
254.128	56.11
254.346	38.88
254.563	27.31
254.781	10.61
254.998	8.52
255.216	-17.45
255.433	-11.03
255.651	4.1
255.868	4.29
256.086	-13.1
256.303	10.23
256.521	39.91
256.738	24.22
256.956	33.3
257.173	45.32
257.39	42.21
257.608	26.03
257.825	50.68
258.043	48.48
258.26	49.3
258.477	50.4
258.695	46.53
258.912	29.49
259.129	29.04
259.346	34.72
259.564	43.28
259.781	59.87
259.998	60.96
260.216	68.69
260.433	52.63
260.65	54.07
260.867	46.2
261.084	62.14
261.302	32.51
261.519	32.93
261.736	27.55
261.953	25.88
262.17	17.31
262.387	30.61
262.604	41.72
262.822	48.76
263.039	41.48
263.256	54.7
263.473	61.59
263.69	54.95
263.907	29.08
264.124	45.1
264.341	41.48
264.558	38.44
264.775	30.7
264.992	58
265.209	52.84
265.426	40.9
265.643	31.4
265.86	34.74
266.077	18.62
266.294	23.59
266.51	40.2
266.727	46.52
266.944	48.28
267.161	53.67
267.378	45.59
267.595	44.4
267.812	53.14
268.028	61.74
268.245	56.99
268.462	63.17
268.679	35.72
268.896	29.4
269.112	23.6
269.329	29.69
269.546	36.04
269.763	38.09
269.979	39.49
270.196	34.06
270.413	46.07
270.629	42.99
270.846	44.54
271.063	37.24
271.279	38.46
271.496	-2.57
271.712	-6.85
271.929	-14.97
272.146	-59.76
272.362	-44.57
272.579	-20.99
272.795	-7.01
273.012	2.7
273.228	21.13
273.445	30.67
273.661	32.8
273.878	14.07
274.094	9.03
274.311	20.53
274.527	12.56
274.744	10.24
274.96	21.22
275.177	11.44
275.393	-4.04
275.609	6.26
275.826	-0.98
276.042	-5.66
276.259	25.84
276.475	17.85
276.691	16.3
276.908	43.37
277.124	54.89
277.34	53.8
277.557	60.63
277.773	57.83
277.989	37.42
278.205	26.1
278.422	18.86
278.638	24.17
278.854	36.86
279.07	41.19
279.286	54.22
279.503	51.71
279.719	60.13
279.935	54.34
280.151	52.73
280.367	31.11
280.583	39.79
280.799	44.23
281.016	33.93
281.232	23.72
281.448	32.11
281.664	12.6
281.88	-8.33
282.096	2.17
282.312	4.05
282.528	10.44
282.744	16.66
282.96	22.66
283.176	30.48
283.392	47.51
283.608	50.75
283.824	46.22
284.04	20.22
284.256	21.84
284.471	23.19
284.687	20.96
284.903	19.87
285.119	37.11
285.335	36.4
285.551	10
285.767	15.3
285.982	9.78
286.198	13.2
286.414	0.9
286.63	30.17
286.846	18.88
287.061	13.11
287.277	13.44
287.493	15.55
287.709	6.12
287.924	27.38
288.14	56.49
288.356	70.72
288.571	84.97
288.787	80.2
289.003	79.29
289.218	77.06
289.434	55.46
289.65	42.68
289.865	26.98
290.081	12
290.296	-6.46
290.512	-2.99
290.727	8.73
290.943	20.15
291.159	39.83
291.374	55.62
291.59	45.2
291.805	36.62
292.021	39.2
292.236	48.4
292.451	42.08
292.667	49.39
292.882	46.89
293.098	50.29
293.313	54.67
293.529	66.05
293.744	50.7
293.959	49.47
294.175	48.87
294.39	31.89
294.605	24.27
294.821	26.31
295.036	19.93
295.251	12.72
295.467	27.74
295.682	-0.32
295.897	12.23
296.112	36.9
296.328	35.65
296.543	38.37
296.758	45.69
296.973	51.51
297.188	51.97
297.404	45.87
297.619	43.42
297.834	50.09
298.049	32.04
298.264	30.91
298.479	30.02
298.694	21.84
298.909	16.49
299.125	30.1
299.34	25.76
299.555	33.51
299.77	46.32
299.985	40.93
300.2	37.2
300.415	29.62
300.63	12.35
300.845	-3.66
301.06	10.5
301.275	18.87
301.49	15.18
301.704	14.19
301.919	9.26
302.134	9.94
302.349	18.75
302.564	19.8
302.779	18.13
302.994	17.02
303.209	23.13
303.423	-1.73
303.638	-5.04
303.853	7.76
304.068	29.06
304.283	22.78
304.497	23.03
304.712	30.59
304.927	29.17
305.142	21.62
305.356	14.38
305.571	22.83
305.786	26.98
306	27.99
306.215	41.34
306.43	56.53
306.644	62.56
306.859	67.75
307.074	63.69
307.288	57.72
307.503	42.9
307.717	32.14
307.932	15.42
308.147	35.96
308.361	27.09
308.576	28.02
308.79	38.67
309.005	53.05
309.219	23.33
309.434	24.6
309.648	27.32
309.863	19.52
310.077	19.32
310.292	12.24
310.506	3.99
310.72	7.19
310.935	17.78
311.149	-2.05
311.364	15.9
311.578	24.69
311.792	18.49
312.007	18.9
312.221	31.41
312.435	36.54
312.649	34.67
312.864	41.14
313.078	32.7
313.292	39.69
313.507	42.51
313.721	73.26
313.935	54.17
314.149	56.97
314.363	55.78
314.578	45.38
314.792	31.36
315.006	38.18
315.22	40.69
315.434	23.4
315.648	22.28
315.862	15.66
316.077	2.78
316.291	1.96
316.505	15.12
316.719	25.76
316.933	40.84
317.147	26.23
317.361	15.97
317.575	13.1
317.789	13.5
318.003	9.05
318.217	27.86
318.431	31
318.645	26.22
318.859	25.97
319.073	4.5
319.287	4.23
319.5	-8.84
319.714	-4.38
319.928	-1.76
320.142	0.9
320.356	23.32
320.57	44.34
320.784	44.71
320.997	58.36
321.211	68.73
321.425	52.46
321.639	30.57
321.853	20.03
322.066	13.28
322.28	-12.3
322.494	-5.57
322.707	12.62
322.921	25.25
323.135	14.78
323.349	17.65
323.562	19
323.776	14.98
323.989	1.48
324.203	7.93
324.417	21.11
324.63	27
324.844	25.32
325.057	24.22
325.271	22.96
325.485	26.2
325.698	18.22
325.912	22.92
326.125	29.23
326.339	36.73
326.552	33.34
326.766	41.7
326.979	34.41
327.193	32.44
327.406	25.51
327.619	27.96
327.833	19.38
328.046	30.3
328.26	23.46
328.473	22.32
328.686	25.92
328.9	31
329.113	17.26
329.326	28.58
329.54	23.53
329.753	10.06
329.966	7.11
330.179	7.98
330.393	14.3
330.606	0.56
330.819	21
331.032	22.72
331.246	45.86
331.459	48.93
331.672	60.63
331.885	65.12
332.098	66.32
332.311	49.41
332.525	52.26
332.738	35.54
332.951	31.48
333.164	16.66
333.377	10.38
333.59	4.9
333.803	24.67
334.016	26.49
334.229	27.23
334.442	45.78
334.655	53.89
334.868	55.81
335.081	56.38
335.294	72.61
335.507	76.34
335.72	71.59
335.933	52.17
336.146	46.62
336.359	30.6
336.572	20.76
336.785	13.85
336.997	31.36
337.21	32.56
337.423	39.26
337.636	25.5
337.849	19.55
338.062	16.07
338.274	20.87
338.487	30.45
338.7	31.16
338.913	32.84
339.125	26.57
339.338	3.51
339.551	-29.34
339.763	-25.87
339.976	-10.24
340.189	-8.86
340.402	2.54
340.614	5.45
340.827	17.57
341.039	-3.62
341.252	-4.74
341.465	-8.35
341.677	4.83
341.89	-8.62
342.102	19.7
342.315	28.16
342.527	25.38
342.74	31.29
342.952	18.14
343.165	28.96
343.377	22.52
343.59	17.8
343.802	12.01
344.015	16.31
344.227	0.85
344.44	-47.01
344.652	-13.11
344.864	9.58
345.077	21.79
345.289	16.22
345.502	27.75
345.714	16.77
345.926	13
346.139	6
346.351	7.63
346.563	5.93
346.775	8.4
346.988	1.95
347.2	-3.64
347.412	11.69
347.624	37.99
347.837	36.67
348.049	28.58
348.261	28.86
348.473	13.63
348.685	10
348.897	10.8
349.11	12.43
349.322	15.44
349.534	25.98
349.746	35.87
349.958	43.59
350.17	44.52
350.382	27.65
350.594	3.56
350.806	2.13
351.018	-13.14
351.23	-26.08
351.442	-3.74
351.654	37.41
351.866	26.77
352.078	26.41
352.29	26.95
352.502	9.19
352.714	-0.93
352.926	9.57
353.138	25.62
353.35	35.08
353.561	48.7
353.773	43.86
353.985	13.88
354.197	0.14
354.409	-0.18
354.621	-1.1
354.832	12.37
355.044	21.11
355.256	32.3
355.468	34.16
355.679	45.19
355.891	45.41
356.103	56.05
356.314	58.25
356.526	56.83
356.738	56.92
356.949	46.46
357.161	41.47
357.373	31.36
357.584	33.11
357.796	33.27
358.008	27.23
358.219	33.1
358.431	39.67
358.642	31.89
358.854	37.06
359.065	41.97
359.277	44.26
359.488	45.03
359.7	56.89
359.911	47.36
360.123	56.22
360.334	35.33
360.546	25.18
360.757	18.22
360.969	7.86
361.18	4.33
361.391	18.83
361.603	13.77
361.814	8.74
362.025	22.72
362.237	8.42
362.448	10.59
362.659	3.07
362.871	3.15
363.082	-4.39
363.293	-5.22
363.504	-21.18
363.716	-7.26
363.927	-9.67
364.138	-0.83
364.349	12.69
364.56	-0.63
364.772	6.4
364.983	15.67
365.194	11.74
365.405	6.77
365.616	20.77
365.827	23.64
366.038	29.67
366.25	27.62
366.461	42.6
366.672	51.16
366.883	40.38
367.094	36
367.305	35.51
367.516	28.86
367.727	33.86
367.938	46.37
368.149	29.54
368.36	29.97
368.571	25.54
368.781	19.71
368.992	11.95
369.203	15.96
369.414	22.33
369.625	32.44
369.836	37.65
370.047	32.71
370.258	36.55
370.468	37.48
370.679	28.33
370.89	16.14
371.101	21.6
371.312	22.61
371.522	14.3
371.733	15.52
371.944	20.57
372.155	24.37
372.365	15.9
372.576	17.91
372.787	23.88
372.997	32.54
373.208	21.62
373.419	31
373.629	35
373.84	33.87
374.05	26.78
374.261	23.04
374.472	29.17
374.682	24.71
374.893	25.24
375.103	24.3
375.314	38.55
375.524	33.64
375.735	32.81
375.945	28.88
376.156	29.33
376.366	28.24
376.577	22.55
376.787	28.58
376.997	31.67
377.208	36.32
377.418	28.56
377.629	29.29
377.839	33.58
378.049	25.41
378.26	22.84
378.47	30.45
378.68	32.53
378.89	24.65
379.101	27.56
379.311	21.11
379.521	22.18
379.732	22.28
379.942	28.94
380.152	31.72
380.362	43.49
380.572	30.4
380.783	24.05
380.993	16.04
381.203	6.3
381.413	-10.1
381.623	4.93
381.833	0.98
382.043	3.64
382.253	8.64
382.463	22.29
382.674	27.47
382.884	30.14
383.094	27.91
383.304	31.92
383.514	28.93
383.724	12.39
383.934	15.21
384.144	10.31
384.353	9.87
384.563	9.66
384.773	21.98
384.983	14.27
385.193	16.3
385.403	13.35
385.613	9.59
385.823	2.18
386.033	7.68
386.242	11.64
386.452	12.39
386.662	17.69
386.872	22.18
387.082	17.06
387.291	4.97
387.501	5.9
387.711	-1.23
387.921	-5.59
388.13	1.86
388.34	8.26
388.55	7.23
388.759	6.81
388.969	10.95
389.179	10.19
389.388	13.52
389.598	14.51
389.807	14.48
390.017	9.22
390.227	10
390.436	8.39
390.646	7.01
390.855	5.47
391.065	4.94
391.274	2.43
391.484	0.51
391.693	1.1
391.903	3.15
392.112	5.17
392.322	5.95
392.531	6.75
392.74	6.6
392.95	6.6
393.159	6.8
393.369	5.99
393.578	6.03
393.787	5.69
393.997	5.46
394.206	5.65
394.415	5.44
394.625	5.83
394.834	5.34
395.043	5.16
395.252	5.29
395.462	6.13
395.671	5.74
395.88	6.67
396.089	7.6
396.298	7.26
396.508	6.27
396.717	6.24
396.926	5.5
397.135	4.28
397.344	4.26
397.553	4.84
397.762	4.42
397.971	4.41
398.181	4.45
398.39	4.21
398.599	4.39
398.808	4.38
399.017	4.98
399.226	5.41
399.435	5.31
399.644	5.37
399.853	5.67
400.062	5.54
400.27	5.04
400.479	4.9
400.688	4.55
400.897	4.52
401.106	4.47
401.315	4.93
401.524	5.08
401.733	4.9
401.941	4.83
402.15	4.49
402.359	4.32
402.568	4.23
402.777	4.43
402.985	4.3
403.194	4.69
403.403	4.81
403.612	4.89
403.82	4.73
404.029	4.85
404.238	4.63
404.446	4.53
404.655	4.43
404.864	4.51
405.072	4.42
405.281	4.38
405.489	4.34
405.698	4.51
405.906	4.64
406.115	4.64
406.324	4.54
406.532	4.34
406.741	4.27
406.949	4.23
407.158	4.22
407.366	4.22
407.574	4.49
407.783	4.35
407.991	4.16
408.2	4.11
408.408	4.14
408.617	4.16
408.825	4.17
409.033	4.19
409.242	4.23
409.45	4.21
409.658	4.05
409.867	4.13
410.075	4.12
410.283	4.04
410.491	3.87
410.7	3.83
410.908	3.73
411.116	3.72
411.324	3.72
411.533	3.75
411.741	3.51
411.949	3.43
412.157	3.33
412.365	3.64
412.573	3.72
412.781	3.82
412.99	3.89
413.198	4.17
413.406	3.85
413.614	3.93
413.822	4
414.03	3.97
414.238	3.76
414.446	3.9
414.654	3.79
414.862	3.84
415.07	3.75
415.278	3.89
415.486	3.67
415.694	3.63
415.902	3.53
416.109	3.58
416.317	3.62
416.525	3.55
416.733	3.67
416.941	3.8
417.149	3.69
417.357	3.54
417.564	3.52
417.772	3.32
417.98	3.31
418.188	3.6
418.395	3.6
418.603	3.72
418.811	4.02
419.019	4
419.226	4.02
419.434	4.19
419.642	4.37
419.849	4.16
420.057	4.1
420.265	4.02
420.472	3.78
420.68	3.57
420.887	3.71
421.095	3.61
421.302	3.59
421.51	3.56
421.717	3.64
421.925	3.57
422.132	3.71
422.34	3.58
422.547	3.61
422.755	3.59
422.962	3.51
423.17	3.57
423.377	3.6
423.585	3.69
423.792	3.76
423.999	3.78
424.207	3.66
424.414	3.5
424.621	3.45
424.829	3.26
425.036	3.3
425.243	3.28
425.451	3.3
425.658	3.31
425.865	3.53
426.072	3.42
426.28	3.49
426.487	3.8
426.694	3.7
426.901	3.55
427.108	3.68
427.315	3.68
427.523	3.37
427.73	3.32
427.937	3.28
428.144	3.23
428.351	3.18
428.558	3.28
428.765	3.25
428.972	3.26
429.179	3.19
429.386	3.18
429.593	3.07
429.8	3.24
430.007	3.24
430.214	3.17
430.421	3.27
430.628	3.27
430.835	3.26
431.042	3.19
431.249	3.42
431.456	3.32
431.662	3.52
431.869	3.62
432.076	3.8
432.283	3.78
432.49	3.71
432.697	3.67
432.903	3.64
433.11	3.67
433.317	3.59
433.524	3.65
433.73	3.59
433.937	3.61
434.144	3.62
434.35	3.59
434.557	3.49
434.764	3.44
434.97	3.29
435.177	3.32
435.384	3.29
435.59	3.44
435.797	3.4
436.003	3.5
436.21	3.2
436.416	3.14
436.623	3.11
436.829	3.07
437.036	3.03
437.242	3.18
437.449	3.31
437.655	3.41
437.862	3.52
438.068	3.42
438.275	3.38
438.481	3.27
438.687	3.19
438.894	3.23
439.1	3.33
439.307	3.33
439.513	3.46
439.719	3.54
439.926	3.46
440.132	3.54
440.338	3.43
440.544	3.36
440.751	3.22
440.957	3.23
441.163	3.06
441.369	3.25
441.575	3.19
441.782	3.33
441.988	3.33
442.194	3.43
442.4	3.42
442.606	3.49
442.812	3.37
443.018	3.31
443.224	3.24
443.431	3.04
443.637	3.04
443.843	2.99
444.049	3.05
444.255	3.04
444.461	3.09
444.667	3.01
444.873	3.05
445.079	3.08
445.284	3.13
445.49	3.23
445.696	3.27
445.902	3.2
446.108	3.26
446.314	3.28
446.52	3.25
446.726	3.32
446.931	3.38
447.137	3.28
447.343	3.13
447.549	3.03
447.755	2.98
447.96	2.96
448.166	3.04
448.372	3.15
448.578	3.16
448.783	3.15
448.989	3.18
449.195	3.12
449.4	3.13
449.606	3.16
449.812	3.23
450.017	3.26
450.223	3.19
450.428	3.11
450.634	3.14
450.84	3.03
451.045	3.02
451.251	2.99
451.456	3.16
451.662	3.1
451.867	3.26
452.073	3.18
452.278	3.3
452.483	3.2
452.689	3.24
452.894	3.14
453.1	3.2
453.305	3.19
453.51	3.17
453.716	3.14
453.921	3.16
454.127	3.15
454.332	3.06
454.537	3.06
454.742	2.96
454.948	2.9
455.153	2.97
455.358	3.02
455.563	3.05
455.769	3.09
455.974	3.15
456.179	3.04
456.384	2.88
456.589	2.99
456.795	2.98
457	2.98
457.205	2.97
457.41	3.12
457.615	2.91
457.82	2.92
458.025	2.9
458.23	2.93
458.435	2.91
458.64	2.82
458.845	2.88
459.05	2.87
459.255	2.94
459.46	2.99
459.665	3.12
459.87	3.14
460.075	3.16
460.28	3.1
460.485	3.1
460.69	3.18
460.895	3.19
461.099	3.22
461.304	3.18
461.509	3.16
461.714	3.18
461.919	3.22
462.123	3.16
462.328	3.22
462.533	3.24
462.738	3.17
462.942	3.11
463.147	3.16
463.352	3.14
463.556	3.1
463.761	3.02
463.966	2.99
464.17	2.98
464.375	3.01
464.58	2.99
464.784	3.07
464.989	3.11
465.193	3.12
465.398	3.09
465.602	3.21
465.807	3.19
466.011	3.12
466.216	3.02
466.42	3.12
466.625	2.99
466.829	3.04
467.034	3.19
467.238	3.24
467.443	3.2
467.647	3.22
467.851	3.27
468.056	3.26
468.26	3.26
468.464	3.28
468.669	3.3
468.873	3.22
469.077	3.15
469.282	3.13
469.486	3.04
469.69	2.98
469.894	3.01
470.099	2.95
470.303	2.94
470.507	3
470.711	3.13
470.915	3.15
471.119	3.24
471.324	3.31
471.528	3.24
471.732	3.26
471.936	3.22
472.14	3.24
472.344	3.25
472.548	3.27
472.752	3.16
472.956	3.12
473.16	3.17
473.364	3.1
473.568	3.12
473.772	3.18
473.976	3.15
474.18	3.1
474.384	3.1
474.588	3.11
474.792	3.05
474.995	3.07
475.199	3.01
475.403	3.06
475.607	3.05
475.811	3.08
476.015	3.1
476.218	3.13
476.422	3.15
476.626	3.12
476.83	3.12
477.033	3.18
477.237	3.21
477.441	3.24
477.644	3.16
477.848	3.13
478.052	3.01
478.255	2.97
478.459	2.93
478.663	3.02
478.866	3.01
479.07	3.1
479.273	3.14
479.477	3.12
479.681	3.22
479.884	3.2
480.088	3.13
480.291	3.13
480.495	3.12
480.698	3.06
480.901	3.11
481.105	3.2
481.308	3.13
481.512	3.15
481.715	3.08
481.919	3.1
482.122	3.04
482.325	3.1
482.529	3.09
482.732	3.13
482.935	3.03
483.138	3.07
483.342	3
483.545	3.05
483.748	3.06
483.952	3.14
484.155	3.13
484.358	3.26
484.561	3.19
484.764	3.17
484.967	3.25
485.171	3.21
485.374	3.08
485.577	3.15
485.78	3.23
485.983	3.13
486.186	3.13
486.389	3.11
486.592	3.04
486.795	2.97
486.998	2.98
487.201	3
487.404	3.1
487.607	3.17
487.81	3.11
488.013	3.11
488.216	3.2
488.419	3.1
488.622	2.98
488.825	3.04
489.028	3.07
489.231	2.97
489.433	3.03
489.636	3.08
489.839	3.08
490.042	3.03
490.245	3.06
490.447	3.04
490.65	3.09
490.853	3.08
491.056	3.16
491.258	3.1
491.461	3.13
491.664	3
491.866	3.08
492.069	2.98
492.272	3.05
492.474	3.11
492.677	3.23
492.879	3.17
493.082	3.16
493.285	3.17
493.487	3.14
493.69	3.05
493.892	3.05
494.095	3.19
494.297	3.18
494.5	3.24
494.702	3.28
494.905	3.25
495.107	3.15
495.309	3.14
495.512	3.05
495.714	3.09
495.917	3.17
496.119	3.15
496.321	3.14
496.524	3.16
496.726	3.18
496.928	3.15
497.13	3.22
497.333	3.28
497.535	3.29
497.737	3.3
497.939	3.37
498.142	3.32
498.344	3.32
498.546	3.34
498.748	3.37
498.95	3.35
499.152	3.4
499.355	3.37
499.557	3.32
499.759	3.35
499.961	3.4
500.163	3.38
500.365	3.43
500.567	3.41
500.769	3.38
500.971	3.31
501.173	3.32
501.375	3.33
501.577	3.42
501.779	3.42
501.981	3.51
502.183	3.56
502.385	3.51
502.587	3.44
502.788	3.5
502.99	3.45
503.192	3.38
503.394	3.39
503.596	3.49
503.798	3.54
503.999	3.59
504.201	3.6
504.403	3.63
504.605	3.65
504.806	3.58
505.008	3.58
505.21	3.52
505.411	3.45
505.613	3.36
505.815	3.39
506.016	3.4
506.218	3.52
506.42	3.57
506.621	3.6
506.823	3.56
507.024	3.54
507.226	3.55
507.427	3.46
507.629	3.4
507.83	3.4
508.032	3.3
508.233	3.29
508.435	3.41
508.636	3.54
508.838	3.52
509.039	3.55
509.24	3.49
509.442	3.46
509.643	3.36
509.845	3.34
510.046	3.37
510.247	3.37
510.448	3.4
510.65	3.44
510.851	3.48
511.052	3.52
511.254	3.64
511.455	3.61
511.656	3.59
511.857	3.58
512.058	3.54
512.26	3.48
512.461	3.49
512.662	3.53
512.863	3.45
513.064	3.45
513.265	3.43
513.466	3.44
513.667	3.43
513.868	3.48
514.069	3.57
514.27	3.57
514.471	3.57
514.672	3.58
514.873	3.69
515.074	3.69
515.275	3.76
515.476	3.75
515.677	3.68
515.878	3.61
516.079	3.56
516.28	3.48
516.481	3.48
516.682	3.53
516.882	3.47
517.083	3.49
517.284	3.52
517.485	3.5
517.686	3.51
517.886	3.56
518.087	3.56
518.288	3.56
518.488	3.56
518.689	3.63
518.89	3.63
519.091	3.64
519.291	3.58
519.492	3.63
519.692	3.6
519.893	3.69
520.094	3.58
520.294	3.67
520.495	3.66
520.695	3.65
520.896	3.55
521.096	3.57
521.297	3.58
521.497	3.57
521.698	3.54
521.898	3.57
522.099	3.66
522.299	3.67
522.499	3.66
522.7	3.67
522.9	3.73
523.101	3.67
523.301	3.64
523.501	3.66
523.702	3.77
523.902	3.73
524.102	3.83
524.302	3.86
524.503	3.87
524.703	3.85
524.903	3.87
525.103	3.8
525.304	3.77
525.504	3.74
525.704	3.69
525.904	3.66
526.104	3.68
526.304	3.74
526.504	3.78
526.705	3.78
526.905	3.82
527.105	3.81
527.305	3.74
527.505	3.74
527.705	3.76
527.905	3.72
528.105	3.72
528.305	3.8
528.505	3.81
528.705	3.81
528.905	3.81
529.105	3.85
529.304	3.87
529.504	3.9
529.704	3.91
529.904	3.95
530.104	3.98
530.304	3.93
530.503	3.97
530.703	3.93
530.903	3.95
531.103	3.92
531.303	3.97
531.502	3.95
531.702	4.01
531.902	3.97
532.101	3.95
532.301	3.98
532.501	3.9
532.7	3.94
532.9	3.95
533.1	4.02
533.299	4.01
533.499	4.12
533.698	4.11
533.898	4.11
534.097	4.1
534.297	4.1
534.496	4.03
534.696	4.06
534.895	4.12
535.095	4.13
535.294	4.14
535.494	4.13
535.693	4.13
535.892	4.15
536.092	4.19
536.291	4.18
536.491	4.25
536.69	4.25
536.889	4.27
537.088	4.19
537.288	4.19
537.487	4.2
537.686	4.22
537.886	4.25
538.085	4.29
538.284	4.3
538.483	4.33
538.682	4.37
538.882	4.37
539.081	4.37
539.28	4.46
539.479	4.45
539.678	4.46
539.877	4.47
540.076	4.52
540.275	4.48
540.474	4.51
540.673	4.49
540.872	4.52
541.071	4.56
541.27	4.57
541.469	4.56
541.668	4.58
541.867	4.56
542.066	4.5
542.265	4.58
542.464	4.59
542.663	4.71
542.862	4.78
543.06	4.84
543.259	4.86
543.458	4.88
543.657	4.87
543.856	4.93
544.054	4.98
544.253	4.95
544.452	4.98
544.651	4.95
544.849	4.9
545.048	4.93
545.247	5.01
545.445	5.01
545.644	5.02
545.843	5.08
546.041	5.06
546.24	5.05
546.438	5.15
546.637	5.18
546.836	5.19
547.034	5.24
547.233	5.31
547.431	5.28
547.63	5.34
547.828	5.4
548.027	5.46
548.225	5.42
548.423	5.5
548.622	5.51
548.82	5.52
549.019	5.55
549.217	5.59
549.415	5.62
549.614	5.64
549.812	5.68
550.01	5.65
550.209	5.73
550.407	5.79
550.605	5.86
550.803	5.91
551.002	5.97
551.2	6.01
551.398	6.02
551.596	6.05
551.794	6.09
551.993	6.17
552.191	6.18
552.389	6.21
552.587	6.26
552.785	6.28
552.983	6.28
553.181	6.36
553.379	6.42
553.577	6.46
553.775	6.56
553.973	6.61
554.171	6.61
554.369	6.67
554.567	6.75
554.765	6.79
554.963	6.89
555.161	6.95
555.359	7
555.557	7.07
555.755	7.16
555.952	7.2
556.15	7.25
556.348	7.26
556.546	7.29
556.744	7.29
556.941	7.37
557.139	7.5
557.337	7.63
557.535	7.73
557.732	7.8
557.93	7.85
558.128	7.83
558.325	7.87
558.523	7.88
558.721	7.9
558.918	7.91
559.116	8.01
559.313	8.04
559.511	8.18
559.708	8.27
559.906	8.47
560.104	8.53
560.301	8.6
560.498	8.62
560.696	8.68
560.893	8.68
561.091	8.73
561.288	8.86
561.486	8.87
561.683	8.91
561.88	8.96
562.078	9.06
562.275	9.04
562.473	9.18
562.67	9.26
562.867	9.33
563.064	9.35
563.262	9.47
563.459	9.56
563.656	9.7
563.853	9.79
564.051	9.87
564.248	9.92
564.445	9.98
564.642	9.92
564.839	10.01
565.036	10.15
565.234	10.22
565.431	10.31
565.628	10.44
565.825	10.42
566.022	10.53
566.219	10.6
566.416	10.56
566.613	10.67
566.81	10.83
567.007	10.8
567.204	10.82
567.401	10.93
567.598	11
567.795	11.05
567.991	11.15
568.188	11.26
568.385	11.23
568.582	11.3
568.779	11.32
568.976	11.42
569.172	11.55
569.369	11.65
569.566	11.67
569.763	11.68
569.96	11.76
570.156	11.71
570.353	11.78
570.55	11.79
570.746	11.87
570.943	11.86
571.14	11.86
571.336	11.91
571.533	11.95
571.729	11.97
571.926	11.94
572.123	12.07
572.319	12.19
572.516	12.26
572.712	12.28
572.909	12.46
573.105	12.51
573.302	12.48
573.498	12.5
573.695	12.48
573.891	12.35
574.087	12.29
574.284	12.35
574.48	12.37
574.677	12.44
574.873	12.56
575.069	12.67
575.266	12.7
575.462	12.72
575.658	12.8
575.854	12.87
576.051	12.93
576.247	12.89
576.443	12.92
576.639	13.02
576.835	12.9
577.032	12.73
577.228	12.75
577.424	12.72
577.62	12.63
577.816	12.62
578.012	12.77
578.208	12.73
578.404	12.75
578.6	12.82
578.796	12.87
578.993	12.93
579.189	12.99
579.384	13
579.58	13.01
579.776	12.98
579.972	12.92
580.168	12.9
580.364	12.85
580.56	12.89
580.756	12.92
580.952	12.93
581.148	12.92
581.343	12.96
581.539	12.92
581.735	12.91
581.931	12.87
582.127	12.89
582.322	12.88
582.518	12.85
582.714	12.86
582.909	12.84
583.105	12.84
583.301	12.8
583.496	12.8
583.692	12.78
583.888	12.79
584.083	12.72
584.279	12.78
584.474	12.73
584.67	12.64
584.866	12.59
585.061	12.59
585.257	12.46
585.452	12.44
585.648	12.44
585.843	12.45
586.039	12.48
586.234	12.56
586.429	12.58
586.625	12.69
586.82	12.77
587.015	12.78
587.211	12.73
587.406	12.78
587.601	12.73
587.797	12.65
587.992	12.6
588.187	12.61
588.383	12.6
588.578	12.57
588.773	12.51
588.968	12.64
589.163	12.65
589.359	12.65
589.554	12.66
589.749	12.75
589.944	12.67
590.139	12.7
590.334	12.71
590.529	12.83
590.724	12.91
590.919	12.97
591.114	12.99
591.309	12.98
591.504	12.9
591.699	12.88
591.894	12.78
592.089	12.78
592.284	12.86
592.479	12.89
592.674	12.87
592.869	12.96
593.064	13.05
593.259	13.1
593.454	13.11
593.648	13.13
593.843	13.15
594.038	13.24
594.233	13.23
594.428	13.35
594.622	13.46
594.817	13.56
595.012	13.52
595.206	13.57
595.401	13.62
595.596	13.65
595.79	13.64
595.985	13.71
596.18	13.76
596.374	13.73
596.569	13.69
596.763	13.81
596.958	13.84
597.153	13.81
597.347	13.9
597.542	14.07
597.736	14.12
597.931	14.14
598.125	14.28
598.319	14.21
598.514	14.21
598.708	14.24
598.903	14.31
599.097	14.31
599.291	14.39
599.486	14.43
599.68	14.33
599.874	14.3
600.069	14.38
600.263	14.45
600.457	14.44
600.651	14.57
600.846	14.61
601.04	14.55
601.234	14.54
601.428	14.59
601.622	14.62
601.817	14.59
602.011	14.63
602.205	14.68
602.399	14.71
602.593	14.72
602.787	14.72
602.981	14.74
603.175	14.82
603.369	14.66
603.563	14.63
603.757	14.61
603.951	14.58
604.145	14.38
604.339	14.38
604.533	14.29
604.727	14.25
604.921	14.21
605.115	14.27
605.309	14.3
605.502	14.42
605.696	14.44
605.89	14.33
606.084	14.31
606.278	14.26
606.471	14.06
606.665	13.89
606.859	13.87
607.053	13.75
607.246	13.7
607.44	13.61
607.634	13.68
607.827	13.6
608.021	13.51
608.214	13.38
608.408	13.38
608.602	13.3
608.795	13.28
608.989	13.31
609.182	13.29
609.376	13.3
609.569	13.21
609.763	13.09
609.956	12.98
610.15	12.98
610.343	12.83
610.537	12.8
610.73	12.73
610.923	12.81
611.117	12.71
611.31	12.66
611.504	12.62
611.697	12.67
611.89	12.52
612.083	12.38
612.277	12.34
612.47	12.25
612.663	12.1
612.856	11.93
613.05	11.87
613.243	11.75
613.436	11.64
613.629	11.62
613.822	11.67
614.015	11.69
614.209	11.66
614.402	11.65
614.595	11.6
614.788	11.41
614.981	11.38
615.174	11.35
615.367	11.28
615.56	11.11
615.753	11.13
615.946	11.02
616.139	10.95
616.332	10.92
616.525	10.88
616.718	10.79
616.911	10.82
617.103	10.77
617.296	10.68
617.489	10.7
617.682	10.78
617.875	10.71
618.067	10.62
618.26	10.59
618.453	10.49
618.646	10.4
618.838	10.34
619.031	10.35
619.224	10.35
619.417	10.4
619.609	10.36
619.802	10.34
619.994	10.22
620.187	10.17
620.38	10.08
620.572	10.04
620.765	9.97
620.957	10.01
621.15	9.97
621.342	9.97
621.535	9.92
621.727	9.91
621.92	9.89
622.112	9.89
622.305	9.85
622.497	9.81
622.69	9.72
622.882	9.73
623.074	9.68
623.267	9.65
623.459	9.64
623.651	9.58
623.844	9.56
624.036	9.53
624.228	9.65
624.42	9.59
624.613	9.67
624.805	9.59
624.997	9.51
625.189	9.32
625.381	9.38
625.574	9.32
625.766	9.38
625.958	9.38
626.15	9.45
626.342	9.35
626.534	9.38
626.726	9.34
626.918	9.3
627.11	9.27
627.302	9.31
627.494	9.24
627.686	9.22
627.878	9.22
628.07	9.11
628.262	9.05
628.454	9.01
628.646	8.87
628.838	8.89
629.029	8.92
629.221	8.9
629.413	8.89
629.605	8.95
629.797	8.89
629.989	8.95
630.18	8.96
630.372	8.94
630.564	8.89
630.755	8.89
630.947	8.79
631.139	8.72
631.33	8.71
631.522	8.7
631.714	8.61
631.905	8.63
632.097	8.58
632.289	8.51
632.48	8.45
632.672	8.4
632.863	8.36
633.055	8.39
633.246	8.49
633.438	8.57
633.629	8.57
633.821	8.52
634.012	8.54
634.203	8.53
634.395	8.47
634.586	8.55
634.777	8.54
634.969	8.52
635.16	8.48
635.351	8.43
635.543	8.41
635.734	8.48
635.925	8.5
636.117	8.49
636.308	8.55
636.499	8.49
636.69	8.38
636.881	8.39
637.073	8.44
637.264	8.42
637.455	8.4
637.646	8.47
637.837	8.36
638.028	8.2
638.219	8.14
638.41	8.18
638.601	8.1
638.792	8.13
638.983	8.19
639.174	8.2
639.365	8.17
639.556	8.2
639.747	8.21
639.938	8.31
640.129	8.31
640.32	8.37
640.511	8.33
640.701	8.35
640.892	8.24
641.083	8.23
641.274	8.19
641.465	8.22
641.655	8.22
641.846	8.21
642.037	8.15
642.228	8.18
642.418	8.18
642.609	8.14
642.8	8.14
642.99	8.19
643.181	8.16
643.372	8.2
643.562	8.16
643.753	8.16
643.943	8.2
644.134	8.12
644.324	8.12
644.515	8.18
644.705	8.12
644.896	8.06
645.086	8.14
645.277	8.12
645.467	8.06
645.658	8.04
645.848	8.09
646.038	8.03
646.229	8.09
646.419	8.1
646.61	8.12
646.8	8.03
646.99	8.02
647.18	7.91
647.371	7.89
647.561	7.9
647.751	7.88
647.941	7.89
648.132	7.93
648.322	7.87
648.512	7.92
648.702	7.99
648.892	7.93
649.082	7.93
649.272	7.94
649.462	7.91
649.653	7.87
649.843	7.86
650.033	7.85
650.223	7.75
650.413	7.68
650.603	7.7
650.793	7.66
650.983	7.61
651.172	7.71
651.362	7.72
651.552	7.58
651.742	7.62
651.932	7.61
652.122	7.5
652.312	7.45
652.502	7.42
652.691	7.4
652.881	7.37
653.071	7.43
653.261	7.38
653.45	7.42
653.64	7.43
653.83	7.36
654.019	7.18
654.209	7.11
654.399	6.99
654.588	6.73
654.778	6.6
654.968	6.51
655.157	6.47
655.347	6.4
655.536	6.46
655.726	6.42
655.915	6.5
656.105	6.42
656.294	6.38
656.484	6.27
656.673	6.15
656.863	6.08
657.052	6.04
657.241	5.84
657.431	5.79
657.62	5.71
657.809	5.49
657.999	5.41
658.188	5.46
658.377	5.44
658.567	5.44
658.756	5.43
658.945	5.36
659.134	5.31
659.324	5.27
659.513	5.13
659.702	5.02
659.891	4.91
660.08	4.8
660.269	4.54
660.458	4.48
660.648	4.57
660.837	4.57
661.026	4.59
661.215	4.64
661.404	4.58
661.593	4.43
661.782	4.33
661.971	4.18
662.16	4.14
662.349	4.12
662.538	4.07
662.726	4.18
662.915	4.29
663.104	4.28
663.293	4.29
663.482	4.29
663.671	4.14
663.86	4.04
664.048	4.05
664.237	4.09
664.426	4.02
664.615	3.97
664.803	3.88
664.992	3.9
665.181	3.88
665.369	3.95
665.558	4.05
665.747	4.16
665.935	4.19
666.124	4.28
666.312	4.27
666.501	4.26
666.69	4.23
666.878	4.18
667.067	4.06
667.255	4.15
667.444	4.27
667.632	4.37
667.82	4.44
668.009	4.53
668.197	4.58
668.386	4.56
668.574	4.6
668.762	4.54
668.951	4.65
669.139	4.65
669.327	4.65
669.516	4.76
669.704	4.85
669.892	4.87
670.08	4.95
670.269	4.96
670.457	4.89
670.645	4.91
670.833	4.92
671.021	4.93
671.21	4.92
671.398	4.89
671.586	4.91
671.774	5.03
671.962	5.1
672.15	5.28
672.338	5.55
672.526	5.83
672.714	5.8
672.902	5.83
673.09	5.97
673.278	5.92
673.466	6.04
673.654	6.25
673.842	6.41
674.03	6.54
674.218	6.68
674.405	6.61
674.593	6.64
674.781	6.71
674.969	6.62
675.157	6.56
675.344	6.6
675.532	6.61
675.72	6.7
675.908	6.86
676.095	6.96
676.283	7.05
676.471	7.13
676.658	7.18
676.846	7.26
677.033	7.49
677.221	7.68
677.409	7.74
677.596	7.83
677.784	8.01
677.971	8
678.159	7.98
678.346	7.98
678.534	8.09
678.721	8.08
678.909	8.17
679.096	8.28
679.283	8.46
679.471	8.38
679.658	8.37
679.846	8.41
680.033	8.39
680.22	8.41
680.408	8.49
680.595	8.66
680.782	8.64
680.969	8.69
681.157	8.78
681.344	8.81
681.531	8.77
681.718	8.95
681.905	9.14
682.093	9.17
682.28	9.3
682.467	9.61
682.654	9.58
682.841	9.47
683.028	9.49
683.215	9.59
683.402	9.29
683.589	9.38
683.776	9.64
683.963	9.69
684.15	9.71
684.337	9.87
684.524	10.11
684.711	10.25
684.898	10.35
685.085	10.51
685.271	10.81
685.458	10.78
685.645	10.78
685.832	11.05
686.019	11.3
686.205	11.44
686.392	11.59
686.579	11.73
686.766	11.89
686.952	11.96
687.139	11.92
687.326	12.03
687.512	12.05
687.699	12.09
687.886	12.19
688.072	12.34
688.259	12.54
688.445	12.82
688.632	13.1
688.818	13.14
689.005	13.34
689.191	13.54
689.378	13.82
689.564	14.04
689.751	14.23
689.937	14.61
690.124	14.84
690.31	15.11
690.496	15.29
690.683	15.81
690.869	15.87
691.055	16.05
691.242	16.22
691.428	16.56
691.614	16.74
691.8	17.17
691.987	17.72
692.173	17.94
692.359	18.35
692.545	18.66
692.731	19.02
692.918	19.01
693.104	19.33
693.29	19.56
693.476	19.81
693.662	20.14
693.848	20.72
694.034	21.23
694.22	21.48
694.406	21.87
694.592	22
694.778	22.37
694.964	22.65
695.15	23.02
695.336	23.12
695.522	23.71
695.708	23.96
695.894	24.28
696.08	24.6
696.265	25.18
696.451	25.62
696.637	26.1
696.823	26.18
697.009	26.51
697.194	26.88
697.38	27.06
697.566	27.44
697.751	28.03
697.937	28.32
698.123	28.72
698.308	28.88
698.494	29.08
698.68	29.33
698.865	29.77
699.051	30.08
699.236	30.32
699.422	30.56
699.607	31.05
699.793	31.4
699.978	31.53
700.164	31.87
700.349	32.16
700.535	32.2
700.72	32.31
700.906	32.7
701.091	32.99
701.276	33.05
701.462	33.65
701.647	34.42
701.832	34.86
702.018	35.35
702.203	35.74
702.388	35.87
702.573	35.62
702.759	35.68
702.944	35.83
703.129	36.13
703.314	36.29
703.499	36.69
703.684	37.22
703.87	37.48
704.055	37.84
704.24	38.02
704.425	38.25
704.61	38.36
704.795	38.63
704.98	38.93
705.165	39.21
705.35	39.56
705.535	39.64
705.72	40.09
705.905	40.44
706.09	40.69
706.275	41.01
706.459	41.51
706.644	41.56
706.829	41.58
707.014	42.12
707.199	41.96
707.384	41.7
707.568	41.85
707.753	42.11
707.938	41.99
708.123	42.71
708.307	43.26
708.492	44
708.677	44.2
708.861	44.93
709.046	44.88
709.231	45.11
709.415	44.76
709.6	44.79
709.784	44.71
709.969	45.08
710.153	45.27
710.338	45.55
710.522	46.2
710.707	46.33
710.891	46.53
711.076	47.14
711.26	47.55
711.445	47.84
711.629	48.32
711.813	48.69
711.998	48.88
712.182	49.25
712.366	49.64
712.551	49.6
712.735	49.89
712.919	50.21
713.103	50.08
713.288	49.8
713.472	50.38
713.656	50.8
713.84	50.88
714.024	51.54
714.208	52.22
714.393	52.47
714.577	52.96
714.761	53.41
714.945	54.1
715.129	54.55
715.313	54.88
715.497	54.99
715.681	55.27
715.865	55.61
716.049	55.94
716.233	56.59
716.417	57.32
716.601	57.61
716.785	57.84
716.968	58.37
717.152	58.81
717.336	59.21
717.52	59.59
717.704	60.06
717.888	60.89
718.071	61.44
718.255	61.52
718.439	62.24
718.622	61.9
718.806	61.56
718.99	61.91
719.174	62.05
719.357	62.44
719.541	63.46
719.724	63.76
719.908	63.9
720.092	64.78
720.275	64.98
720.459	65.37
720.642	66.31
720.826	66.73
721.009	66.81
721.193	67.31
721.376	67.8
721.559	68.07
721.743	68.6
721.926	69.04
722.11	69.43
722.293	69.49
722.476	69.8
722.66	69.94
722.843	70.35
723.026	70.55
723.21	71.23
723.393	71.22
723.576	71.85
723.759	71.73
723.942	72.48
724.126	72.58
724.309	73.27
724.492	73.48
724.675	73.85
724.858	73.5
725.041	73.78
725.224	74.58
725.407	74.78
725.59	75.71
725.774	76.32
725.957	77.27
726.14	77.14
726.322	77.47
726.505	77.42
726.688	78.1
726.871	78
727.054	78.92
727.237	79.34
727.42	80.06
727.603	80.08
727.786	80.54
727.968	80.5
728.151	80.42
728.334	80.58
728.517	81.01
728.699	81.71
728.882	81.76
729.065	82.51
729.248	82.68
729.43	83.31
729.613	83.56
729.796	83.58
729.978	84.33
730.161	84.83
730.343	84.81
730.526	85.71
730.708	86.43
730.891	86.69
731.073	86.74
731.256	87.38
731.438	86.42
731.621	87.05
731.803	86.76
731.986	88.07
732.168	88.08
732.35	88.64
732.533	87.73
732.715	87.9
732.898	87.54
733.08	87.87
733.262	88.4
733.444	88.65
733.627	89.36
733.809	88.62
733.991	88.79
734.173	88.82
734.355	90.21
734.538	89.82
734.72	91.34
734.902	92.28
735.084	92.52
735.266	92.25
735.448	92.56
735.63	92.81
735.812	92.28
735.994	91.62
736.176	91.76
736.358	92.92
736.54	92.43
736.722	93.14
736.904	94.49
737.086	94.43
737.268	93.86
737.45	94.29
737.632	93.92
737.814	93.38
737.995	94.95
738.177	94.85
738.359	95.21
738.541	95.81
738.723	96.66
738.904	96.42
739.086	96.76
739.268	96.67
739.449	96.29
739.631	95.19
739.813	94.46
739.994	95.61
740.176	95.83
740.358	95.47
740.539	96.76
740.721	96.76
740.902	95.34
741.084	94.65
741.265	94.93
741.447	94.47
741.628	94.68
741.81	95.29
741.991	95.68
742.172	96.64
742.354	97.47
742.535	98.19
742.717	99.11
742.898	99.42
743.079	99.02
743.261	97.82
743.442	97.51
743.623	96.31
743.804	96.48
743.986	97.1
744.167	98.57
744.348	97.92
744.529	98.77
744.71	98.93
744.891	98.78
745.073	98.08
745.254	99.22
745.435	98.65
745.616	97.95
745.797	97.04
745.978	97.19
746.159	98.05
746.34	98.45
746.521	98.87
746.702	99.43
746.883	98.62
747.064	96.23
747.245	96.97
747.426	96.09
747.606	95.53
747.787	96.79
747.968	98.45
748.149	98.56
748.33	99.33
748.51	100.69
748.691	99.71
748.872	99.87
749.053	99.05
749.233	98.84
749.414	98.12
749.595	98.94
749.775	99.09
749.956	99.23
750.137	98.84
750.317	97.75
750.498	98.04
750.678	97.73
750.859	98.45
751.04	99.89
751.22	101.21
751.4	100.65
751.581	100.05
751.761	99.6
751.942	98.81
752.122	99.23
752.303	98.12
752.483	98.79
752.663	99.92
752.844	99.29
753.024	98.15
753.204	99.46
753.385	98.19
753.565	98.45
753.745	100.27
753.925	100.75
754.106	101.86
754.286	103.29
754.466	101.84
754.646	100.76
754.826	100.41
755.006	100.67
755.187	101.68
755.367	101.37
755.547	101.44
755.727	101.13
755.907	98.41
756.087	96.88
756.267	97.41
756.447	97.88
756.627	97.81
756.807	97.26
756.987	96.48
757.167	96.65
757.346	96.44
757.526	96.6
757.706	97.57
757.886	97.36
758.066	96.65
758.246	97.23
758.425	98.38
758.605	99.3
758.785	100.94
758.965	102.54
759.144	103.81
759.324	103.03
759.504	103.64
759.683	102.49
759.863	100.89
760.043	100.06
760.222	100.26
760.402	100.03
760.581	100.48
760.761	98.94
760.94	97.57
761.12	96.8
761.299	95.82
761.479	96.29
761.658	97.12
761.838	97.91
762.017	97.97
762.197	97.87
762.376	97.14
762.555	97.52
762.735	98.56
762.914	96.66
763.093	97.32
763.273	98.05
763.452	98.47
763.631	95.35
763.81	97.42
763.99	98.16
764.169	99.08
764.348	98.69
764.527	100.09
764.706	99.52
764.885	97.66
765.064	95.59
765.243	96.45
765.423	96.07
765.602	95.13
765.781	97.27
765.96	99.38
766.139	99.47
766.318	100.53
766.497	104.07
766.676	103.25
766.854	102.08
767.033	100.73
767.212	100.32
767.391	98.2
767.57	98.73
767.749	95.83
767.928	97.01
768.106	96.5
768.285	97.42
768.464	96.77
768.643	100.25
768.821	100.51
769	100.87
769.179	101.33
769.357	100.18
769.536	98.84
769.715	97.31
769.893	97.91
770.072	95.75
770.25	96.76
770.429	97.46
770.607	96.61
770.786	98.17
770.964	98.44
771.143	97.12
771.321	95.81
771.5	98.45
771.678	95.11
771.857	95.47
772.035	97.25
772.213	97.47
772.392	95.6
772.57	96.81
772.748	96.37
772.927	94.34
773.105	93.8
773.283	92.04
773.461	93
773.64	93.21
773.818	95.55
773.996	93.25
774.174	95.58
774.352	93.01
774.531	93.38
774.709	91.95
774.887	96.92
775.065	97.4
775.243	99.18
775.421	99.13
775.599	96.84
775.777	96.1
775.955	93.97
776.133	96.52
776.311	97.83
776.489	101.56
776.667	100.22
776.844	102.67
777.022	99.61
777.2	100.08
777.378	98.81
777.556	99.76
777.734	97.46
777.911	95.48
778.089	93
778.267	92.88
778.445	90.71
778.622	92.2
778.8	96.12
778.978	95.61
779.155	95.43
779.333	94.25
779.511	91.55
779.688	90.54
779.866	89.74
780.043	90.38
780.221	93.95
780.398	94.61
780.576	93.73
780.753	97.62
780.931	96.81
781.108	97.38
781.286	96.6
781.463	97.04
781.64	97.86
781.818	97.51
781.995	96.21
782.172	98.65
782.35	96.65
782.527	94.49
782.704	94.51
782.882	93.6
783.059	91.47
783.236	90.78
783.413	92.23
783.59	91.92
783.768	90.88
783.945	94.96
784.122	96.27
784.299	94.98
784.476	95.45
784.653	99.23
784.83	96.77
785.007	97.25
785.184	97.95
785.361	97.58
785.538	93.11
785.715	87.98
785.892	84.04
786.069	83.14
786.246	84.05
786.423	86.22
786.6	92.19
786.776	96.7
786.953	95.13
787.13	95.09
787.307	95.87
787.484	97.86
787.66	99.16
787.837	99.92
788.014	99.2
788.191	98.61
788.367	99.57
788.544	101.01
788.721	102.27
788.897	102
789.074	97.44
789.25	90.13
789.427	87.08
789.603	84.43
789.78	81.48
789.956	82.77
790.133	86.8
790.309	89.96
790.486	86.29
790.662	91.57
790.839	96.08
791.015	95.23
791.192	92.81
791.368	99.32
791.544	93.69
791.721	92.26
791.897	91.89
792.073	89.67
792.249	85.33
792.426	88.4
792.602	86.97
792.778	88.84
792.954	89.76
793.13	92.35
793.307	93.52
793.483	90.6
793.659	90.08
793.835	88.03
794.011	89.83
794.187	87.38
794.363	93.92
794.539	89.37
794.715	92.13
794.891	91.11
795.067	91.76
795.243	88.44
795.419	91.67
795.595	96.15
795.771	98.96
795.947	100.35
796.122	99.62
796.298	102.4
796.474	98.4
796.65	94.37
796.826	93.62
797.001	96.76
797.177	91.87
797.353	87.79
797.529	88.9
797.704	86.2
797.88	81.32
798.056	83.42
798.231	88.18
798.407	84.19
798.582	84.79
798.758	89.77
798.934	94.17
799.109	91.25
799.285	99.14
799.46	101.6
799.636	102.04
799.811	99.44
799.986	98.62
800.162	90.55
800.337	89.98
800.513	85.7
800.688	81.28
800.863	83.9
801.039	90.87
801.214	94.82
801.389	98.11
801.565	98.27
801.74	107.89
801.915	110.54
802.09	105.19
802.265	104.39
802.441	106.03
802.616	91.62
802.791	88.42
802.966	89.69
803.141	87.98
803.316	85.06
803.491	88.47
803.666	86.89
803.841	91.77
804.016	95.26
804.191	95.42
804.366	106.12
804.541	103.8
804.716	96.57
804.891	94.17
805.066	107.42
805.241	95.39
805.416	90.42
805.591	87.77
805.765	85.07
805.94	78.63
806.115	75.94
806.29	75.3
806.464	81.91
806.639	87.26
806.814	79.62
806.989	82.36
807.163	85.75
807.338	78.21
807.512	76.59
807.687	79.58
807.862	78.77
808.036	75.06
808.211	79.57
808.385	73.41
808.56	73.32
808.734	70.34
808.909	76.34
809.083	72.6
809.258	73.8
809.432	83.7
809.606	84.71
809.781	75.77
809.955	70.29
810.13	74.54
810.304	66.95
810.478	70.72
810.652	74.6
810.827	80.71
811.001	81.86
811.175	88.79
811.349	83.35
811.524	86.18
811.698	83.75
811.872	87.37
812.046	86.34
812.22	87.54
812.394	93.81
812.568	100.91
812.742	97.42
812.916	87.91
813.09	89
813.264	85.94
813.438	94.73
813.612	94.42
813.786	89.04
813.96	98.97
814.134	90.67
814.308	84.57
814.482	89.21
814.656	104.56
814.83	98.87
815.003	100.86
815.177	100.15
815.351	98.31
815.525	96.58
815.698	92.17
815.872	91.09
816.046	85.55
816.219	71.39
816.393	68.85
816.567	68.46
816.74	68.85
816.914	77.16
817.088	87.46
817.261	82.72
817.435	90.59
817.608	96.24
817.782	88.23
817.955	92.55
818.129	91.11
818.302	88.11
818.475	85.25
818.649	96.36
818.822	92.06
818.996	96.03
819.169	99.26
819.342	100.23
819.516	93.67
819.689	96.73
819.862	105.81
820.035	96.5
820.209	89.41
820.382	98.93
820.555	86.71
820.728	67.05
820.901	68.84
821.075	71.59
821.248	78.48
821.421	85.9
821.594	96.03
821.767	93.89
821.94	85.64
822.113	58.73
822.286	59.75
822.459	70.42
822.632	76.6
822.805	84.64
822.978	104.45
823.151	101.63
823.324	90.17
823.496	81.84
823.669	71.72
823.842	59.2
824.015	73.9
824.188	65.96
824.361	75.69
824.533	85.66
824.706	83.92
824.879	66.88
825.051	78.06
825.224	72.68
825.397	73.45
825.569	85.37
825.742	92.97
825.915	72.64
826.087	76.04
826.26	84.22
826.432	89.84
826.605	77.81
826.777	88.21
826.95	85.64
827.122	72.12
827.295	53.76
827.467	55.42
827.64	46.43
827.812	45.5
827.984	53.06
828.157	65.85
828.329	75.33
828.501	100.5
828.674	88.63
828.846	89.96
829.018	96.49
829.19	86.52
829.363	72.28
829.535	81.08
829.707	78.67
829.879	70.68
830.051	75.58
830.223	95.88
830.395	91.43
830.568	86.89
830.74	85.95
830.912	80.32
831.084	73.65
831.256	79
831.428	70.01
831.6	72.42
831.772	80.53
831.943	73.43
832.115	80.68
832.287	103.65
832.459	90.52
832.631	98.21
832.803	102.17
832.975	97.76
833.146	85.35
833.318	94.93
833.49	96.39
833.662	104.28
833.833	86.79
834.005	86.31
834.177	96.76
834.348	89.44
834.52	72.52
834.692	73.26
834.863	78.4
835.035	78.82
835.206	86.53
835.378	88.77
835.549	96.57
835.721	89.57
835.892	86.96
836.064	87.79
836.235	95.02
836.407	86.6
836.578	83.87
836.749	81.26
836.921	68.15
837.092	75.08
837.264	69.4
837.435	70.17
837.606	63.88
837.777	65.68
837.949	44.25
838.12	42.54
838.291	47.75
838.462	60.85
838.633	62.16
838.805	81.13
838.976	94.82
839.147	123.23
839.318	119.42
839.489	107.88
839.66	130.35
839.831	136.17
840.002	98.84
840.173	69.67
840.344	81.22
840.515	60.89
840.686	67.13
840.857	79.23
841.028	90.57
841.199	107.01
841.369	86.01
841.54	103.17
841.711	113.7
841.882	95.69
842.053	74.76
842.223	97.68
842.394	98.55
842.565	93.3
842.736	97.17
842.906	183.16
843.077	163.67
843.248	204.45
843.418	154.05
843.589	104.64
843.759	80.8
843.93	68.53
844.101	59.08
844.271	57.46
844.442	73.68
844.612	96.74
844.783	83.77
844.953	62.97
845.123	70.98
845.294	54.82
845.464	48.1
845.635	80.65
845.805	106.9
845.975	108.35
846.146	151.64
846.316	123.51
846.486	121.8
846.656	108.51
846.827	89.15
846.997	77.26
847.167	70.95
847.337	54.8
847.507	37.41
847.677	48.18
847.848	58.52
848.018	79.63
848.188	83.76
848.358	97.04
848.528	107.78
848.698	96.16
848.868	76.85
849.038	75.67
849.208	50.9
849.378	54.77
849.548	41.31
849.718	69.34
849.887	54.23
850.057	57.98
850.227	49.84
850.397	46.93
850.567	37.45
850.737	64.97
850.906	56.84
851.076	58.35
851.246	67.45
851.415	68.08
851.585	67.97
851.755	70.86
851.924	79.7
852.094	80.25
852.264	66.37
852.433	40.18
852.603	49.8
852.772	37.21
852.942	43.81
853.111	59.06
853.281	71.05
853.45	60.43
853.62	37.57
853.789	21.13
853.959	34.27
854.128	52.75
854.297	57.7
854.467	111.2
854.636	122.44
854.805	90.44
854.975	75.92
855.144	72.58
855.313	55.14
855.482	42.17
855.652	32.69
855.821	35.34
855.99	42.68
856.159	43.98
856.328	70.02
856.497	89.52
856.667	90.07
856.836	109.81
857.005	142.25
857.174	102.63
857.343	88.59
857.512	67.34
857.681	9
857.85	30.76
858.019	4.18
858.188	25.19
858.356	43.47
858.525	79.33
858.694	71.45
858.863	105.39
859.032	86.77
859.201	66.73
859.369	85.95
859.538	83.18
859.707	45.03
859.876	59.83
860.044	84.49
860.213	83.48
860.382	98.52
860.55	126.48
860.719	135.96
860.888	152.53
861.056	124.28
861.225	131.97
861.393	135.16
861.562	125.47
861.73	119.43
861.899	87.36
862.067	70.54
862.236	50.94
862.404	53.42
862.572	48.26
862.741	60.74
862.909	59.14
863.078	72.42
863.246	62.24
863.414	62.53
863.582	84.68
863.751	72.67
863.919	51.29
864.087	74.5
864.255	84.58
864.424	54.45
864.592	44.99
864.76	73.97
864.928	52.39
865.096	28.24
865.264	44.16
865.432	65.22
865.6	32.98
865.768	42.95
865.936	32.01
866.104	19.67
866.272	-0.05
866.44	20.95
866.608	-11.12
866.776	12.73
866.944	59.96
867.112	54.16
867.28	34.48
867.448	69.3
867.615	55.24
867.783	34.83
867.951	38.26
868.119	59.97
868.286	60.35
868.454	67.03
868.622	67.64
868.789	85.05
868.957	84.02
869.125	82.15
869.292	75.26
869.46	73.52
869.627	68.6
869.795	63.29
869.963	76.31
870.13	75.63
870.298	34.16
870.465	54.31
870.632	31.38
870.8	-2.01
870.967	11.81
871.135	19.87
871.302	-35.61
871.469	23.86
871.637	12.22
871.804	-5.18
871.971	-0.59
872.139	1.3
872.306	-12.84
872.473	35.51
872.64	30.52
872.807	44.81
872.975	33.28
873.142	42.98
873.309	2.71
873.476	45.77
873.643	11.15
873.81	43.88
873.977	26.86
874.144	56.78
874.311	43.65
874.478	72.98
874.645	65.42
874.812	90.23
874.979	76.33
875.146	80.84
875.313	63.1
875.48	63.73
875.647	70.65
875.813	84.75
875.98	65.59
876.147	72.03
876.314	94.92
876.481	97.56
876.647	98.04
876.814	107.51
876.981	94.15
877.147	76.68
877.314	44.01
877.481	47.09
877.647	37.43
877.814	39.89
877.98	45.83
878.147	39.83
878.314	31.39
878.48	32.56
878.647	74.84
878.813	40.93
878.979	29.83
879.146	40.82
879.312	14.87
879.479	36.72
879.645	74.75
879.811	79.13
879.978	51.16
880.144	70.57
880.31	55.35
880.477	49.7
880.643	60.02
880.809	73.52
880.975	66.93
881.142	1.19
881.308	-25.49
881.474	-35.53
881.64	-108.31
881.806	-246.8
881.972	-23.34
882.138	134.79
882.304	77.88
882.47	38.8
882.636	59.22
882.802	60.01
882.968	41.2
883.134	47.72
883.3	83.55
883.466	84.04
883.632	104.2
883.798	102.91
883.964	120.3
884.129	81.48
884.295	21.82
884.461	44.84
884.627	42.22
884.793	73.02
884.958	81.65
885.124	76.28
885.29	51.56
885.455	36.09
885.621	25.96
885.787	3.68
885.952	18.83
886.118	54.16
886.283	80.01
886.449	75.11
886.614	61.59
886.78	86.79
886.945	96.84
887.111	93.4
887.276	83.24
887.442	100.7
887.607	85.54
887.773	38.83
887.938	-6.48
888.103	34.14
888.269	84.28
888.434	55.4
888.599	45.91
888.764	54.3
888.93	61.55
889.095	36.37
889.26	38.09
889.425	47.02
889.59	55.38
889.756	15.82
889.921	-16.92
890.086	-20.16
890.251	-29.19
890.416	-63.98
890.581	-65.81
890.746	25.52
890.911	45.66
891.076	84.33
891.241	89.48
891.406	101.13
891.571	74.86
891.736	24.76
891.901	10.17
892.065	80.23
892.23	75.44
892.395	70.73
892.56	85.32
892.725	103.53
892.889	14.33
893.054	28.59
893.219	-6.8
893.384	-6.41
893.548	-36.08
893.713	-64.48
893.878	-131.26
