Data from Ofav_PP_2HS2_Reflection_2.txt Node
Date: Tue Jul 27 19:02:50 EDT 2021
User: USUARIO
Spectrometer: FLMT01687
Trigger mode: 0
Integration Time (sec): 8.500000E-1
Scans to average: 2
Electric dark correction enabled: true
Nonlinearity correction enabled: false
Boxcar width: 2
XAxis mode: Wavelengths
Number of Pixels in Spectrum: 3648
>>>>>Begin Spectral Data<<<<<
179.494	-934.07
179.716	-268.01
179.937	-155.57
180.158	-131.14
180.38	-137.04
180.601	-98.81
180.823	54.89
181.044	48.82
181.265	23.49
181.486	0.69
181.708	-20.36
181.929	65.2
182.15	70.25
182.372	38.51
182.593	60.2
182.814	57.39
183.035	79.5
183.257	55.65
183.478	45.76
183.699	42.99
183.92	38.95
184.141	23.68
184.363	29.94
184.584	58.63
184.805	67.26
185.026	64.59
185.247	59.86
185.468	42.8
185.689	22.02
185.91	-0.1
186.132	-12.03
186.353	21.14
186.574	19.75
186.795	17.29
187.016	32.29
187.237	24.7
187.458	6.22
187.679	16.64
187.9	3.2
188.121	-5.16
188.342	1.04
188.563	10.25
188.784	36.76
189.005	46.7
189.226	56.42
189.447	58.49
189.667	65.3
189.888	45.9
190.109	38.15
190.33	19.32
190.551	-3.13
190.772	-13.04
190.993	5.98
191.214	21
191.434	22.91
191.655	40.64
191.876	32.83
192.097	21.66
192.318	35.82
192.538	49.52
192.759	47.37
192.98	53.89
193.201	66.25
193.421	49.87
193.642	38.6
193.863	37.07
194.083	40.11
194.304	32.35
194.525	15.11
194.745	-20.7
194.966	-64.78
195.187	-104.98
195.407	-72.94
195.628	1.62
195.848	48.17
196.069	61.31
196.29	126
196.51	93.08
196.731	52
196.951	35.46
197.172	12.34
197.392	15.12
197.613	16.48
197.833	18.01
198.054	21.56
198.274	26.63
198.495	34.99
198.715	54.85
198.936	75.73
199.156	85.08
199.377	133.65
199.597	157.17
199.817	64.65
200.038	72.4
200.258	40.17
200.479	-5.17
200.699	1.08
200.919	-15.03
201.14	-9.72
201.36	-30.4
201.58	-24.05
201.801	-21.34
202.021	12.37
202.241	20.08
202.461	18.79
202.682	25.48
202.902	-1.44
203.122	0.82
203.342	12.59
203.563	33.56
203.783	25.57
204.003	40.08
204.223	25.4
204.443	11.24
204.663	-36.42
204.884	-13.41
205.104	-7.62
205.324	29
205.544	25.16
205.764	40.13
205.984	22.34
206.204	12.39
206.424	-22.15
206.644	0.14
206.864	-12.13
207.084	-2.89
207.304	6.57
207.525	16.43
207.745	48.9
207.964	65.48
208.184	74.63
208.404	61.16
208.624	36.84
208.844	16.86
209.064	12.73
209.284	7.6
209.504	31.4
209.724	37.81
209.944	19.72
210.164	14.43
210.384	24.66
210.604	-58.73
210.823	6.14
211.043	34.7
211.263	25.16
211.483	35.94
211.703	51.28
211.922	46.51
212.142	9.25
212.362	-11.01
212.582	-41.69
212.801	-18.32
213.021	-17.24
213.241	-21.36
213.461	-4.86
213.68	1.52
213.9	-22.87
214.12	-17.79
214.339	-5.48
214.559	-5.17
214.779	1.36
214.998	-6.83
215.218	-17.42
215.438	2.67
215.657	23.61
215.877	30.76
216.096	44.61
216.316	67.63
216.535	56.91
216.755	58.79
216.974	61.69
217.194	64.94
217.413	53.34
217.633	61.63
217.852	48.42
218.072	30.56
218.291	22.15
218.511	6.57
218.73	-4.88
218.95	-17.09
219.169	-5.14
219.389	-9.71
219.608	-11.6
219.827	25.22
220.047	48.48
220.266	49.13
220.485	44.18
220.705	51.28
220.924	30.36
221.143	13.87
221.363	-6.91
221.582	-13.58
221.801	-13.68
222.021	13.42
222.24	23.33
222.459	3.22
222.678	15.01
222.897	21.56
223.117	27.22
223.336	31.74
223.555	41.09
223.774	26.19
223.993	4.55
224.213	-24.13
224.432	-12.55
224.651	3.02
224.87	3.41
225.089	21.16
225.308	36.21
225.527	35.97
225.746	39.47
225.965	42.42
226.184	32.59
226.404	0.13
226.623	-20.47
226.842	-19.11
227.061	-6.37
227.28	-10.55
227.499	2.5
227.718	9.75
227.936	3.24
228.155	9.82
228.374	16.39
228.593	22.43
228.812	29.75
229.031	31.14
229.25	27.09
229.469	4.82
229.688	-3.85
229.907	-20.48
230.125	-7.75
230.344	1.21
230.563	35.4
230.782	42.18
231.001	49.03
231.22	54.31
231.438	44.08
231.657	22.73
231.876	4.26
232.095	12.67
232.313	6.34
232.532	16.54
232.751	18.38
232.969	26.96
233.188	31.59
233.407	21.98
233.625	4.34
233.844	19.52
234.063	24.42
234.281	-6.41
234.5	-0.81
234.719	29.66
234.937	22.05
235.156	8.77
235.374	11.08
235.593	28.95
235.811	22.51
236.03	24.96
236.249	32.8
236.467	47.22
236.686	31.06
236.904	20.52
237.123	17.61
237.341	26.21
237.559	24.7
237.778	14.86
237.996	18.08
238.215	11.21
238.433	17.82
238.652	10.52
238.87	27.42
239.088	20.58
239.307	40.65
239.525	17.4
239.743	29.41
239.962	12.92
240.18	16.54
240.398	6.04
240.617	12.29
240.835	9.9
241.053	14.97
241.271	-0.96
241.49	13.47
241.708	24.01
241.926	19
242.144	29.53
242.363	45.46
242.581	18.28
242.799	-4.4
243.017	-32.38
243.235	-66.74
243.453	-48.47
243.672	-18.24
243.89	-11.83
244.108	10.73
244.326	29.34
244.544	16.75
244.762	12.55
244.98	26.44
245.198	12.1
245.416	2.48
245.634	18.08
245.852	13.02
246.07	14.64
246.288	35.33
246.506	23.53
246.724	22.02
246.942	36.87
247.16	29.47
247.378	20.85
247.596	35.17
247.814	29.88
248.032	14.34
248.25	13.09
248.468	34.68
248.685	30.6
248.903	41.09
249.121	39.33
249.339	61.73
249.557	48.9
249.775	26.13
249.992	11.66
250.21	3.69
250.428	-7.59
250.646	-38.87
250.863	-10.32
251.081	4.01
251.299	18.37
251.517	25.75
251.734	63.36
251.952	37.7
252.17	22.53
252.387	-3.54
252.605	-5.81
252.823	-3.35
253.04	26.5
253.258	34.42
253.475	38.68
253.693	52.19
253.911	62.74
254.128	44.34
254.346	32.85
254.563	42.37
254.781	24.64
254.998	29.28
255.216	15.47
255.433	29.43
255.651	31.3
255.868	37.5
256.086	28.54
256.303	33.96
256.521	30.91
256.738	33.45
256.956	24.02
257.173	16.49
257.39	22.85
257.608	21.61
257.825	23.67
258.043	27.06
258.26	44.1
258.477	37.73
258.695	37.59
258.912	50.81
259.129	51.25
259.346	32.2
259.564	26.48
259.781	47.88
259.998	30.72
260.216	41.51
260.433	28.59
260.65	42.39
260.867	26.03
261.084	9.51
261.302	-15
261.519	9.06
261.736	6.95
261.953	16.49
262.17	24.53
262.387	36.01
262.604	33.39
262.822	40.16
263.039	34.43
263.256	39.26
263.473	43.28
263.69	51.22
263.907	36.67
264.124	39.97
264.341	35.73
264.558	31.48
264.775	16.77
264.992	27.71
265.209	29.69
265.426	31.28
265.643	27.41
265.86	19.33
266.077	4.75
266.294	13.57
266.51	18.55
266.727	9.49
266.944	13.52
267.161	17.4
267.378	0.75
267.595	7.91
267.812	16.5
268.028	48.07
268.245	41.98
268.462	37.96
268.679	7.65
268.896	10.29
269.112	-6.91
269.329	3.65
269.546	23.89
269.763	26.87
269.979	40.62
270.196	36.67
270.413	31.75
270.629	33.31
270.846	57.12
271.063	50.67
271.279	54.87
271.496	62.96
271.712	45.16
271.929	5.21
272.146	-25.93
272.362	-12.63
272.579	-12.31
272.795	-3.95
273.012	9.68
273.228	21.63
273.445	33.79
273.661	48.73
273.878	45.47
274.094	30.92
274.311	26.69
274.527	26.23
274.744	19.42
274.96	15.74
275.177	24.44
275.393	26.32
275.609	34.72
275.826	26.28
276.042	23.37
276.259	31.39
276.475	24.64
276.691	15.18
276.908	23.51
277.124	27.14
277.34	35.69
277.557	22.11
277.773	24.2
277.989	26.62
278.205	23.87
278.422	24.65
278.638	37.97
278.854	45.61
279.07	36.77
279.286	42.75
279.503	22.37
279.719	34.5
279.935	33.36
280.151	36.61
280.367	28.1
280.583	33.98
280.799	34.83
281.016	23.39
281.232	24.38
281.448	35.64
281.664	37.66
281.88	35.55
282.096	52.1
282.312	55.75
282.528	42.67
282.744	34.4
282.96	19.83
283.176	12.61
283.392	2.33
283.608	18.77
283.824	29.3
284.04	20.33
284.256	22.63
284.471	22.58
284.687	15.95
284.903	19.5
285.119	36.3
285.335	36.52
285.551	25.74
285.767	36.68
285.982	22.46
286.198	10.03
286.414	-6.99
286.63	1.87
286.846	-19.93
287.061	-15.29
287.277	-14.4
287.493	-10.08
287.709	-0.38
287.924	11.57
288.14	24.52
288.356	34.04
288.571	39.09
288.787	37.76
289.003	42.74
289.218	49.53
289.434	32.6
289.65	17.33
289.865	-9.45
290.081	9.86
290.296	2.04
290.512	12.27
290.727	26.19
290.943	46.37
291.159	44.51
291.374	43.34
291.59	31.01
291.805	24.13
292.021	24.97
292.236	17.41
292.451	8.86
292.667	16.03
292.882	15.2
293.098	10.76
293.313	16.99
293.529	33.04
293.744	28.42
293.959	34.99
294.175	40.43
294.39	26.26
294.605	23.3
294.821	22.84
295.036	18.42
295.251	0.97
295.467	-0.97
295.682	-11.73
295.897	4.28
296.112	9.47
296.328	14.31
296.543	27.33
296.758	36.6
296.973	30.3
297.188	29.35
297.404	33.85
297.619	32.61
297.834	26.38
298.049	18.67
298.264	12.96
298.479	17.43
298.694	2.69
298.909	0.95
299.125	13.87
299.34	11.58
299.555	12.75
299.77	31.22
299.985	33.31
300.2	33.16
300.415	38.45
300.63	33.36
300.845	44.07
301.06	37.09
301.275	18.81
301.49	30.76
301.704	15.13
301.919	1.79
302.134	15.04
302.349	25.37
302.564	15.42
302.779	16.05
302.994	8.18
303.209	7.57
303.423	-2.85
303.638	-7.84
303.853	0.99
304.068	21.05
304.283	22.89
304.497	17.41
304.712	23.4
304.927	7.55
305.142	4.5
305.356	-8.68
305.571	-0.44
305.786	1.66
306	20.15
306.215	5.78
306.43	17.51
306.644	21.65
306.859	28.73
307.074	43.91
307.288	48.6
307.503	54.3
307.717	44.79
307.932	46.93
308.147	45.44
308.361	48.24
308.576	33.06
308.79	56.25
309.005	38.35
309.219	16.92
309.434	9
309.648	8.09
309.863	-9.92
310.077	-3.19
310.292	6.97
310.506	3.49
310.72	9.08
310.935	15.11
311.149	22.04
311.364	18.39
311.578	12.59
311.792	14.78
312.007	30.92
312.221	33.62
312.435	33.44
312.649	36.63
312.864	33.31
313.078	1
313.292	-17.97
313.507	-5.85
313.721	16.27
313.935	18.39
314.149	32.5
314.363	31.36
314.578	31.62
314.792	25.12
315.006	35.06
315.22	30.07
315.434	26.11
315.648	23.86
315.862	19.18
316.077	8.17
316.291	10.27
316.505	12.77
316.719	36.79
316.933	49.9
317.147	41.15
317.361	48.44
317.575	40.85
317.789	5.93
318.003	-26.5
318.217	-18.09
318.431	-35.56
318.645	-12.24
318.859	-7.4
319.073	3.76
319.287	16.11
319.5	18.44
319.714	-2.75
319.928	3.09
320.142	1.22
320.356	12.92
320.57	35.04
320.784	47.12
320.997	49.59
321.211	53.35
321.425	46.06
321.639	31.3
321.853	20.41
322.066	12.56
322.28	-4.86
322.494	1.59
322.707	8.38
322.921	13.82
323.135	12.15
323.349	29.04
323.562	20.31
323.776	11.63
323.989	-8.17
324.203	-6.04
324.417	-12.25
324.63	6.44
324.844	14.53
325.057	23
325.271	27.91
325.485	28.39
325.698	25.58
325.912	28.44
326.125	23.65
326.339	20.3
326.552	16.07
326.766	17.47
326.979	20.68
327.193	31.4
327.406	39.19
327.619	53.26
327.833	36.67
328.046	30.97
328.26	30.24
328.473	22.74
328.686	3.62
328.9	27.16
329.113	30.05
329.326	9.99
329.54	11.69
329.753	2.55
329.966	-22.91
330.179	-41.76
330.393	-12.8
330.606	-3.23
330.819	13.72
331.032	16.23
331.246	37.77
331.459	50.55
331.672	49.29
331.885	49.83
332.098	59.36
332.311	48.14
332.525	36.28
332.738	33.36
332.951	31.45
333.164	13.35
333.377	3.25
333.59	7.79
333.803	13.68
334.016	6.98
334.229	12.87
334.442	32.84
334.655	37.79
334.868	36.7
335.081	43.27
335.294	45.51
335.507	30.45
335.72	30.7
335.933	32.1
336.146	33.76
336.359	18.54
336.572	24.21
336.785	19.01
336.997	10.01
337.21	18.18
337.423	27.96
337.636	15.55
337.849	13.09
338.062	5.11
338.274	3.12
338.487	19.89
338.7	23.23
338.913	16.79
339.125	16.44
339.338	-2.77
339.551	-29.75
339.763	-28.3
339.976	-13.33
340.189	3.56
340.402	20.47
340.614	22.5
340.827	32.4
341.039	28.84
341.252	34.82
341.465	36.57
341.677	46.34
341.89	13.12
342.102	20.16
342.315	17.06
342.527	20.59
342.74	24.72
342.952	35.46
343.165	32.34
343.377	30.99
343.59	27.42
343.802	18.38
344.015	14.06
344.227	3.62
344.44	-28.55
344.652	-28.9
344.864	-36.99
345.077	-34.74
345.289	-26.83
345.502	-16.01
345.714	-8.52
345.926	-13.97
346.139	1.76
346.351	3.3
346.563	2.93
346.775	-1.56
346.988	1.91
347.2	-12.54
347.412	-8.63
347.624	-6.29
347.837	-15.11
348.049	4.7
348.261	23.38
348.473	26.51
348.685	40.93
348.897	58.62
349.11	50.07
349.322	27.28
349.534	26.41
349.746	7.96
349.958	-2.01
350.17	11.41
350.382	14.32
350.594	-8.06
350.806	10.58
351.018	14.28
351.23	8.78
351.442	9.19
351.654	30.23
351.866	21.65
352.078	28.8
352.29	18.8
352.502	22.05
352.714	25.1
352.926	36.46
353.138	32.34
353.35	31.11
353.561	32
353.773	40.31
353.985	19.68
354.197	9.98
354.409	11.01
354.621	14.24
354.832	10.07
355.044	7.74
355.256	13.04
355.468	27.66
355.679	32.05
355.891	29
356.103	40.79
356.314	53.3
356.526	47.86
356.738	46.01
356.949	54.7
357.161	49.6
357.373	37.75
357.584	26.53
357.796	27.96
358.008	16.67
358.219	14.89
358.431	15.82
358.642	26.56
358.854	29.98
359.065	33.89
359.277	34.5
359.488	40.6
359.7	39.03
359.911	33.46
360.123	30.85
360.334	29.8
360.546	5.67
360.757	-1.9
360.969	-1.52
361.18	-4.27
361.391	-10.41
361.603	-3.73
361.814	4.11
362.025	14.85
362.237	25.79
362.448	22.83
362.659	23.01
362.871	22.05
363.082	10.13
363.293	10.48
363.504	18.44
363.716	17.59
363.927	-6.22
364.138	-2.16
364.349	-8.49
364.56	-19.84
364.772	-7.49
364.983	15.77
365.194	4.26
365.405	8.36
365.616	15.46
365.827	11.55
366.038	12.2
366.25	22.04
366.461	26.56
366.672	29.44
366.883	31
367.094	27.03
367.305	12.03
367.516	-1.73
367.727	7.42
367.938	-0.6
368.149	6.67
368.36	31.58
368.571	42.4
368.781	33.4
368.992	36.39
369.203	29.42
369.414	11.71
369.625	9.28
369.836	16.4
370.047	19.37
370.258	31.84
370.468	39.77
370.679	23.32
370.89	8.16
371.101	0.45
371.312	-3.31
371.522	-1.32
371.733	14.28
371.944	28.27
372.155	29.27
372.365	21.81
372.576	23.05
372.787	24.6
372.997	27.21
373.208	28.36
373.419	28.58
373.629	26.89
373.84	14.1
374.05	-1.52
374.261	-12.49
374.472	-3.98
374.682	-5.31
374.893	16.7
375.103	25.94
375.314	48.5
375.524	43.52
375.735	39.58
375.945	22.83
376.156	20.71
376.366	8.5
376.577	4.9
376.787	12
376.997	12.7
377.208	12.35
377.418	12.73
377.629	23.23
377.839	25.42
378.049	35.47
378.26	40.37
378.47	34.14
378.68	34.82
378.89	29.77
379.101	22.74
379.311	6.78
379.521	1.87
379.732	-3.18
379.942	4.95
380.152	-1.88
380.362	16.46
380.572	13.04
380.783	11.36
380.993	1.05
381.203	5.4
381.413	-13.42
381.623	-7.33
381.833	-7.2
382.043	3.88
382.253	-3.43
382.463	-5.08
382.674	3.87
382.884	-2.4
383.094	-9.32
383.304	0.23
383.514	12
383.724	8.37
383.934	10.31
384.144	4.74
384.353	5.44
384.563	12.24
384.773	12.48
384.983	11.49
385.193	15.44
385.403	12.8
385.613	5.35
385.823	0.89
386.033	2.78
386.242	2.44
386.452	6.18
386.662	13.28
386.872	17.85
387.082	19.32
387.291	16.81
387.501	14.73
387.711	8.42
387.921	6.7
388.13	6.83
388.34	7.39
388.55	6.76
388.759	5.67
388.969	6.23
389.179	5.57
389.388	5.36
389.598	5.91
389.807	5.99
390.017	4.12
390.227	5.83
390.436	7.68
390.646	8.24
390.855	8.81
391.065	6.63
391.274	5.93
391.484	4.53
391.693	2.69
391.903	3.11
392.112	5.05
392.322	4.33
392.531	4.57
392.74	5.49
392.95	5.71
393.159	5.28
393.369	5.17
393.578	6.56
393.787	6.3
393.997	6.25
394.206	7.96
394.415	7.67
394.625	6.47
394.834	6.04
395.043	6.12
395.252	3.74
395.462	4.62
395.671	3.68
395.88	3.72
396.089	4.24
396.298	5.31
396.508	4.91
396.717	6.03
396.926	6
397.135	5.23
397.344	4.91
397.553	5.44
397.762	4.9
397.971	4.77
398.181	4.78
398.39	5.2
398.599	4.64
398.808	4.96
399.017	5.47
399.226	5.58
399.435	5.21
399.644	5.38
399.853	5.27
400.062	5.14
400.27	4.79
400.479	4.59
400.688	4.53
400.897	4.45
401.106	4.45
401.315	4.84
401.524	4.94
401.733	4.91
401.941	4.89
402.15	4.75
402.359	4.53
402.568	4.71
402.777	4.67
402.985	4.63
403.194	4.83
403.403	4.76
403.612	4.59
403.82	4.57
404.029	4.61
404.238	4.4
404.446	4.55
404.655	4.67
404.864	4.72
405.072	4.58
405.281	4.72
405.489	4.41
405.698	4.41
405.906	4.41
406.115	4.5
406.324	4.22
406.532	4.26
406.741	4.14
406.949	4.14
407.158	4.01
407.366	4.01
407.574	4.22
407.783	4.22
407.991	4.21
408.2	4.21
408.408	4.32
408.617	4.26
408.825	4.28
409.033	4.12
409.242	4.16
409.45	4.24
409.658	4.15
409.867	4.2
410.075	4.23
410.283	4.26
410.491	4.13
410.7	4.08
410.908	4.02
411.116	4.05
411.324	4.01
411.533	4.1
411.741	4.11
411.949	4.04
412.157	3.99
412.365	4.17
412.573	4.01
412.781	3.97
412.99	4.03
413.198	4.15
413.406	3.96
413.614	4.1
413.822	4.12
414.03	4.07
414.238	3.89
414.446	3.91
414.654	3.87
414.862	3.89
415.07	3.81
415.278	3.89
415.486	3.78
415.694	3.54
415.902	3.58
416.109	3.6
416.317	3.71
416.525	3.78
416.733	3.86
416.941	3.88
417.149	3.81
417.357	3.66
417.564	3.63
417.772	3.74
417.98	3.7
418.188	4.01
418.395	3.9
418.603	3.84
418.811	3.84
419.019	3.78
419.226	3.56
419.434	3.92
419.642	4.09
419.849	3.99
420.057	3.91
420.265	3.88
420.472	3.68
420.68	3.46
420.887	3.58
421.095	3.71
421.302	3.61
421.51	3.47
421.717	3.57
421.925	3.46
422.132	3.41
422.34	3.47
422.547	3.51
422.755	3.56
422.962	3.46
423.17	3.41
423.377	3.54
423.585	3.63
423.792	3.65
423.999	3.76
424.207	3.72
424.414	3.58
424.621	3.42
424.829	3.04
425.036	2.98
425.243	3.08
425.451	2.96
425.658	2.98
425.865	3.37
426.072	3.35
426.28	3.19
426.487	3.4
426.694	3.38
426.901	3.09
427.108	3.12
427.315	3.24
427.523	3.04
427.73	2.9
427.937	3.04
428.144	3.09
428.351	2.91
428.558	3.22
428.765	3.23
428.972	3.21
429.179	3.19
429.386	3.44
429.593	3.13
429.8	3.25
430.007	3.26
430.214	3.23
430.421	3.08
430.628	3.15
430.835	3.21
431.042	3.14
431.249	3.04
431.456	3.09
431.662	3.27
431.869	3.27
432.076	3.4
432.283	3.47
432.49	3.45
432.697	3.28
432.903	3.29
433.11	3.35
433.317	3.49
433.524	3.52
433.73	3.58
433.937	3.47
434.144	3.31
434.35	3.21
434.557	3.16
434.764	3.04
434.97	3.11
435.177	3.2
435.384	3.03
435.59	3.01
435.797	3.07
436.003	3.06
436.21	2.85
436.416	2.86
436.623	2.83
436.829	2.72
437.036	2.68
437.242	2.75
437.449	2.73
437.655	2.77
437.862	2.8
438.068	2.73
438.275	2.82
438.481	2.88
438.687	3.01
438.894	3.21
439.1	3.33
439.307	3.23
439.513	3.27
439.719	3.18
439.926	3
440.132	3.08
440.338	3.05
440.544	2.99
440.751	2.94
440.957	3.06
441.163	2.89
441.369	2.93
441.575	2.95
441.782	3.01
441.988	2.92
442.194	3.02
442.4	3.12
442.606	3.09
442.812	3.1
443.018	3.12
443.224	3.01
443.431	2.89
443.637	3.03
443.843	2.96
444.049	2.93
444.255	2.92
444.461	2.92
444.667	2.72
444.873	2.63
445.079	2.76
445.284	2.8
445.49	2.81
445.696	2.82
445.902	2.83
446.108	2.74
446.314	2.7
446.52	2.77
446.726	2.82
446.931	2.89
447.137	2.82
447.343	2.79
447.549	2.72
447.755	2.69
447.96	2.63
448.166	2.64
448.372	2.69
448.578	2.69
448.783	2.72
448.989	2.77
449.195	2.75
449.4	2.79
449.606	2.82
449.812	2.74
450.017	2.68
450.223	2.77
450.428	2.63
450.634	2.63
450.84	2.73
451.045	2.78
451.251	2.74
451.456	2.83
451.662	2.77
451.867	2.76
452.073	2.67
452.278	2.57
452.483	2.47
452.689	2.48
452.894	2.52
453.1	2.54
453.305	2.55
453.51	2.56
453.716	2.51
453.921	2.49
454.127	2.47
454.332	2.49
454.537	2.54
454.742	2.51
454.948	2.45
455.153	2.54
455.358	2.5
455.563	2.54
455.769	2.61
455.974	2.52
456.179	2.47
456.384	2.38
456.589	2.34
456.795	2.23
457	2.29
457.205	2.21
457.41	2.26
457.615	2.21
457.82	2.26
458.025	2.22
458.23	2.19
458.435	2.19
458.64	2.14
458.845	2.13
459.05	2.11
459.255	2.2
459.46	2.25
459.665	2.3
459.87	2.32
460.075	2.47
460.28	2.5
460.485	2.49
460.69	2.45
460.895	2.42
461.099	2.37
461.304	2.29
461.509	2.26
461.714	2.38
461.919	2.46
462.123	2.45
462.328	2.42
462.533	2.41
462.738	2.27
462.942	2.18
463.147	2.19
463.352	2.2
463.556	2.32
463.761	2.42
463.966	2.35
464.17	2.39
464.375	2.45
464.58	2.26
464.784	2.21
464.989	2.31
465.193	2.16
465.398	2.06
465.602	2.22
465.807	2.15
466.011	2.12
466.216	2.1
466.42	2.21
466.625	2.14
466.829	2.23
467.034	2.28
467.238	2.38
467.443	2.42
467.647	2.37
467.851	2.32
468.056	2.35
468.26	2.35
468.464	2.27
468.669	2.29
468.873	2.34
469.077	2.33
469.282	2.35
469.486	2.36
469.69	2.38
469.894	2.41
470.099	2.32
470.303	2.21
470.507	2.24
470.711	2.35
470.915	2.37
471.119	2.38
471.324	2.43
471.528	2.44
471.732	2.42
471.936	2.45
472.14	2.48
472.344	2.53
472.548	2.47
472.752	2.39
472.956	2.31
473.16	2.38
473.364	2.29
473.568	2.35
473.772	2.35
473.976	2.34
474.18	2.3
474.384	2.4
474.588	2.4
474.792	2.44
474.995	2.43
475.199	2.39
475.403	2.33
475.607	2.3
475.811	2.35
476.015	2.36
476.218	2.35
476.422	2.37
476.626	2.32
476.83	2.33
477.033	2.42
477.237	2.47
477.441	2.48
477.644	2.57
477.848	2.47
478.052	2.34
478.255	2.35
478.459	2.4
478.663	2.43
478.866	2.45
479.07	2.53
479.273	2.57
479.477	2.63
479.681	2.75
479.884	2.78
480.088	2.77
480.291	2.8
480.495	2.81
480.698	2.71
480.901	2.81
481.105	2.9
481.308	2.84
481.512	2.85
481.715	2.87
481.919	2.84
482.122	2.78
482.325	2.85
482.529	2.83
482.732	2.88
482.935	2.88
483.138	3
483.342	3
483.545	3.08
483.748	3.16
483.952	3.25
484.155	3.25
484.358	3.43
484.561	3.56
484.764	3.56
484.967	3.71
485.171	3.81
485.374	3.79
485.577	3.78
485.78	3.89
485.983	3.92
486.186	3.95
486.389	4.01
486.592	4.13
486.795	4.24
486.998	4.47
487.201	4.68
487.404	4.85
487.607	4.98
487.81	5.08
488.013	5.07
488.216	5.25
488.419	5.33
488.622	5.39
488.825	5.58
489.028	5.77
489.231	5.81
489.433	5.99
489.636	6.22
489.839	6.44
490.042	6.61
490.245	6.86
490.447	7.09
490.65	7.23
490.853	7.38
491.056	7.62
491.258	7.81
491.461	8.01
491.664	8.32
491.866	8.6
492.069	8.86
492.272	9.1
492.474	9.45
492.677	9.78
492.879	10.03
493.082	10.21
493.285	10.62
493.487	10.94
493.69	11.16
493.892	11.49
494.095	11.99
494.297	12.26
494.5	12.58
494.702	12.95
494.905	13.34
495.107	13.64
495.309	13.95
495.512	14.33
495.714	14.73
495.917	15.09
496.119	15.42
496.321	15.83
496.524	16.21
496.726	16.54
496.928	16.93
497.13	17.47
497.333	17.87
497.535	18.3
497.737	18.64
497.939	19.01
498.142	19.32
498.344	19.72
498.546	20.03
498.748	20.5
498.95	20.88
499.152	21.22
499.355	21.48
499.557	21.82
499.759	22.15
499.961	22.46
500.163	22.92
500.365	23.32
500.567	23.66
500.769	23.89
500.971	24.22
501.173	24.4
501.375	24.64
501.577	24.9
501.779	25.18
501.981	25.42
502.183	25.51
502.385	25.72
502.587	25.79
502.788	25.88
502.99	25.91
503.192	25.99
503.394	25.97
503.596	26.11
503.798	26.2
503.999	26.24
504.201	26.28
504.403	26.24
504.605	26.15
504.806	26.03
505.008	25.98
505.21	25.91
505.411	25.78
505.613	25.66
505.815	25.61
506.016	25.47
506.218	25.4
506.42	25.25
506.621	25.15
506.823	25.01
507.024	24.84
507.226	24.56
507.427	24.44
507.629	24.19
507.83	23.95
508.032	23.67
508.233	23.42
508.435	23.2
508.636	23.02
508.838	22.74
509.039	22.52
509.24	22.32
509.442	22.04
509.643	21.68
509.845	21.46
510.046	21.27
510.247	21.07
510.448	20.87
510.65	20.76
510.851	20.53
511.052	20.31
511.254	20.09
511.455	19.91
511.656	19.59
511.857	19.37
512.058	19.15
512.26	18.9
512.461	18.72
512.662	18.56
512.863	18.33
513.064	18.11
513.265	18.01
513.466	17.83
513.667	17.71
513.868	17.53
514.069	17.33
514.27	17.08
514.471	16.91
514.672	16.73
514.873	16.55
515.074	16.46
515.275	16.38
515.476	16.15
515.677	15.99
515.878	15.92
516.079	15.77
516.28	15.59
516.481	15.47
516.682	15.35
516.882	15.2
517.083	15.09
517.284	14.97
517.485	14.85
517.686	14.64
517.886	14.5
518.087	14.28
518.288	14.15
518.488	14.07
518.689	14.06
518.89	13.96
519.091	13.95
519.291	13.84
519.492	13.76
519.692	13.7
519.893	13.64
520.094	13.51
520.294	13.48
520.495	13.4
520.695	13.33
520.896	13.24
521.096	13.18
521.297	13.12
521.497	13.05
521.698	12.88
521.898	12.79
522.099	12.82
522.299	12.66
522.499	12.56
522.7	12.55
522.9	12.5
523.101	12.3
523.301	12.33
523.501	12.35
523.702	12.23
523.902	12.09
524.102	12.1
524.302	11.95
524.503	11.83
524.703	11.81
524.903	11.86
525.103	11.82
525.304	11.86
525.504	11.8
525.704	11.7
525.904	11.63
526.104	11.55
526.304	11.5
526.504	11.46
526.705	11.44
526.905	11.4
527.105	11.39
527.305	11.33
527.505	11.34
527.705	11.34
527.905	11.34
528.105	11.24
528.305	11.19
528.505	11.15
528.705	11.16
528.905	11.07
529.105	11.12
529.304	11.16
529.504	11.11
529.704	11.08
529.904	11.13
530.104	11.14
530.304	11.08
530.503	11.16
530.703	11.1
530.903	11.17
531.103	11.15
531.303	11.22
531.502	11.2
531.702	11.21
531.902	11.13
532.101	11.09
532.301	11.04
532.501	11.01
532.7	10.99
532.9	10.99
533.1	11
533.299	11
533.499	11
533.698	11.04
533.898	11
534.097	11.01
534.297	11
534.496	10.94
534.696	10.92
534.895	10.92
535.095	10.93
535.294	10.92
535.494	10.95
535.693	10.98
535.892	11
536.092	11.02
536.291	11.03
536.491	11.02
536.69	11.03
536.889	11
537.088	10.96
537.288	10.92
537.487	10.91
537.686	10.85
537.886	10.94
538.085	10.91
538.284	10.93
538.483	10.89
538.682	10.91
538.882	10.81
539.081	10.81
539.28	10.82
539.479	10.78
539.678	10.78
539.877	10.78
540.076	10.74
540.275	10.7
540.474	10.74
540.673	10.69
540.872	10.7
541.071	10.71
541.27	10.68
541.469	10.64
541.668	10.58
541.867	10.57
542.066	10.55
542.265	10.59
542.464	10.59
542.663	10.64
542.862	10.58
543.06	10.5
543.259	10.49
543.458	10.46
543.657	10.39
543.856	10.44
544.054	10.47
544.253	10.4
544.452	10.4
544.651	10.39
544.849	10.35
545.048	10.34
545.247	10.36
545.445	10.3
545.644	10.29
545.843	10.31
546.041	10.36
546.24	10.31
546.438	10.34
546.637	10.37
546.836	10.34
547.034	10.34
547.233	10.4
547.431	10.41
547.63	10.36
547.828	10.36
548.027	10.32
548.225	10.25
548.423	10.24
548.622	10.33
548.82	10.34
549.019	10.38
549.217	10.42
549.415	10.43
549.614	10.42
549.812	10.4
550.01	10.35
550.209	10.41
550.407	10.42
550.605	10.38
550.803	10.34
551.002	10.35
551.2	10.35
551.398	10.41
551.596	10.44
551.794	10.49
551.993	10.49
552.191	10.45
552.389	10.42
552.587	10.47
552.785	10.51
552.983	10.56
553.181	10.6
553.379	10.62
553.577	10.69
553.775	10.73
553.973	10.78
554.171	10.81
554.369	10.85
554.567	10.89
554.765	10.93
554.963	10.95
555.161	11.02
555.359	11.08
555.557	11.11
555.755	11.21
555.952	11.28
556.15	11.31
556.348	11.36
556.546	11.37
556.744	11.44
556.941	11.42
557.139	11.47
557.337	11.58
557.535	11.64
557.732	11.6
557.93	11.71
558.128	11.75
558.325	11.76
558.523	11.78
558.721	11.81
558.918	11.88
559.116	12.04
559.313	12.07
559.511	12.19
559.708	12.27
559.906	12.4
560.104	12.41
560.301	12.48
560.498	12.57
560.696	12.6
560.893	12.58
561.091	12.69
561.288	12.85
561.486	12.84
561.683	12.98
561.88	13.06
562.078	13.05
562.275	13.02
562.473	13.18
562.67	13.2
562.867	13.28
563.064	13.39
563.262	13.49
563.459	13.55
563.656	13.73
563.853	13.78
564.051	13.86
564.248	13.93
564.445	14.05
564.642	14.1
564.839	14.28
565.036	14.4
565.234	14.44
565.431	14.5
565.628	14.59
565.825	14.52
566.022	14.67
566.219	14.79
566.416	14.83
566.613	14.92
566.81	15.14
567.007	15.2
567.204	15.28
567.401	15.35
567.598	15.44
567.795	15.48
567.991	15.51
568.188	15.65
568.385	15.72
568.582	15.77
568.779	15.84
568.976	15.81
569.172	15.87
569.369	15.88
569.566	15.94
569.763	16.04
569.96	16.13
570.156	16.1
570.353	16.19
570.55	16.28
570.746	16.32
570.943	16.43
571.14	16.53
571.336	16.58
571.533	16.53
571.729	16.55
571.926	16.57
572.123	16.63
572.319	16.69
572.516	16.8
572.712	16.73
572.909	16.75
573.105	16.75
573.302	16.81
573.498	16.79
573.695	16.94
573.891	16.98
574.087	17.05
574.284	17.09
574.48	17.13
574.677	17.08
574.873	17.13
575.069	17.19
575.266	17.13
575.462	17.17
575.658	17.22
575.854	17.28
576.051	17.19
576.247	17.27
576.443	17.3
576.639	17.32
576.835	17.22
577.032	17.2
577.228	17.17
577.424	17.22
577.62	17.25
577.816	17.27
578.012	17.31
578.208	17.35
578.404	17.31
578.6	17.25
578.796	17.28
578.993	17.24
579.189	17.14
579.384	17.23
579.58	17.18
579.776	17.09
579.972	17.19
580.168	17.23
580.364	17.04
580.56	17.12
580.756	17.1
580.952	16.94
581.148	16.93
581.343	16.95
581.539	16.89
581.735	16.93
581.931	16.99
582.127	16.89
582.322	16.92
582.518	16.8
582.714	16.79
582.909	16.8
583.105	16.83
583.301	16.8
583.496	16.79
583.692	16.78
583.888	16.73
584.083	16.65
584.279	16.58
584.474	16.66
584.67	16.55
584.866	16.44
585.061	16.43
585.257	16.39
585.452	16.3
585.648	16.32
585.843	16.29
586.039	16.37
586.234	16.36
586.429	16.38
586.625	16.37
586.82	16.43
587.015	16.35
587.211	16.35
587.406	16.36
587.601	16.34
587.797	16.4
587.992	16.43
588.187	16.35
588.383	16.37
588.578	16.33
588.773	16.27
588.968	16.26
589.163	16.35
589.359	16.31
589.554	16.27
589.749	16.23
589.944	16.2
590.139	16.26
590.334	16.27
590.529	16.38
590.724	16.4
590.919	16.55
591.114	16.49
591.309	16.48
591.504	16.46
591.699	16.54
591.894	16.41
592.089	16.41
592.284	16.47
592.479	16.48
592.674	16.45
592.869	16.47
593.064	16.53
593.259	16.6
593.454	16.64
593.648	16.68
593.843	16.74
594.038	16.92
594.233	16.92
594.428	17.04
594.622	17.19
594.817	17.31
595.012	17.23
595.206	17.29
595.401	17.4
595.596	17.51
595.79	17.46
595.985	17.54
596.18	17.54
596.374	17.57
596.569	17.56
596.763	17.73
596.958	17.81
597.153	17.85
597.347	17.8
597.542	17.83
597.736	17.95
597.931	17.93
598.125	18.12
598.319	18.24
598.514	18.33
598.708	18.3
598.903	18.44
599.097	18.53
599.291	18.54
599.486	18.6
599.68	18.72
599.874	18.76
600.069	18.8
600.263	18.94
600.457	18.95
600.651	18.92
600.846	18.98
601.04	19
601.234	18.95
601.428	19.01
601.622	19.15
601.817	19.18
602.011	19.2
602.205	19.23
602.399	19.28
602.593	19.24
602.787	19.17
602.981	19.18
603.175	19.28
603.369	19.25
603.563	19.24
603.757	19.33
603.951	19.31
604.145	19.18
604.339	19.12
604.533	18.99
604.727	18.91
604.921	18.9
605.115	18.88
605.309	18.85
605.502	18.91
605.696	18.9
605.89	18.86
606.084	18.85
606.278	18.85
606.471	18.75
606.665	18.67
606.859	18.62
607.053	18.62
607.246	18.55
607.44	18.49
607.634	18.53
607.827	18.4
608.021	18.26
608.214	18.2
608.408	18.16
608.602	18.04
608.795	17.98
608.989	17.89
609.182	17.81
609.376	17.74
609.569	17.63
609.763	17.54
609.956	17.51
610.15	17.51
610.343	17.46
610.537	17.38
610.73	17.28
610.923	17.23
611.117	17.09
611.31	16.94
611.504	16.92
611.697	16.89
611.89	16.75
612.083	16.5
612.277	16.4
612.47	16.3
612.663	16.25
612.856	16.1
613.05	16.17
613.243	16.13
613.436	16.02
613.629	15.9
613.822	15.96
614.015	15.92
614.209	15.75
614.402	15.61
614.595	15.54
614.788	15.45
614.981	15.36
615.174	15.42
615.367	15.49
615.56	15.37
615.753	15.16
615.946	15.03
616.139	14.95
616.332	14.78
616.525	14.8
616.718	14.87
616.911	14.93
617.103	14.84
617.296	14.79
617.489	14.62
617.682	14.53
617.875	14.36
618.067	14.28
618.26	14.29
618.453	14.3
618.646	14.24
618.838	14.19
619.031	14.13
619.224	14.07
619.417	14.05
619.609	13.96
619.802	13.91
619.994	13.92
620.187	13.87
620.38	13.75
620.572	13.78
620.765	13.71
620.957	13.68
621.15	13.66
621.342	13.62
621.535	13.61
621.727	13.61
621.92	13.52
622.112	13.48
622.305	13.44
622.497	13.29
622.69	13.27
622.882	13.32
623.074	13.41
623.267	13.38
623.459	13.38
623.651	13.35
623.844	13.34
624.036	13.21
624.228	13.29
624.42	13.32
624.613	13.32
624.805	13.31
624.997	13.28
625.189	13.24
625.381	13.21
625.574	13.15
625.766	13.08
625.958	13.06
626.15	13.05
626.342	12.95
626.534	12.9
626.726	12.88
626.918	12.84
627.11	12.77
627.302	12.79
627.494	12.83
627.686	12.77
627.878	12.77
628.07	12.75
628.262	12.67
628.454	12.54
628.646	12.51
628.838	12.48
629.029	12.42
629.221	12.44
629.413	12.44
629.605	12.43
629.797	12.38
629.989	12.38
630.18	12.3
630.372	12.31
630.564	12.2
630.755	12.22
630.947	12.11
631.139	12.12
631.33	12.11
631.522	12.13
631.714	12.07
631.905	12.11
632.097	12.08
632.289	12.04
632.48	11.91
632.672	11.88
632.863	11.8
633.055	11.73
633.246	11.76
633.438	11.88
633.629	11.89
633.821	11.88
634.012	11.92
634.203	11.85
634.395	11.77
634.586	11.82
634.777	11.8
634.969	11.87
635.16	11.94
635.351	11.93
635.543	11.88
635.734	11.94
635.925	11.87
636.117	11.75
636.308	11.73
636.499	11.66
636.69	11.63
636.881	11.63
637.073	11.69
637.264	11.73
637.455	11.68
637.646	11.72
637.837	11.65
638.028	11.54
638.219	11.59
638.41	11.64
638.601	11.62
638.792	11.63
638.983	11.68
639.174	11.62
639.365	11.58
639.556	11.48
639.747	11.46
639.938	11.45
640.129	11.38
640.32	11.42
640.511	11.41
640.701	11.42
640.892	11.39
641.083	11.42
641.274	11.3
641.465	11.3
641.655	11.26
641.846	11.26
642.037	11.25
642.228	11.26
642.418	11.23
642.609	11.18
642.8	11.07
642.99	11.05
643.181	11.02
643.372	10.99
643.562	10.97
643.753	11.03
643.943	11.05
644.134	11.03
644.324	11.01
644.515	11.01
644.705	10.96
644.896	10.87
645.086	10.89
645.277	10.93
645.467	10.94
645.658	10.95
645.848	10.98
646.038	11
646.229	10.97
646.419	10.93
646.61	10.9
646.8	10.87
646.99	10.86
647.18	10.81
647.371	10.83
647.561	10.74
647.751	10.79
647.941	10.67
648.132	10.71
648.322	10.68
648.512	10.72
648.702	10.74
648.892	10.65
649.082	10.6
649.272	10.57
649.462	10.56
649.653	10.38
649.843	10.5
650.033	10.46
650.223	10.41
650.413	10.34
650.603	10.34
650.793	10.26
650.983	10.27
651.172	10.26
651.362	10.22
651.552	10.15
651.742	10.11
651.932	10.06
652.122	10.12
652.312	10.15
652.502	10.07
652.691	10.07
652.881	10.04
653.071	9.96
653.261	9.81
653.45	9.84
653.64	9.7
653.83	9.58
654.019	9.36
654.209	9.33
654.399	9.24
654.588	9.24
654.778	9.14
654.968	9.15
655.157	9.07
655.347	8.99
655.536	8.82
655.726	8.69
655.915	8.65
656.105	8.47
656.294	8.36
656.484	8.31
656.673	8.25
656.863	8.03
657.052	8.05
657.241	7.95
657.431	7.82
657.62	7.7
657.809	7.54
657.999	7.35
658.188	7.19
658.377	7.08
658.567	6.97
658.756	6.91
658.945	6.86
659.134	6.73
659.324	6.69
659.513	6.66
659.702	6.64
659.891	6.47
660.08	6.32
660.269	6.08
660.458	5.88
660.648	5.83
660.837	5.76
661.026	5.81
661.215	5.8
661.404	5.67
661.593	5.43
661.782	5.35
661.971	5.14
662.16	5.06
662.349	5.1
662.538	5.08
662.726	5.01
662.915	5
663.104	4.83
663.293	4.73
663.482	4.69
663.671	4.58
663.86	4.47
664.048	4.48
664.237	4.38
664.426	4.28
664.615	4.26
664.803	4.2
664.992	4.12
665.181	4.13
665.369	4.1
665.558	4.14
665.747	4.15
665.935	4.1
666.124	4.14
666.312	4.1
666.501	3.98
666.69	3.94
666.878	3.92
667.067	3.82
667.255	3.87
667.444	3.9
667.632	3.97
667.82	4.03
668.009	4.03
668.197	4.07
668.386	4.09
668.574	4.08
668.762	4.03
668.951	4.14
669.139	4.16
669.327	4.13
669.516	4.15
669.704	4.22
669.892	4.15
670.08	4.09
670.269	4.17
670.457	4.06
670.645	4.08
670.833	4.05
671.021	4.08
671.21	4
671.398	4.14
671.586	4.16
671.774	4.2
671.962	4.17
672.15	4.3
672.338	4.34
672.526	4.48
672.714	4.54
672.902	4.67
673.09	4.67
673.278	4.67
673.466	4.65
673.654	4.82
673.842	4.84
674.03	4.84
674.218	5
674.405	5.16
674.593	5.05
674.781	5.14
674.969	5.15
675.157	5.07
675.344	5.02
675.532	5.14
675.72	5.19
675.908	5.36
676.095	5.31
676.283	5.34
676.471	5.38
676.658	5.4
676.846	5.35
677.033	5.68
677.221	5.68
677.409	5.69
677.596	5.74
677.784	5.85
677.971	5.81
678.159	5.98
678.346	5.96
678.534	5.97
678.721	6.05
678.909	6.14
679.096	6.08
679.283	6.22
679.471	6.35
679.658	6.32
679.846	6.39
680.033	6.59
680.22	6.7
680.408	6.72
680.595	6.89
680.782	6.81
680.969	6.87
681.157	7
681.344	7.02
681.531	6.97
681.718	7.25
681.905	7.21
682.093	7.17
682.28	7.31
682.467	7.64
682.654	7.63
682.841	7.66
683.028	7.63
683.215	7.81
683.402	7.78
683.589	7.92
683.776	8.19
683.963	8.4
684.15	8.47
684.337	8.7
684.524	8.84
684.711	9.03
684.898	9.1
685.085	9.29
685.271	9.4
685.458	9.58
685.645	9.77
685.832	10.16
686.019	10.32
686.205	10.57
686.392	10.8
686.579	11.03
686.766	11.38
686.952	11.73
687.139	11.99
687.326	12.24
687.512	12.36
687.699	12.52
687.886	12.79
688.072	13
688.259	13.31
688.445	13.77
688.632	14.14
688.818	14.53
689.005	14.9
689.191	15.38
689.378	15.85
689.564	16.39
689.751	16.94
689.937	17.56
690.124	17.95
690.31	18.48
690.496	19.11
690.683	19.55
690.869	20.22
691.055	20.79
691.242	21.48
691.428	22.08
691.614	22.76
691.8	23.31
691.987	23.99
692.173	24.61
692.359	25.14
692.545	25.83
692.731	26.51
692.918	27.45
693.104	28.02
693.29	28.84
693.476	29.51
693.662	30.37
693.848	31.12
694.034	31.88
694.22	32.53
694.406	33.44
694.592	33.99
694.778	34.61
694.964	35.45
695.15	36.25
695.336	36.95
695.522	38.06
695.708	39.04
695.894	39.91
696.08	40.76
696.265	41.77
696.451	42.57
696.637	43.31
696.823	44.07
697.009	44.78
697.194	45.57
697.38	46.25
697.566	47.05
697.751	48.03
697.937	48.98
698.123	49.92
698.308	50.37
698.494	51.02
698.68	51.63
698.865	52.37
699.051	52.9
699.236	53.97
699.422	54.69
699.607	55.23
699.793	55.9
699.978	56.56
700.164	57.14
700.349	58.02
700.535	58.75
700.72	59.36
700.906	60.1
701.091	60.46
701.276	60.96
701.462	61.84
701.647	62.63
701.832	63.08
702.018	63.94
702.203	64.43
702.388	64.87
702.573	65.1
702.759	65.61
702.944	66.33
703.129	67.11
703.314	67.75
703.499	68.34
703.684	69.1
703.87	69.2
704.055	69.44
704.24	69.43
704.425	69.95
704.61	70.47
704.795	70.91
704.98	71.35
705.165	72.01
705.35	72.68
705.535	73.26
705.72	74.11
705.905	74.59
706.09	75.18
706.275	75.32
706.459	75.46
706.644	75.52
706.829	76.12
707.014	76.81
707.199	77.16
707.384	77.47
707.568	78.27
707.753	78.44
707.938	78.36
708.123	78.79
708.307	79.35
708.492	79.51
708.677	79.64
708.861	80.43
709.046	81.08
709.231	80.86
709.415	80.77
709.6	81.15
709.784	81.46
709.969	81.41
710.153	81.77
710.338	82.11
710.522	82.81
710.707	82.59
710.891	82.84
711.076	83.54
711.26	84.06
711.445	84.26
711.629	84.57
711.813	84.75
711.998	84.9
712.182	84.55
712.366	84.85
712.551	85.1
712.735	85.21
712.919	84.87
713.103	85.38
713.288	84.57
713.472	84.41
713.656	84.66
713.84	85.32
714.024	85.54
714.208	86.06
714.393	86.52
714.577	86.89
714.761	86.64
714.945	87.04
715.129	87.35
715.313	87.39
715.497	87.89
715.681	88.16
715.865	88.39
716.049	88.72
716.233	89.39
716.417	89.19
716.601	89.36
716.785	89.49
716.968	89.15
717.152	89.32
717.336	89.84
717.52	89.78
717.704	89.64
717.888	90.42
718.071	90.32
718.255	90.01
718.439	90.43
718.622	90.33
718.806	90.23
718.99	90.43
719.174	90.15
719.357	90.08
719.541	90.81
719.724	90.66
719.908	90.36
720.092	90.59
720.275	90.96
720.459	90.52
720.642	90.91
720.826	91.13
721.009	91.91
721.193	92.04
721.376	92.68
721.559	92.6
721.743	92.29
721.926	91.88
722.11	91.36
722.293	90.81
722.476	91.21
722.66	91.46
722.843	91.68
723.026	92.12
723.21	92.24
723.393	91.54
723.576	91.83
723.759	91.68
723.942	91.78
724.126	92.43
724.309	93.2
724.492	93.67
724.675	93.75
724.858	93.99
725.041	94.09
725.224	94.34
725.407	93.83
725.59	93.78
725.774	94.07
725.957	93.7
726.14	94.01
726.322	93.85
726.505	94.21
726.688	94.14
726.871	94.71
727.054	94.76
727.237	95.37
727.42	95.42
727.603	95.09
727.786	94.79
727.968	93.97
728.151	94.07
728.334	94.29
728.517	94.49
728.699	94.95
728.882	95.32
729.065	95.57
729.248	95.55
729.43	95.99
729.613	96.48
729.796	96.33
729.978	97.17
730.161	97.13
730.343	96.57
730.526	96.45
730.708	96.68
730.891	96.12
731.073	96.16
731.256	96.51
731.438	95.88
731.621	96.31
731.803	95.92
731.986	96.63
732.168	96.93
732.35	96.99
732.533	96.81
732.715	97.76
732.898	97.74
733.08	98.23
733.262	98.59
733.444	98.47
733.627	97.47
733.809	97
733.991	96.88
734.173	97.19
734.355	97.22
734.538	97.3
734.72	97.95
734.902	98.31
735.084	98.89
735.266	99.47
735.448	99.73
735.63	99.63
735.812	98.68
735.994	96.91
736.176	96.85
736.358	97.37
736.54	96.77
736.722	97.74
736.904	98.98
737.086	98.99
737.268	98.66
737.45	98.88
737.632	98.01
737.814	97.33
737.995	98.15
738.177	97.74
738.359	97.99
738.541	98.48
738.723	99.45
738.904	98.69
739.086	99.76
739.268	99.71
739.449	99.25
739.631	98.73
739.813	99.13
739.994	98.76
740.176	99.18
740.358	99.62
740.539	100.29
740.721	100.35
740.902	100.35
741.084	99.36
741.265	99.44
741.447	99.31
741.628	98.08
741.81	97.56
741.991	98.13
742.172	98.84
742.354	98.57
742.535	100.06
742.717	100.76
742.898	100.82
743.079	99.78
743.261	98.65
743.442	98.22
743.623	97.85
743.804	97.16
743.986	98.23
744.167	99.07
744.348	97.85
744.529	97.87
744.71	98.84
744.891	98.65
745.073	99.05
745.254	100.47
745.435	99.75
745.616	98.78
745.797	97.56
745.978	97
746.159	97.18
746.34	98.28
746.521	98.65
746.702	98.14
746.883	99.27
747.064	98.23
747.245	97.15
747.426	97.49
747.606	97.97
747.787	96.85
747.968	97.56
748.149	99
748.33	99.28
748.51	100.65
748.691	100.62
748.872	101.07
749.053	100.86
749.233	100.93
749.414	99.56
749.595	99.12
749.775	99.35
749.956	98.89
750.137	97.77
750.317	98.66
750.498	100.72
750.678	100.04
750.859	99.29
751.04	98.92
751.22	98.69
751.4	97.32
751.581	97.22
751.761	97.85
751.942	99.3
752.122	99.7
752.303	98.62
752.483	97.78
752.663	96.96
752.844	95.18
753.024	94.21
753.204	95.02
753.385	95.05
753.565	95.69
753.745	97.32
753.925	97.6
754.106	98.1
754.286	98.08
754.466	97.57
754.646	97.18
754.826	96.61
755.006	96.06
755.187	97.19
755.367	97.79
755.547	98.06
755.727	97.11
755.907	96.54
756.087	95.8
756.267	94.9
756.447	95.18
756.627	96.96
756.807	96.69
756.987	95.17
757.167	95.84
757.346	94.22
757.526	92.6
757.706	92.67
757.886	92.79
758.066	93.01
758.246	93.57
758.425	95.2
758.605	96.59
758.785	98.66
758.965	99.95
759.144	101.52
759.324	100.99
759.504	100.62
759.683	99.95
759.863	99.02
760.043	97.63
760.222	96.87
760.402	95.55
760.581	95.48
760.761	92.63
760.94	92.92
761.12	93.74
761.299	94.49
761.479	93.66
761.658	94.77
761.838	94.56
762.017	94.96
762.197	94.54
762.376	95
762.555	94.84
762.735	94.91
762.914	93.34
763.093	93.96
763.273	93.13
763.452	93.21
763.631	92.22
763.81	93.89
763.99	93.67
764.169	94.81
764.348	96.3
764.527	96.67
764.706	94.34
764.885	93.99
765.064	95.27
765.243	95.38
765.423	96.02
765.602	95.76
765.781	96.15
765.96	94.81
766.139	93.72
766.318	92.7
766.497	94.36
766.676	95.65
766.854	95.38
767.033	95.45
767.212	94.46
767.391	94.01
767.57	93.1
767.749	89.94
767.928	89.49
768.106	90.68
768.285	89.35
768.464	89.32
768.643	92.71
768.821	93.67
769	92.63
769.179	93.92
769.357	92
769.536	91.33
769.715	91.5
769.893	94.04
770.072	93.34
770.25	95.6
770.429	96.14
770.607	94.56
770.786	93.65
770.964	93.13
771.143	92.93
771.321	91.55
771.5	93.39
771.678	92.99
771.857	93.01
772.035	93.55
772.213	94.5
772.392	90.74
772.57	91.13
772.748	91.91
772.927	92.29
773.105	92.72
773.283	92.4
773.461	90.97
773.64	89.48
773.818	88.24
773.996	86.23
774.174	89.7
774.352	88.8
774.531	91.24
774.709	90.28
774.887	91.92
775.065	92.5
775.243	93.75
775.421	92.59
775.599	91.62
775.777	91.21
775.955	89.02
776.133	92.09
776.311	91.9
776.489	93.17
776.667	94.16
776.844	94.86
777.022	92.44
777.2	94.25
777.378	94.58
777.556	92.75
777.734	89.16
777.911	86.51
778.089	86.43
778.267	84.4
778.445	82.64
778.622	83.93
778.8	88.98
778.978	87.57
779.155	87.28
779.333	88.09
779.511	87.48
779.688	81.69
779.866	80.48
780.043	82.7
780.221	86.12
780.398	86.1
780.576	88.47
780.753	88.99
780.931	87.61
781.108	86
781.286	88.88
781.463	89.13
781.64	88.72
781.818	88.06
781.995	86.2
782.172	84.45
782.35	84.24
782.527	86.53
782.704	88.15
782.882	93.48
783.059	91.47
783.236	91.03
783.413	88.59
783.59	88.47
783.768	83.31
783.945	87.28
784.122	87.11
784.299	87.89
784.476	87.02
784.653	89.46
784.83	86.32
785.007	85.88
785.184	86.28
785.361	86.53
785.538	83.8
785.715	84.86
785.892	84.67
786.069	86.66
786.246	86.27
786.423	86.85
786.6	87.24
786.776	88.99
786.953	86.04
787.13	85.97
787.307	89.77
787.484	90.82
787.66	89.34
787.837	90.9
788.014	93.1
788.191	89.49
788.367	90.38
788.544	91.86
788.721	91.11
788.897	87.4
789.074	87.96
789.25	82.21
789.427	81.05
789.603	76.05
789.78	73.44
789.956	72.99
790.133	76.85
790.309	79.61
790.486	83.75
790.662	91.56
790.839	94.26
791.015	92.08
791.192	88.46
791.368	89.65
791.544	85.89
791.721	83.23
791.897	83.52
792.073	85.08
792.249	84.07
792.426	84.46
792.602	82.35
792.778	83.95
792.954	85.92
793.13	86.96
793.307	87.83
793.483	91.91
793.659	91.07
793.835	83.14
794.011	82.8
794.187	78.48
794.363	76.33
794.539	73.15
794.715	79.01
794.891	81.2
795.067	83.1
795.243	79.1
795.419	82.18
795.595	81.37
795.771	81.85
795.947	81.48
796.122	83.39
796.298	83.76
796.474	83.4
796.65	77.9
796.826	79.34
797.001	83.41
797.177	79.29
797.353	80.03
797.529	81.51
797.704	81.53
797.88	78.13
798.056	81.92
798.231	86.32
798.407	82.22
798.582	78.21
798.758	79.99
798.934	81.2
799.109	75.36
799.285	79.96
799.46	83.38
799.636	83.38
799.811	82.12
799.986	80.71
800.162	80.57
800.337	82.7
800.513	82.88
800.688	86.5
800.863	91.37
801.039	94.95
801.214	90.9
801.389	90.64
801.565	86.03
801.74	89.78
801.915	85.79
802.09	85.51
802.265	91.35
802.441	88.43
802.616	76.87
802.791	74.98
802.966	76.18
803.141	66.78
803.316	68.12
803.491	75.17
803.666	76.12
803.841	77.92
804.016	79.34
804.191	83.72
804.366	86.69
804.541	89.64
804.716	87.36
804.891	87.17
805.066	90.43
805.241	82.6
805.416	73.62
805.591	70.63
805.765	67.69
805.94	61.26
806.115	61.55
806.29	67.33
806.464	67.38
806.639	68.69
806.814	65.43
806.989	64.92
807.163	62.58
807.338	62.12
807.512	66.17
807.687	76.95
807.862	71.52
808.036	71.9
808.211	72.57
808.385	66.94
808.56	63.71
808.734	69.94
808.909	73.08
809.083	72.44
809.258	80.87
809.432	80.64
809.606	80.2
809.781	65.48
809.955	66.97
810.13	67.15
810.304	69.65
810.478	72.82
810.652	79.32
810.827	76.37
811.001	80.11
811.175	80.96
811.349	84.15
811.524	80.34
811.698	85.64
811.872	77.85
812.046	75.31
812.22	61.91
812.394	73.82
812.568	74.71
812.742	81.98
812.916	76.34
813.09	75.81
813.264	68.81
813.438	70.99
813.612	67.15
813.786	66.72
813.96	80.11
814.134	76.43
814.308	70.35
814.482	73.37
814.656	77.82
814.83	71.55
815.003	70.07
815.177	69.54
815.351	65.54
815.525	57.51
815.698	61.52
815.872	73.99
816.046	79.64
816.219	74.06
816.393	83.6
816.567	83.88
816.74	82.54
816.914	74.14
817.088	76.46
817.261	76.43
817.435	80.48
817.608	82.3
817.782	82.66
817.955	94.02
818.129	87.64
818.302	81.87
818.475	69.23
818.649	74.88
818.822	72.99
818.996	73.17
819.169	61.84
819.342	59.98
819.516	60.87
819.689	61.22
819.862	66.64
820.035	70.17
820.209	69.57
820.382	81.38
820.555	82.4
820.728	73.96
820.901	80.04
821.075	92.2
821.248	81.38
821.421	69.2
821.594	66.76
821.767	57.48
821.94	66.64
822.113	63.91
822.286	70.65
822.459	83.35
822.632	85.85
822.805	80.63
822.978	74.68
823.151	71.07
823.324	65.54
823.496	70.82
823.669	66.42
823.842	68.25
824.015	77.39
824.188	73.15
824.361	70.66
824.533	71.92
824.706	73.62
824.879	64.11
825.051	70.51
825.224	64.35
825.397	70.26
825.569	65.95
825.742	57.64
825.915	62.73
826.087	74.05
826.26	68.98
826.432	77.24
826.605	82.82
826.777	61.87
826.95	38.92
827.122	43.91
827.295	33.24
827.467	36.67
827.64	34.65
827.812	43.23
827.984	44.37
828.157	45.13
828.329	43.31
828.501	53.75
828.674	52.65
828.846	48.95
829.018	54.49
829.19	52.56
829.363	42.54
829.535	43.71
829.707	40.4
829.879	41.68
830.051	39.38
830.223	48.34
830.395	55.12
830.568	46.01
830.74	55.57
830.912	51.37
831.084	54.65
831.256	52.18
831.428	58.17
831.6	59.78
831.772	67.9
831.943	83.62
832.115	96.22
832.287	107.86
832.459	91.07
832.631	94.14
832.803	88.26
832.975	88.31
833.146	80.56
833.318	98.12
833.49	106.12
833.662	99.12
833.833	76.67
834.005	68.21
834.177	69.41
834.348	71.15
834.52	62.01
834.692	62.38
834.863	76.79
835.035	62.45
835.206	42.45
835.378	36.84
835.549	49.86
835.721	38.52
835.892	41.45
836.064	41.4
836.235	66.34
836.407	55.17
836.578	62.71
836.749	65.68
836.921	64.33
837.092	56.94
837.264	54.28
837.435	47.07
837.606	40.76
837.777	49.81
837.949	29.22
838.12	22.73
838.291	25.55
838.462	22.3
838.633	-17.4
838.805	8.73
838.976	38.86
839.147	50.91
839.318	52.14
839.489	63.38
839.66	68.8
839.831	47.95
840.002	39.86
840.173	52.33
840.344	47.11
840.515	66.37
840.686	55.56
840.857	70.59
841.028	81.35
841.199	85.16
841.369	72.7
841.54	85.27
841.711	75.86
841.882	62.53
842.053	63.49
842.223	84.92
842.394	94.96
842.565	98.14
842.736	119.66
842.906	155.61
843.077	97.76
843.248	108.19
843.418	94.02
843.589	58.57
843.759	46.46
843.93	43.46
844.101	46.56
844.271	37.4
844.442	50.58
844.612	75.25
844.783	68.16
844.953	64.96
845.123	69.22
845.294	60.31
845.464	60.01
845.635	73.23
845.805	86.31
845.975	65.43
846.146	82.08
846.316	65.73
846.486	50.84
846.656	43.18
846.827	71.52
846.997	72.11
847.167	48.9
847.337	66.03
847.507	58.74
847.677	56.36
847.848	49.02
848.018	80.83
848.188	71.67
848.358	63.59
848.528	57.57
848.698	97.63
848.868	75.44
849.038	33.99
849.208	26.84
849.378	43.23
849.548	4.39
849.718	16.82
849.887	25.41
850.057	29.21
850.227	15.93
850.397	28.01
850.567	42.43
850.737	52.09
850.906	52.43
851.076	49.64
851.246	49.28
851.415	26.26
851.585	24.26
851.755	33.41
851.924	43.98
852.094	55.02
852.264	56.33
852.433	58.21
852.603	54.49
852.772	63.39
852.942	45.05
853.111	54.21
853.281	56.65
853.45	37.32
853.62	24.68
853.789	-2.05
853.959	12.82
854.128	35.33
854.297	64.14
854.467	143.13
854.636	206.2
854.805	107.5
854.975	100.39
855.144	62.95
855.313	46.29
855.482	51.2
855.652	82.83
855.821	110.75
855.99	110.18
856.159	82.1
856.328	82.51
856.497	83.08
856.667	64.52
856.836	90.5
857.005	85.07
857.174	63.32
857.343	16.89
857.512	21.76
857.681	-26.48
857.85	-11.04
858.019	6.2
858.188	44.21
858.356	55.52
858.525	69.9
858.694	77.18
858.863	73.78
859.032	56.31
859.201	31.88
859.369	15.14
859.538	16.29
859.707	10.22
859.876	1.49
860.044	48.19
860.213	51.98
860.382	62.96
860.55	89.89
860.719	85.53
860.888	96.12
861.056	99.03
861.225	101.33
861.393	84.76
861.562	109.84
861.73	85.23
861.899	62.64
862.067	49.34
862.236	47.27
862.404	29.95
862.572	42.89
862.741	53.29
862.909	62.25
863.078	51.87
863.246	69.01
863.414	76.43
863.582	96.72
863.751	66.18
863.919	86.51
864.087	75.66
864.255	53.88
864.424	35.99
864.592	30
864.76	37.76
864.928	50.5
865.096	38.34
865.264	47.34
865.432	50.86
865.6	38.31
865.768	24.48
865.936	43.78
866.104	39.05
866.272	32.63
866.44	29.14
866.608	40.08
866.776	40.69
866.944	60.2
867.112	76.07
867.28	82.13
867.448	72.81
867.615	65.14
867.783	63.39
867.951	53.38
868.119	55.68
868.286	83.41
868.454	83.89
868.622	85.1
868.789	101.83
868.957	90.33
869.125	75.67
869.292	65.5
869.46	55.45
869.627	52.43
869.795	62.33
869.963	73.36
870.13	45.17
870.298	39.75
870.465	49.74
870.632	12.92
870.8	-8.26
870.967	30.09
871.135	38.42
871.302	-2.4
871.469	37.5
871.637	33.77
871.804	15.08
871.971	21.49
872.139	46.09
872.306	53.07
872.473	67.65
872.64	85.06
872.807	72.76
872.975	48.99
873.142	53.46
873.309	39.91
873.476	45.72
873.643	29.74
873.81	55.92
873.977	42.69
874.144	29.41
874.311	24.63
874.478	38.22
874.645	26.72
874.812	29.15
874.979	54.59
875.146	45.16
875.313	41.9
875.48	62.74
875.647	64.23
875.813	71.73
875.98	84.83
876.147	74.5
876.314	67.62
876.481	62.73
876.647	55.18
876.814	49.99
876.981	58.86
877.147	36.76
877.314	33.53
877.481	50.9
877.647	40.87
877.814	33.9
877.98	34.42
878.147	9
878.314	-9.31
878.48	28.01
878.647	40.96
878.813	26.2
878.979	59.33
879.146	58.91
879.312	20.96
879.479	28
879.645	57.09
879.811	61.42
879.978	41.45
880.144	55.94
880.31	45.31
880.477	51.05
880.643	49.44
880.809	51.73
880.975	42.76
881.142	28.9
881.308	18.54
881.474	30.46
881.64	102.45
881.806	201.77
881.972	142.04
882.138	143.41
882.304	94.96
882.47	43.95
882.636	56.84
882.802	46.9
882.968	49.6
883.134	47.67
883.3	57.2
883.466	42.94
883.632	54.94
883.798	16.17
883.964	-65.99
884.129	-62.96
884.295	-79.1
884.461	19.87
884.627	43.77
884.793	68.57
884.958	82.29
885.124	79.26
885.29	65.1
885.455	57.59
885.621	47.84
885.787	12.91
885.952	20.43
886.118	2.81
886.283	0.17
886.449	5.39
886.614	19.3
886.78	32.47
886.945	52.02
887.111	66.6
887.276	62.96
887.442	68.13
887.607	52.88
887.773	7.66
887.938	-32.68
888.103	-25.16
888.269	2.38
888.434	3.55
888.599	5.49
888.764	14.53
888.93	0.15
889.095	-26.09
889.26	-1.31
889.425	12.05
889.59	23.96
889.756	29.69
889.921	43.4
890.086	45.79
890.251	37.94
890.416	43.59
890.581	31.41
890.746	5.66
890.911	2.48
891.076	24.82
891.241	22.25
891.406	45.26
891.571	44.8
891.736	42.97
891.901	63.29
892.065	55.35
892.23	67.22
892.395	89.12
892.56	89.67
892.725	33.86
892.889	37.88
893.054	15.23
893.219	24.61
893.384	38.33
893.548	40.39
893.713	38.65
893.878	46.94
