Data from Ofav_PP_Phys_369_Reflection_1.txt Node
Date: Tue Jul 27 19:07:20 EDT 2021
User: USUARIO
Spectrometer: FLMT01687
Trigger mode: 0
Integration Time (sec): 8.500000E-1
Scans to average: 2
Electric dark correction enabled: true
Nonlinearity correction enabled: false
Boxcar width: 2
XAxis mode: Wavelengths
Number of Pixels in Spectrum: 3648
>>>>>Begin Spectral Data<<<<<
179.494	-1600
179.716	-514.52
179.937	-348.03
180.158	-292.07
180.38	-368.56
180.601	-297.51
180.823	121.87
181.044	78.46
181.265	99.5
181.486	141.56
181.708	43.06
181.929	100.69
182.15	47.87
182.372	140.93
182.593	162.05
182.814	100.93
183.035	87.43
183.257	71.05
183.478	46.67
183.699	35.8
183.92	38.02
184.141	38.19
184.363	52.45
184.584	85.81
184.805	110.09
185.026	86.1
185.247	87.26
185.468	62.52
185.689	35.99
185.91	-6.09
186.132	-6.79
186.353	-0.93
186.574	-2.6
186.795	-4.87
187.016	11.34
187.237	8.35
187.458	25.55
187.679	37.11
187.9	27.18
188.121	29.72
188.342	37.07
188.563	42.25
188.784	57.64
189.005	69.05
189.226	66.27
189.447	67.84
189.667	53.89
189.888	55.19
190.109	58.51
190.33	72.55
190.551	48.32
190.772	40.66
190.993	31.54
191.214	19.53
191.434	11.06
191.655	29.99
191.876	35.28
192.097	40.32
192.318	52.77
192.538	80.27
192.759	72.76
192.98	66.39
193.201	66.8
193.421	79.02
193.642	44.5
193.863	27.48
194.083	30.05
194.304	7.88
194.525	-3
194.745	-55.25
194.966	-80.22
195.187	-105.63
195.407	-65.78
195.628	-52.43
195.848	39.37
196.069	38.45
196.29	76.02
196.51	66.99
196.731	64.22
196.951	47.74
197.172	44.96
197.392	45.18
197.613	43.41
197.833	36.21
198.054	49.26
198.274	36.38
198.495	43.07
198.715	31.85
198.936	21.68
199.156	39.28
199.377	75.96
199.597	73.51
199.817	53.88
200.038	30.95
200.258	-3.57
200.479	-4.02
200.699	6.33
200.919	3.45
201.14	13.5
201.36	6.45
201.58	29.79
201.801	20.49
202.021	31.83
202.241	32.05
202.461	38.89
202.682	16.7
202.902	19.92
203.122	37.23
203.342	61.49
203.563	51.64
203.783	53.39
204.003	45.27
204.223	39
204.443	14.5
204.663	-16.2
204.884	-1.21
205.104	23.04
205.324	42.46
205.544	49.87
205.764	26.87
205.984	3.33
206.204	-21.34
206.424	-74.18
206.644	-41.6
206.864	-3.01
207.084	9.01
207.304	15.38
207.525	14.68
207.745	21.02
207.964	38.18
208.184	35.88
208.404	28.93
208.624	46.6
208.844	67.75
209.064	61.31
209.284	67.38
209.504	82.24
209.724	99.93
209.944	50.79
210.164	79.24
210.384	124.78
210.604	92.61
210.823	51.53
211.043	49.58
211.263	44.38
211.483	43.31
211.703	48.8
211.922	69.12
212.142	103.6
212.362	52.76
212.582	44.92
212.801	43.54
213.021	15.83
213.241	17.57
213.461	24.59
213.68	26.84
213.9	-0.64
214.12	25.45
214.339	33.69
214.559	36.59
214.779	34.28
214.998	35.3
215.218	21.43
215.438	19.59
215.657	29.6
215.877	19.31
216.096	20.12
216.316	44.01
216.535	45.88
216.755	59.1
216.974	94.53
217.194	105.35
217.413	75.72
217.633	82.72
217.852	60.95
218.072	34.33
218.291	24.94
218.511	22.73
218.73	13.21
218.95	9.75
219.169	14.46
219.389	5.73
219.608	31.4
219.827	48.4
220.047	42.98
220.266	59.17
220.485	61.34
220.705	65.62
220.924	61.19
221.143	52.54
221.363	33.03
221.582	35.77
221.801	13.01
222.021	20.81
222.24	34.61
222.459	46.68
222.678	63.58
222.897	66.7
223.117	83.1
223.336	77.15
223.555	54.71
223.774	25.28
223.993	25.99
224.213	21.34
224.432	49.87
224.651	64.58
224.87	68.3
225.089	53.86
225.308	46.87
225.527	38.7
225.746	30.93
225.965	40.73
226.184	46.56
226.404	32.53
226.623	24.93
226.842	27.44
227.061	24.31
227.28	35.09
227.499	51.08
227.718	41.74
227.936	29.09
228.155	37.6
228.374	42.46
228.593	45.13
228.812	57.69
229.031	48.77
229.25	50.34
229.469	22.4
229.688	-12.92
229.907	-44.41
230.125	-4.54
230.344	-1.94
230.563	34.8
230.782	55.16
231.001	59.89
231.22	58.68
231.438	42.05
231.657	30.13
231.876	14.64
232.095	28.86
232.313	38.49
232.532	51.72
232.751	46.76
232.969	57.63
233.188	57
233.407	41.8
233.625	51.03
233.844	39.55
234.063	44.53
234.281	52.71
234.5	50.35
234.719	62.03
234.937	55.04
235.156	62.49
235.374	38.84
235.593	36.83
235.811	25.21
236.03	35.37
236.249	4.84
236.467	8.52
236.686	30.8
236.904	23.26
237.123	14.11
237.341	32.76
237.559	41.78
237.778	32.57
237.996	41.38
238.215	46.3
238.433	47.14
238.652	44.33
238.87	45.75
239.088	28.77
239.307	37.55
239.525	9.79
239.743	1.91
239.962	3.29
240.18	10.81
240.398	-7.3
240.617	2.06
240.835	11.61
241.053	5.02
241.271	-6.92
241.49	25.37
241.708	32.53
241.926	14.6
242.144	10.04
242.363	15.68
242.581	11.26
242.799	-5.55
243.017	-1.9
243.235	14.4
243.453	45.67
243.672	48.26
243.89	49.38
244.108	46.47
244.326	43.33
244.544	29.15
244.762	19.18
244.98	35.46
245.198	19.14
245.416	25.9
245.634	40.36
245.852	58.14
246.07	83.95
246.288	98.85
246.506	89.23
246.724	77.15
246.942	72.16
247.16	47.1
247.378	30.76
247.596	31.94
247.814	34.09
248.032	18.26
248.25	13.69
248.468	34.35
248.685	32.39
248.903	23.55
249.121	26.75
249.339	32.31
249.557	32.59
249.775	18.12
249.992	20.98
250.21	19.24
250.428	11.11
250.646	-13.71
250.863	15.36
251.081	23.53
251.299	15.63
251.517	29.31
251.734	47.59
251.952	11.63
252.17	3.81
252.387	-6.63
252.605	25.94
252.823	25.99
253.04	43.69
253.258	51
253.475	60.37
253.693	62.69
253.911	86.7
254.128	74.66
254.346	77.82
254.563	68.25
254.781	43.35
254.998	24.52
255.216	-4.15
255.433	3.87
255.651	24.42
255.868	33.44
256.086	28.26
256.303	47.54
256.521	39.25
256.738	33.23
256.956	27.72
257.173	36.06
257.39	39.52
257.608	43.06
257.825	50.44
258.043	51.82
258.26	55.34
258.477	45.83
258.695	39.55
258.912	34.85
259.129	36.25
259.346	9.67
259.564	30.28
259.781	58.17
259.998	35.49
260.216	51.41
260.433	57.32
260.65	53.95
260.867	42.4
261.084	57.12
261.302	30.45
261.519	38.33
261.736	29.08
261.953	32.81
262.17	31.31
262.387	27.49
262.604	40.08
262.822	50.13
263.039	48.23
263.256	51.29
263.473	75.24
263.69	71.33
263.907	44.61
264.124	46.83
264.341	51.16
264.558	38.31
264.775	12.4
264.992	35.81
265.209	28.49
265.426	22.79
265.643	26.37
265.86	25.66
266.077	20.41
266.294	28.11
266.51	31.82
266.727	22.53
266.944	20.3
267.161	-35.79
267.378	-65.54
267.595	-65.08
267.812	-46.61
268.028	-20.14
268.245	54.24
268.462	79.83
268.679	68.79
268.896	68.72
269.112	36.53
269.329	44.57
269.546	56.39
269.763	41.01
269.979	22.1
270.196	42.53
270.413	34.78
270.629	30.05
270.846	50.31
271.063	49.68
271.279	39.44
271.496	39.64
271.712	17.13
271.929	-3.54
272.146	-23.71
272.362	12.55
272.579	17.44
272.795	35.86
273.012	43.39
273.228	49.44
273.445	41.36
273.661	40.88
273.878	26.4
274.094	15.73
274.311	32.24
274.527	30.2
274.744	16.91
274.96	11.56
275.177	9.21
275.393	-3.64
275.609	12.96
275.826	26.17
276.042	34.17
276.259	49.98
276.475	45.84
276.691	21.87
276.908	18.99
277.124	18.65
277.34	17.94
277.557	-1.3
277.773	13.02
277.989	11.94
278.205	14.35
278.422	1.28
278.638	2.77
278.854	15.14
279.07	20.61
279.286	5.79
279.503	31.29
279.719	51.82
279.935	52.1
280.151	48.63
280.367	66.9
280.583	66.19
280.799	65.82
281.016	61.03
281.232	63.87
281.448	53.61
281.664	33.66
281.88	20.75
282.096	22.33
282.312	24.99
282.528	21.81
282.744	34.49
282.96	38.03
283.176	39.32
283.392	47.55
283.608	63.83
283.824	42.52
284.04	13.65
284.256	25.58
284.471	17.94
284.687	10.1
284.903	32.06
285.119	48.43
285.335	36.26
285.551	34.53
285.767	52.21
285.982	44.16
286.198	53.28
286.414	63.33
286.63	64.28
286.846	39.41
287.061	35.07
287.277	30.3
287.493	12.87
287.709	12.93
287.924	24.34
288.14	39.95
288.356	57.95
288.571	77.36
288.787	68.54
289.003	66.52
289.218	65.65
289.434	57.01
289.65	52.94
289.865	29.95
290.081	33.22
290.296	14.7
290.512	14.37
290.727	19.43
290.943	54.48
291.159	69.78
291.374	89.88
291.59	61.05
291.805	52.26
292.021	35.86
292.236	24.28
292.451	18.24
292.667	27.63
292.882	21.28
293.098	18.82
293.313	25.23
293.529	38.45
293.744	32.87
293.959	40.92
294.175	50.99
294.39	43.77
294.605	41.42
294.821	33.6
295.036	14.72
295.251	4.04
295.467	7
295.682	-12.69
295.897	4.99
296.112	21.73
296.328	13.05
296.543	32.14
296.758	32.32
296.973	37.37
297.188	41.18
297.404	34.02
297.619	30.75
297.834	43.85
298.049	33.89
298.264	33.55
298.479	33.24
298.694	37.26
298.909	19.89
299.125	31.89
299.34	22.88
299.555	45.35
299.77	30.77
299.985	31.67
300.2	34.56
300.415	49.89
300.63	34.55
300.845	55.81
301.06	53.52
301.275	46.37
301.49	48.6
301.704	24.3
301.919	23.47
302.134	43.23
302.349	34.34
302.564	20.43
302.779	18.41
302.994	14.91
303.209	7.35
303.423	-3.71
303.638	-5.7
303.853	10.18
304.068	10.07
304.283	7.31
304.497	8.45
304.712	29.5
304.927	26.18
305.142	32.81
305.356	23.01
305.571	42.63
305.786	32.42
306	28.01
306.215	27.68
306.43	32.19
306.644	44.09
306.859	42.68
307.074	56.14
307.288	48.37
307.503	56.67
307.717	37.24
307.932	25.69
308.147	24.08
308.361	22.66
308.576	13.13
308.79	19.1
309.005	21.16
309.219	16.82
309.434	17.98
309.648	17.91
309.863	15.42
310.077	23.32
310.292	19.41
310.506	14.83
310.72	28.16
310.935	21.19
311.149	15.2
311.364	59.22
311.578	47.54
311.792	28.75
312.007	40.44
312.221	36.71
312.435	26.08
312.649	37.35
312.864	33.71
313.078	1.53
313.292	10.66
313.507	20.83
313.721	44.02
313.935	46.06
314.149	59.43
314.363	52.97
314.578	41.5
314.792	27.61
315.006	31.18
315.22	18.11
315.434	11.02
315.648	17.42
315.862	8.73
316.077	-5.63
316.291	9.16
316.505	17.07
316.719	17.53
316.933	30.17
317.147	29.73
317.361	28.56
317.575	18.85
317.789	2.07
318.003	-0
318.217	14.72
318.431	1.2
318.645	14.25
318.859	38.71
319.073	29.6
319.287	33.89
319.5	39.55
319.714	14.73
319.928	6.16
320.142	5.75
320.356	14.3
320.57	27.66
320.784	49.37
320.997	55.58
321.211	59.5
321.425	52.94
321.639	32.11
321.853	24.06
322.066	13.3
322.28	-6.14
322.494	-15.9
322.707	-1.87
322.921	6.71
323.135	3.16
323.349	14.87
323.562	24.14
323.776	12.08
323.989	-10.96
324.203	-4.48
324.417	-17.56
324.63	1.63
324.844	18.77
325.057	35.01
325.271	35.52
325.485	37.89
325.698	39.46
325.912	32.68
326.125	38.41
326.339	45.5
326.552	46.02
326.766	29.84
326.979	29.82
327.193	20.88
327.406	20.28
327.619	17.1
327.833	25.18
328.046	40.72
328.26	37.61
328.473	30.65
328.686	37.3
328.9	45.23
329.113	41.25
329.326	47.62
329.54	45.73
329.753	28.44
329.966	10.6
330.179	8.92
330.393	15.55
330.606	11.41
330.819	21.03
331.032	7.17
331.246	14.81
331.459	10.34
331.672	18.24
331.885	14.6
332.098	46.33
332.311	55.49
332.525	56.59
332.738	37.71
332.951	44.97
333.164	24.1
333.377	2.68
333.59	6.93
333.803	10.23
334.016	-0
334.229	-4.31
334.442	7.41
334.655	19.05
334.868	34.59
335.081	28.38
335.294	41.07
335.507	42.56
335.72	30.07
335.933	13.62
336.146	15.55
336.359	8.4
336.572	13.01
336.785	6.62
336.997	24.29
337.21	60.28
337.423	67.91
337.636	51.66
337.849	34.47
338.062	17.72
338.274	11.5
338.487	19.2
338.7	18.92
338.913	28.76
339.125	34.85
339.338	26.46
339.551	8.92
339.763	29.01
339.976	33.5
340.189	29.01
340.402	21.59
340.614	14.03
340.827	-1.67
341.039	-22.21
341.252	-21.81
341.465	-32.18
341.677	-6.85
341.89	9.04
342.102	26.41
342.315	32.85
342.527	35.31
342.74	37.98
342.952	20.72
343.165	19.74
343.377	16.17
343.59	16.95
343.802	3.97
344.015	8.36
344.227	16.34
344.44	-9.39
344.652	-12.58
344.864	3.8
345.077	23.51
345.289	9.59
345.502	18.29
345.714	27.18
345.926	18.15
346.139	21.84
346.351	24.51
346.563	21.58
346.775	19.99
346.988	30.96
347.2	12.31
347.412	20.67
347.624	12.24
347.837	0.78
348.049	-10.69
348.261	3.48
348.473	1.61
348.685	19.02
348.897	27.62
349.11	24.11
349.322	20.51
349.534	24.76
349.746	31.96
349.958	34.17
350.17	55.27
350.382	53.98
350.594	30.33
350.806	34.43
351.018	27.77
351.23	16.01
351.442	3.15
351.654	38.14
351.866	14.02
352.078	19.29
352.29	22.61
352.502	41
352.714	40.01
352.926	48.12
353.138	53.9
353.35	42.96
353.561	41.34
353.773	37.38
353.985	29.37
354.197	32.08
354.409	39.37
354.621	33.73
354.832	46.92
355.044	46.86
355.256	47.19
355.468	60.91
355.679	63.97
355.891	57.13
356.103	61.47
356.314	56.85
356.526	45.97
356.738	41.64
356.949	33.08
357.161	37.18
357.373	31.03
357.584	34.4
357.796	40.72
358.008	38.1
358.219	34.09
358.431	42.05
358.642	27.54
358.854	24.68
359.065	25.27
359.277	30.04
359.488	30.35
359.7	31.77
359.911	35.28
360.123	41.23
360.334	36.64
360.546	12.6
360.757	24.18
360.969	27.53
361.18	21.64
361.391	19.57
361.603	19.23
361.814	7.32
362.025	8.99
362.237	9.63
362.448	9.72
362.659	16.88
362.871	29.98
363.082	7.01
363.293	16.64
363.504	20.49
363.716	29.95
363.927	-1.33
364.138	14.67
364.349	2.81
364.56	-12.84
364.772	-7.28
364.983	17.5
365.194	23.84
365.405	29.88
365.616	34.75
365.827	33.98
366.038	29.57
366.25	22.47
366.461	19.93
366.672	18.31
366.883	17.19
367.094	13.47
367.305	14.01
367.516	0.45
367.727	10.31
367.938	0.52
368.149	9.34
368.36	10.68
368.571	13.63
368.781	23.65
368.992	23.39
369.203	12.71
369.414	15.76
369.625	25.03
369.836	11.29
370.047	10.46
370.258	22.13
370.468	19.5
370.679	14.3
370.89	16.94
371.101	13.12
371.312	17.38
371.522	17.74
371.733	26.62
371.944	28.32
372.155	37.44
372.365	18.16
372.576	20.87
372.787	25.93
372.997	30.9
373.208	29.02
373.419	42.56
373.629	42.5
373.84	33.79
374.05	21.26
374.261	17.65
374.472	18.18
374.682	20.52
374.893	27.58
375.103	34.29
375.314	37.64
375.524	43.95
375.735	35.24
375.945	26.76
376.156	35.48
376.366	43.46
376.577	24.32
376.787	23.21
376.997	30.82
377.208	29.09
377.418	25.33
377.629	39.46
377.839	47.27
378.049	41.66
378.26	34.77
378.47	35.2
378.68	32.88
378.89	30.15
379.101	20.39
379.311	13.87
379.521	11.28
379.732	7.4
379.942	23.18
380.152	25.8
380.362	41.36
380.572	23.11
380.783	21.11
380.993	1.32
381.203	-0.58
381.413	-18.68
381.623	-5.29
381.833	-7.35
382.043	2.47
382.253	14.92
382.463	24.61
382.674	32.43
382.884	34.26
383.094	26.98
383.304	23.84
383.514	22.03
383.724	15.52
383.934	18.84
384.144	18.37
384.353	20.15
384.563	24.47
384.773	23.74
384.983	15.67
385.193	15.53
385.403	10.09
385.613	6.35
385.823	10.85
386.033	13.53
386.242	19.84
386.452	20.04
386.662	26.4
386.872	26.13
387.082	25.74
387.291	15.92
387.501	15.18
387.711	5.96
387.921	5.24
388.13	8.68
388.34	12.66
388.55	13.55
388.759	11.48
388.969	11.87
389.179	10.86
389.388	11.44
389.598	14.27
389.807	15.75
390.017	16.31
390.227	17.33
390.436	16.56
390.646	12.92
390.855	11.06
391.065	8.41
391.274	7.13
391.484	4.95
391.693	6.47
391.903	9.97
392.112	9.39
392.322	7.31
392.531	8.41
392.74	6.84
392.95	6.86
393.159	8.46
393.369	9.84
393.578	10.95
393.787	10.14
393.997	9.34
394.206	9.85
394.415	9.24
394.625	7.88
394.834	8.77
395.043	7.88
395.252	7.13
395.462	8.29
395.671	8.5
395.88	9.14
396.089	9.51
396.298	9.34
396.508	8.7
396.717	9.51
396.926	8.63
397.135	8.45
397.344	8.61
397.553	8.64
397.762	8.03
397.971	7.87
398.181	7.9
398.39	7.13
398.599	7.06
398.808	6.9
399.017	7.13
399.226	6.98
399.435	7.38
399.644	7.69
399.853	7.98
400.062	8.05
400.27	7.72
400.479	7.3
400.688	7.02
400.897	6.8
401.106	6.85
401.315	7.28
401.524	7.55
401.733	7.5
401.941	7.57
402.15	7.43
402.359	7.32
402.568	7.28
402.777	7.29
402.985	7.14
403.194	7.4
403.403	7.54
403.612	7.43
403.82	7.4
404.029	7.51
404.238	7.4
404.446	7.32
404.655	7.55
404.864	7.67
405.072	7.68
405.281	7.44
405.489	7.27
405.698	7.25
405.906	7.35
406.115	7.05
406.324	7.06
406.532	7.04
406.741	6.91
406.949	6.81
407.158	6.89
407.366	6.83
407.574	6.97
407.783	6.87
407.991	6.8
408.2	6.83
408.408	7.02
408.617	6.94
408.825	6.96
409.033	6.83
409.242	6.76
409.45	6.62
409.658	6.64
409.867	6.68
410.075	6.71
410.283	6.79
410.491	6.75
410.7	6.67
410.908	6.66
411.116	6.74
411.324	6.75
411.533	6.74
411.741	6.58
411.949	6.45
412.157	6.26
412.365	6.35
412.573	6.24
412.781	6.26
412.99	6.29
413.198	6.48
413.406	6.33
413.614	6.51
413.822	6.57
414.03	6.62
414.238	6.39
414.446	6.43
414.654	6.22
414.862	6.25
415.07	6.15
415.278	6.28
415.486	6.11
415.694	6.28
415.902	6.23
416.109	6.32
416.317	6.15
416.525	6.14
416.733	6.01
416.941	6.19
417.149	5.93
417.357	6.17
417.564	6.08
417.772	6.29
417.98	6.1
418.188	6.41
418.395	6.18
418.603	6.27
418.811	6.11
419.019	6.05
419.226	6.07
419.434	6.3
419.642	6.33
419.849	6.31
420.057	6.35
420.265	6.31
420.472	6.1
420.68	6.04
420.887	6.1
421.095	6.03
421.302	5.86
421.51	6.02
421.717	6.01
421.925	5.92
422.132	5.93
422.34	5.89
422.547	5.8
422.755	6.12
422.962	6.09
423.17	6.23
423.377	6.14
423.585	6.23
423.792	6.03
423.999	6.12
424.207	6.01
424.414	6.01
424.621	5.84
424.829	5.64
425.036	5.63
425.243	5.57
425.451	5.5
425.658	5.54
425.865	5.76
426.072	5.56
426.28	5.66
426.487	5.79
426.694	5.78
426.901	5.78
427.108	5.79
427.315	5.65
427.523	5.42
427.73	5.26
427.937	5.09
428.144	5.27
428.351	5.22
428.558	5.51
428.765	5.6
428.972	5.67
429.179	5.54
429.386	5.62
429.593	5.48
429.8	5.45
430.007	5.47
430.214	5.44
430.421	5.45
430.628	5.55
430.835	5.67
431.042	5.54
431.249	5.76
431.456	5.91
431.662	5.97
431.869	5.99
432.076	5.95
432.283	5.81
432.49	5.63
432.697	5.55
432.903	5.37
433.11	5.66
433.317	5.61
433.524	5.64
433.73	5.54
433.937	5.52
434.144	5.25
434.35	5.35
434.557	5.35
434.764	5.37
434.97	5.47
435.177	5.67
435.384	5.48
435.59	5.58
435.797	5.66
436.003	5.67
436.21	5.45
436.416	5.48
436.623	5.33
436.829	5.23
437.036	5.21
437.242	5.22
437.449	5.18
437.655	5.28
437.862	5.43
438.068	5.38
438.275	5.5
438.481	5.5
438.687	5.53
438.894	5.45
439.1	5.41
439.307	5.39
439.513	5.44
439.719	5.44
439.926	5.42
440.132	5.58
440.338	5.54
440.544	5.52
440.751	5.47
440.957	5.55
441.163	5.4
441.369	5.49
441.575	5.52
441.782	5.52
441.988	5.49
442.194	5.57
442.4	5.57
442.606	5.58
442.812	5.61
443.018	5.48
443.224	5.5
443.431	5.4
443.637	5.45
443.843	5.36
444.049	5.37
444.255	5.24
444.461	5.2
444.667	5.07
444.873	5.15
445.079	5.28
445.284	5.37
445.49	5.47
445.696	5.53
445.902	5.5
446.108	5.49
446.314	5.47
446.52	5.36
446.726	5.44
446.931	5.42
447.137	5.4
447.343	5.33
447.549	5.4
447.755	5.37
447.96	5.44
448.166	5.46
448.372	5.56
448.578	5.57
448.783	5.5
448.989	5.52
449.195	5.43
449.4	5.45
449.606	5.31
449.812	5.29
450.017	5.23
450.223	5.29
450.428	5.15
450.634	5.28
450.84	5.3
451.045	5.41
451.251	5.46
451.456	5.55
451.662	5.54
451.867	5.55
452.073	5.43
452.278	5.36
452.483	5.34
452.689	5.37
452.894	5.47
453.1	5.43
453.305	5.49
453.51	5.57
453.716	5.5
453.921	5.49
454.127	5.61
454.332	5.48
454.537	5.47
454.742	5.45
454.948	5.36
455.153	5.36
455.358	5.38
455.563	5.44
455.769	5.37
455.974	5.35
456.179	5.31
456.384	5.22
456.589	5.23
456.795	5.31
457	5.34
457.205	5.27
457.41	5.46
457.615	5.35
457.82	5.28
458.025	5.31
458.23	5.39
458.435	5.37
458.64	5.31
458.845	5.44
459.05	5.38
459.255	5.41
459.46	5.35
459.665	5.43
459.87	5.47
460.075	5.62
460.28	5.61
460.485	5.71
460.69	5.67
460.895	5.69
461.099	5.65
461.304	5.61
461.509	5.57
461.714	5.68
461.919	5.72
462.123	5.63
462.328	5.63
462.533	5.64
462.738	5.54
462.942	5.5
463.147	5.56
463.352	5.43
463.556	5.52
463.761	5.53
463.966	5.41
464.17	5.43
464.375	5.59
464.58	5.57
464.784	5.55
464.989	5.63
465.193	5.58
465.398	5.65
465.602	5.64
465.807	5.63
466.011	5.68
466.216	5.68
466.42	5.61
466.625	5.62
466.829	5.71
467.034	5.67
467.238	5.75
467.443	5.77
467.647	5.7
467.851	5.65
468.056	5.58
468.26	5.55
468.464	5.52
468.669	5.49
468.873	5.49
469.077	5.54
469.282	5.5
469.486	5.48
469.69	5.56
469.894	5.56
470.099	5.63
470.303	5.64
470.507	5.67
470.711	5.69
470.915	5.77
471.119	5.74
471.324	5.85
471.528	5.86
471.732	5.91
471.936	5.96
472.14	6
472.344	5.95
472.548	5.93
472.752	5.84
472.956	5.81
473.16	5.82
473.364	5.71
473.568	5.73
473.772	5.75
473.976	5.7
474.18	5.58
474.384	5.65
474.588	5.69
474.792	5.7
474.995	5.63
475.199	5.63
475.403	5.61
475.607	5.61
475.811	5.56
476.015	5.59
476.218	5.63
476.422	5.65
476.626	5.64
476.83	5.67
477.033	5.64
477.237	5.71
477.441	5.66
477.644	5.58
477.848	5.57
478.052	5.56
478.255	5.52
478.459	5.53
478.663	5.59
478.866	5.57
479.07	5.64
479.273	5.64
479.477	5.65
479.681	5.73
479.884	5.71
480.088	5.69
480.291	5.76
480.495	5.81
480.698	5.73
480.901	5.78
481.105	5.76
481.308	5.65
481.512	5.62
481.715	5.54
481.919	5.46
482.122	5.44
482.325	5.47
482.529	5.47
482.732	5.49
482.935	5.49
483.138	5.56
483.342	5.48
483.545	5.49
483.748	5.55
483.952	5.62
484.155	5.53
484.358	5.66
484.561	5.64
484.764	5.62
484.967	5.67
485.171	5.74
485.374	5.68
485.577	5.73
485.78	5.78
485.983	5.72
486.186	5.64
486.389	5.66
486.592	5.62
486.795	5.62
486.998	5.65
487.201	5.73
487.404	5.81
487.607	5.85
487.81	5.9
488.013	5.88
488.216	6.03
488.419	5.95
488.622	5.93
488.825	5.87
489.028	5.94
489.231	5.85
489.433	5.88
489.636	5.95
489.839	6.05
490.042	6.03
490.245	6.06
490.447	6.11
490.65	6.12
490.853	6.07
491.056	6.12
491.258	6.18
491.461	6.18
491.664	6.19
491.866	6.29
492.069	6.4
492.272	6.42
492.474	6.62
492.677	6.68
492.879	6.7
493.082	6.64
493.285	6.71
493.487	6.62
493.69	6.69
493.892	6.8
494.095	6.98
494.297	7.01
494.5	7.17
494.702	7.27
494.905	7.38
495.107	7.4
495.309	7.51
495.512	7.49
495.714	7.57
495.917	7.62
496.119	7.68
496.321	7.73
496.524	7.88
496.726	7.89
496.928	7.93
497.13	8.08
497.333	8.17
497.535	8.23
497.737	8.31
497.939	8.37
498.142	8.34
498.344	8.36
498.546	8.39
498.748	8.46
498.95	8.55
499.152	8.59
499.355	8.61
499.557	8.68
499.759	8.77
499.961	8.83
500.163	8.99
500.365	9.11
500.567	9.14
500.769	9.15
500.971	9.2
501.173	9.17
501.375	9.27
501.577	9.38
501.779	9.46
501.981	9.48
502.183	9.52
502.385	9.42
502.587	9.35
502.788	9.29
502.99	9.28
503.192	9.24
503.394	9.31
503.596	9.35
503.798	9.42
503.999	9.44
504.201	9.45
504.403	9.38
504.605	9.38
504.806	9.3
505.008	9.29
505.21	9.24
505.411	9.13
505.613	9.05
505.815	9.07
506.016	8.97
506.218	8.96
506.42	9.01
506.621	8.97
506.823	8.92
507.024	8.95
507.226	8.92
507.427	8.85
507.629	8.79
507.83	8.72
508.032	8.63
508.233	8.62
508.435	8.65
508.636	8.73
508.838	8.66
509.039	8.63
509.24	8.63
509.442	8.57
509.643	8.41
509.845	8.4
510.046	8.38
510.247	8.31
510.448	8.35
510.65	8.4
510.851	8.35
511.052	8.3
511.254	8.26
511.455	8.16
511.656	8.13
511.857	8.06
512.058	8.04
512.26	8
512.461	7.97
512.662	7.9
512.863	7.81
513.064	7.76
513.265	7.64
513.466	7.64
513.667	7.63
513.868	7.64
514.069	7.61
514.27	7.61
514.471	7.57
514.672	7.57
514.873	7.58
515.074	7.56
515.275	7.58
515.476	7.52
515.677	7.41
515.878	7.42
516.079	7.38
516.28	7.35
516.481	7.33
516.682	7.32
516.882	7.29
517.083	7.32
517.284	7.33
517.485	7.28
517.686	7.26
517.886	7.17
518.087	7.11
518.288	7.06
518.488	7.08
518.689	7.07
518.89	7.09
519.091	7.14
519.291	7.1
519.492	7.13
519.692	7.06
519.893	7.1
520.094	7
520.294	7.02
520.495	7.01
520.695	7.1
520.896	7.02
521.096	7.03
521.297	7.08
521.497	7.04
521.698	6.96
521.898	6.97
522.099	7
522.299	6.9
522.499	6.89
522.7	6.86
522.9	6.86
523.101	6.79
523.301	6.8
523.501	6.81
523.702	6.9
523.902	6.93
524.102	7.06
524.302	7.08
524.503	7.09
524.703	7.08
524.903	7.03
525.103	6.96
525.304	6.88
525.504	6.81
525.704	6.7
525.904	6.65
526.104	6.62
526.304	6.68
526.504	6.71
526.705	6.73
526.905	6.78
527.105	6.78
527.305	6.77
527.505	6.73
527.705	6.76
527.905	6.68
528.105	6.67
528.305	6.6
528.505	6.63
528.705	6.65
528.905	6.67
529.105	6.63
529.304	6.64
529.504	6.65
529.704	6.64
529.904	6.68
530.104	6.7
530.304	6.73
530.503	6.74
530.703	6.69
530.903	6.68
531.103	6.71
531.303	6.74
531.502	6.72
531.702	6.72
531.902	6.68
532.101	6.63
532.301	6.57
532.501	6.55
532.7	6.56
532.9	6.55
533.1	6.59
533.299	6.58
533.499	6.58
533.698	6.54
533.898	6.57
534.097	6.57
534.297	6.6
534.496	6.57
534.696	6.62
534.895	6.61
535.095	6.62
535.294	6.6
535.494	6.61
535.693	6.69
535.892	6.71
536.092	6.74
536.291	6.79
536.491	6.83
536.69	6.74
536.889	6.7
537.088	6.59
537.288	6.58
537.487	6.62
537.686	6.67
537.886	6.73
538.085	6.81
538.284	6.77
538.483	6.73
538.682	6.7
538.882	6.67
539.081	6.62
539.28	6.66
539.479	6.59
539.678	6.62
539.877	6.64
540.076	6.68
540.275	6.63
540.474	6.64
540.673	6.66
540.872	6.67
541.071	6.66
541.27	6.74
541.469	6.76
541.668	6.74
541.867	6.7
542.066	6.67
542.265	6.73
542.464	6.71
542.663	6.74
542.862	6.79
543.06	6.77
543.259	6.7
543.458	6.74
543.657	6.75
543.856	6.78
544.054	6.86
544.253	6.8
544.452	6.8
544.651	6.76
544.849	6.74
545.048	6.74
545.247	6.84
545.445	6.88
545.644	6.9
545.843	6.9
546.041	6.9
546.24	6.88
546.438	6.9
546.637	6.9
546.836	6.91
547.034	6.95
547.233	6.99
547.431	6.99
547.63	7.06
547.828	7.06
548.027	7.08
548.225	7.04
548.423	7.05
548.622	7.02
548.82	7.06
549.019	7.04
549.217	7.06
549.415	7.08
549.614	7.08
549.812	7.07
550.01	7.1
550.209	7.18
550.407	7.13
550.605	7.15
550.803	7.13
551.002	7.12
551.2	7.08
551.398	7.18
551.596	7.21
551.794	7.26
551.993	7.27
552.191	7.25
552.389	7.22
552.587	7.25
552.785	7.25
552.983	7.31
553.181	7.36
553.379	7.38
553.577	7.41
553.775	7.46
553.973	7.46
554.171	7.41
554.369	7.45
554.567	7.46
554.765	7.51
554.963	7.5
555.161	7.61
555.359	7.68
555.557	7.76
555.755	7.77
555.952	7.84
556.15	7.84
556.348	7.83
556.546	7.79
556.744	7.8
556.941	7.78
557.139	7.8
557.337	7.89
557.535	7.91
557.732	7.93
557.93	8.02
558.128	8.05
558.325	8.05
558.523	8.02
558.721	8.07
558.918	8.06
559.116	8.15
559.313	8.16
559.511	8.28
559.708	8.28
559.906	8.37
560.104	8.36
560.301	8.38
560.498	8.4
560.696	8.44
560.893	8.45
561.091	8.49
561.288	8.63
561.486	8.62
561.683	8.64
561.88	8.6
562.078	8.64
562.275	8.48
562.473	8.54
562.67	8.58
562.867	8.67
563.064	8.72
563.262	8.81
563.459	8.86
563.656	8.84
563.853	8.9
564.051	8.85
564.248	8.85
564.445	8.88
564.642	8.93
564.839	8.93
565.036	9.05
565.234	9.15
565.431	9.15
565.628	9.23
565.825	9.2
566.022	9.24
566.219	9.27
566.416	9.28
566.613	9.31
566.81	9.44
567.007	9.44
567.204	9.4
567.401	9.41
567.598	9.46
567.795	9.48
567.991	9.52
568.188	9.64
568.385	9.71
568.582	9.74
568.779	9.77
568.976	9.88
569.172	9.94
569.369	10.01
569.566	10.07
569.763	10
569.96	10
570.156	9.97
570.353	10.01
570.55	10.04
570.746	10.19
570.943	10.26
571.14	10.31
571.336	10.4
571.533	10.4
571.729	10.49
571.926	10.47
572.123	10.53
572.319	10.58
572.516	10.64
572.712	10.6
572.909	10.68
573.105	10.76
573.302	10.82
573.498	10.9
573.695	11.04
573.891	11.09
574.087	11.1
574.284	11.13
574.48	11.22
574.677	11.22
574.873	11.29
575.069	11.45
575.266	11.48
575.462	11.46
575.658	11.54
575.854	11.62
576.051	11.63
576.247	11.71
576.443	11.87
576.639	11.97
576.835	11.98
577.032	11.95
577.228	12.01
577.424	12
577.62	11.99
577.816	12.02
578.012	12.13
578.208	12.18
578.404	12.22
578.6	12.3
578.796	12.36
578.993	12.47
579.189	12.49
579.384	12.51
579.58	12.48
579.776	12.52
579.972	12.45
580.168	12.51
580.364	12.51
580.56	12.56
580.756	12.63
580.952	12.6
581.148	12.58
581.343	12.65
581.539	12.72
581.735	12.69
581.931	12.78
582.127	12.8
582.322	12.8
582.518	12.74
582.714	12.82
582.909	12.84
583.105	12.88
583.301	12.9
583.496	12.95
583.692	12.93
583.888	12.95
584.083	12.92
584.279	12.94
584.474	13
584.67	12.93
584.866	12.97
585.061	12.99
585.257	13.01
585.452	13.01
585.648	13.08
585.843	13.05
586.039	13.16
586.234	13.11
586.429	13.11
586.625	13.13
586.82	13.2
587.015	13.2
587.211	13.19
587.406	13.2
587.601	13.22
587.797	13.2
587.992	13.23
588.187	13.32
588.383	13.32
588.578	13.26
588.773	13.29
588.968	13.33
589.163	13.29
589.359	13.32
589.554	13.36
589.749	13.37
589.944	13.36
590.139	13.55
590.334	13.61
590.529	13.73
590.724	13.82
590.919	13.86
591.114	13.83
591.309	13.81
591.504	13.84
591.699	13.8
591.894	13.76
592.089	13.73
592.284	13.74
592.479	13.68
592.674	13.73
592.869	13.8
593.064	13.89
593.259	13.93
593.454	14.06
593.648	14.1
593.843	14.12
594.038	14.16
594.233	14.29
594.428	14.35
594.622	14.38
594.817	14.49
595.012	14.5
595.206	14.49
595.401	14.64
595.596	14.77
595.79	14.78
595.985	14.87
596.18	14.89
596.374	14.75
596.569	14.76
596.763	14.93
596.958	15.01
597.153	14.99
597.347	15.09
597.542	15.19
597.736	15.15
597.931	15.16
598.125	15.34
598.319	15.37
598.514	15.38
598.708	15.4
598.903	15.36
599.097	15.39
599.291	15.43
599.486	15.4
599.68	15.4
599.874	15.49
600.069	15.56
600.263	15.59
600.457	15.6
600.651	15.7
600.846	15.72
601.04	15.63
601.234	15.62
601.428	15.67
601.622	15.61
601.817	15.64
602.011	15.71
602.205	15.8
602.399	15.75
602.593	15.89
602.787	15.9
602.981	15.83
603.175	15.82
603.369	15.86
603.563	15.76
603.757	15.72
603.951	15.74
604.145	15.54
604.339	15.54
604.533	15.47
604.727	15.43
604.921	15.47
605.115	15.56
605.309	15.53
605.502	15.6
605.696	15.66
605.89	15.59
606.084	15.62
606.278	15.53
606.471	15.44
606.665	15.28
606.859	15.29
607.053	15.17
607.246	15.18
607.44	15.12
607.634	15.11
607.827	14.95
608.021	14.85
608.214	14.79
608.408	14.72
608.602	14.69
608.795	14.7
608.989	14.67
609.182	14.68
609.376	14.61
609.569	14.44
609.763	14.37
609.956	14.37
610.15	14.2
610.343	14.16
610.537	14.2
610.73	14.16
610.923	14.18
611.117	14.19
611.31	14.07
611.504	14.04
611.697	13.96
611.89	13.82
612.083	13.69
612.277	13.71
612.47	13.58
612.663	13.52
612.856	13.37
613.05	13.36
613.243	13.32
613.436	13.28
613.629	13.2
613.822	13.18
614.015	13.13
614.209	12.99
614.402	12.94
614.595	12.93
614.788	12.93
614.981	12.86
615.174	12.87
615.367	12.86
615.56	12.72
615.753	12.61
615.946	12.54
616.139	12.52
616.332	12.43
616.525	12.47
616.718	12.47
616.911	12.5
617.103	12.49
617.296	12.44
617.489	12.4
617.682	12.34
617.875	12.23
618.067	12.1
618.26	12.09
618.453	12.1
618.646	12.05
618.838	12.05
619.031	12.03
619.224	12.08
619.417	12.02
619.609	12.02
619.802	11.99
619.994	11.93
620.187	11.79
620.38	11.74
620.572	11.68
620.765	11.62
620.957	11.64
621.15	11.63
621.342	11.55
621.535	11.55
621.727	11.5
621.92	11.48
622.112	11.43
622.305	11.4
622.497	11.34
622.69	11.37
622.882	11.34
623.074	11.37
623.267	11.31
623.459	11.31
623.651	11.26
623.844	11.28
624.036	11.26
624.228	11.33
624.42	11.29
624.613	11.32
624.805	11.24
624.997	11.22
625.189	11.24
625.381	11.31
625.574	11.24
625.766	11.23
625.958	11.21
626.15	11.11
626.342	11.02
626.534	11.02
626.726	10.98
626.918	10.87
627.11	10.91
627.302	10.91
627.494	10.94
627.686	10.99
627.878	11.08
628.07	11.02
628.262	10.94
628.454	10.87
628.646	10.81
628.838	10.78
629.029	10.85
629.221	10.91
629.413	10.91
629.605	10.88
629.797	10.89
629.989	10.82
630.18	10.83
630.372	10.83
630.564	10.83
630.755	10.77
630.947	10.76
631.139	10.72
631.33	10.71
631.522	10.71
631.714	10.74
631.905	10.72
632.097	10.67
632.289	10.65
632.48	10.51
632.672	10.47
632.863	10.45
633.055	10.42
633.246	10.39
633.438	10.58
633.629	10.49
633.821	10.43
634.012	10.45
634.203	10.48
634.395	10.4
634.586	10.49
634.777	10.54
634.969	10.58
635.16	10.62
635.351	10.61
635.543	10.64
635.734	10.72
635.925	10.72
636.117	10.66
636.308	10.68
636.499	10.6
636.69	10.46
636.881	10.51
637.073	10.57
637.264	10.62
637.455	10.62
637.646	10.71
637.837	10.64
638.028	10.53
638.219	10.52
638.41	10.56
638.601	10.48
638.792	10.41
638.983	10.55
639.174	10.46
639.365	10.44
639.556	10.43
639.747	10.51
639.938	10.44
640.129	10.39
640.32	10.43
640.511	10.49
640.701	10.47
640.892	10.55
641.083	10.66
641.274	10.57
641.465	10.53
641.655	10.62
641.846	10.56
642.037	10.47
642.228	10.52
642.418	10.46
642.609	10.36
642.8	10.29
642.99	10.36
643.181	10.27
643.372	10.36
643.562	10.34
643.753	10.32
643.943	10.28
644.134	10.38
644.324	10.32
644.515	10.33
644.705	10.3
644.896	10.23
645.086	10.2
645.277	10.22
645.467	10.23
645.658	10.25
645.848	10.35
646.038	10.29
646.229	10.21
646.419	10.2
646.61	10.24
646.8	10.19
646.99	10.27
647.18	10.28
647.371	10.22
647.561	10.12
647.751	10.14
647.941	10.04
648.132	10.07
648.322	9.98
648.512	10.02
648.702	9.98
648.892	9.93
649.082	9.94
649.272	9.99
649.462	9.97
649.653	9.95
649.843	10.03
650.033	9.93
650.223	9.92
650.413	9.87
650.603	9.79
650.793	9.64
650.983	9.61
651.172	9.65
651.362	9.59
651.552	9.54
651.742	9.55
651.932	9.55
652.122	9.42
652.312	9.48
652.502	9.49
652.691	9.5
652.881	9.43
653.071	9.45
653.261	9.34
653.45	9.24
653.64	9.21
653.83	9.19
654.019	9.04
654.209	8.98
654.399	8.99
654.588	8.84
654.778	8.71
654.968	8.66
655.157	8.54
655.347	8.39
655.536	8.32
655.726	8.24
655.915	8.26
656.105	8.25
656.294	8.23
656.484	8.13
656.673	8.06
656.863	7.93
657.052	7.87
657.241	7.75
657.431	7.74
657.62	7.6
657.809	7.42
657.999	7.3
658.188	7.26
658.377	7.23
658.567	7.23
658.756	7.21
658.945	7.21
659.134	7.15
659.324	7.02
659.513	6.94
659.702	6.9
659.891	6.7
660.08	6.5
660.269	6.37
660.458	6.31
660.648	6.28
660.837	6.32
661.026	6.43
661.215	6.48
661.404	6.4
661.593	6.27
661.782	6.09
661.971	5.93
662.16	5.71
662.349	5.66
662.538	5.61
662.726	5.74
662.915	5.76
663.104	5.77
663.293	5.74
663.482	5.7
663.671	5.58
663.86	5.54
664.048	5.58
664.237	5.51
664.426	5.51
664.615	5.46
664.803	5.4
664.992	5.39
665.181	5.48
665.369	5.49
665.558	5.54
665.747	5.54
665.935	5.51
666.124	5.51
666.312	5.51
666.501	5.6
666.69	5.63
666.878	5.65
667.067	5.57
667.255	5.62
667.444	5.57
667.632	5.65
667.82	5.68
668.009	5.8
668.197	5.85
668.386	5.89
668.574	5.83
668.762	5.82
668.951	5.92
669.139	5.94
669.327	5.86
669.516	6.06
669.704	6.19
669.892	6.17
670.08	6.1
670.269	6.14
670.457	6.07
670.645	6.09
670.833	6.12
671.021	6.17
671.21	6.13
671.398	6.13
671.586	6.09
671.774	6.17
671.962	6.29
672.15	6.52
672.338	6.67
672.526	6.74
672.714	6.8
672.902	6.8
673.09	6.87
673.278	6.98
673.466	7.06
673.654	7.2
673.842	7.42
674.03	7.45
674.218	7.38
674.405	7.49
674.593	7.34
674.781	7.28
674.969	7.3
675.157	7.31
675.344	7.31
675.532	7.46
675.72	7.55
675.908	7.5
676.095	7.52
676.283	7.71
676.471	7.86
676.658	7.94
676.846	8.14
677.033	8.39
677.221	8.38
677.409	8.38
677.596	8.44
677.784	8.61
677.971	8.49
678.159	8.54
678.346	8.56
678.534	8.7
678.721	8.8
678.909	9.11
679.096	9.14
679.283	9.24
679.471	9.28
679.658	9.22
679.846	9.17
680.033	9.37
680.22	9.39
680.408	9.27
680.595	9.37
680.782	9.43
680.969	9.41
681.157	9.49
681.344	9.55
681.531	9.49
681.718	9.57
681.905	9.58
682.093	9.62
682.28	9.79
682.467	10.07
682.654	10.15
682.841	10.23
683.028	10.23
683.215	10.34
683.402	10.1
683.589	10.11
683.776	10.32
683.963	10.41
684.15	10.43
684.337	10.8
684.524	10.96
684.711	10.97
684.898	11.05
685.085	11.08
685.271	11.12
685.458	11.12
685.645	11.21
685.832	11.4
686.019	11.68
686.205	11.81
686.392	11.97
686.579	12.1
686.766	12.29
686.952	12.24
687.139	12.27
687.326	12.33
687.512	12.43
687.699	12.49
687.886	12.72
688.072	12.83
688.259	13.04
688.445	13.13
688.632	13.36
688.818	13.56
689.005	13.84
689.191	14.25
689.378	14.75
689.564	15.05
689.751	15.41
689.937	15.77
690.124	15.83
690.31	15.89
690.496	16.24
690.683	16.61
690.869	16.89
691.055	17.14
691.242	17.6
691.428	17.92
691.614	18.08
691.8	18.35
691.987	18.85
692.173	19.06
692.359	19.37
692.545	19.81
692.731	20.44
692.918	20.88
693.104	21.41
693.29	21.7
693.476	22.03
693.662	22.45
693.848	22.8
694.034	23.17
694.22	23.42
694.406	24
694.592	24.05
694.778	24.55
694.964	25.12
695.15	25.76
695.336	26.02
695.522	26.73
695.708	27.29
695.894	27.74
696.08	28.3
696.265	29.02
696.451	29.38
696.637	29.89
696.823	30.13
697.009	30.76
697.194	31.09
697.38	31.78
697.566	32.35
697.751	33.25
697.937	33.62
698.123	34.24
698.308	34.47
698.494	34.88
698.68	35.12
698.865	35.71
699.051	36.18
699.236	36.83
699.422	37.1
699.607	37.74
699.793	38.24
699.978	38.74
700.164	39.14
700.349	39.81
700.535	40.14
700.72	40.41
700.906	40.96
701.091	41.68
701.276	42.07
701.462	42.63
701.647	43.36
701.832	43.79
702.018	44.38
702.203	44.85
702.388	45.48
702.573	45.65
702.759	45.97
702.944	46.2
703.129	46.78
703.314	47.1
703.499	47.57
703.684	48.36
703.87	48.52
704.055	48.98
704.24	49.3
704.425	49.62
704.61	50.02
704.795	50.8
704.98	51.12
705.165	51.5
705.35	52.24
705.535	52.49
705.72	52.91
705.905	53.4
706.09	54.21
706.275	54.52
706.459	55.01
706.644	55.06
706.829	55.64
707.014	55.95
707.199	56.09
707.384	56.43
707.568	57.04
707.753	57.09
707.938	57.33
708.123	58.01
708.307	58.18
708.492	58.87
708.677	58.88
708.861	59.31
709.046	59.56
709.231	59.96
709.415	59.49
709.6	60.2
709.784	60.6
709.969	60.75
710.153	61.04
710.338	61.58
710.522	62.18
710.707	61.96
710.891	62.11
711.076	62.21
711.26	62.52
711.445	62.3
711.629	62.77
711.813	63.09
711.998	63.87
712.182	64.26
712.366	65
712.551	65.26
712.735	65.67
712.919	65.55
713.103	65.64
713.288	65.19
713.472	65
713.656	65.04
713.84	65.27
714.024	65.46
714.208	65.92
714.393	66.56
714.577	67.23
714.761	67.61
714.945	67.97
715.129	68.1
715.313	68.4
715.497	68.41
715.681	68.72
715.865	69.38
716.049	69.96
716.233	70.49
716.417	71.02
716.601	71.16
716.785	70.55
716.968	70.58
717.152	70.55
717.336	70.69
717.52	70.72
717.704	71.36
717.888	72.13
718.071	72.4
718.255	72.18
718.439	72.73
718.622	72.93
718.806	72.46
718.99	73.08
719.174	73.39
719.357	73.01
719.541	73.12
719.724	73.52
719.908	73.45
720.092	73.8
720.275	74.36
720.459	74.61
720.642	74.92
720.826	74.97
721.009	75.16
721.193	75.56
721.376	75.71
721.559	76.02
721.743	76.15
721.926	76.54
722.11	76.01
722.293	76.23
722.476	76.11
722.66	76.46
722.843	76.31
723.026	77.33
723.21	77.73
723.393	77.45
723.576	77.52
723.759	77.56
723.942	77.66
724.126	77.8
724.309	78.89
724.492	78.74
724.675	78.83
724.858	78.8
725.041	78.72
725.224	78.99
725.407	79.47
725.59	80.4
725.774	81.22
725.957	81.99
726.14	82.25
726.322	82.23
726.505	82.28
726.688	82.12
726.871	81.81
727.054	82.03
727.237	82.45
727.42	82.6
727.603	82.9
727.786	83.26
727.968	82.91
728.151	82.72
728.334	82.44
728.517	82.4
728.699	82.59
728.882	83.19
729.065	83.93
729.248	84.5
729.43	84.78
729.613	85.11
729.796	85.44
729.978	85.94
730.161	86
730.343	85.67
730.526	86.31
730.708	86
730.891	85.82
731.073	86.24
731.256	86.97
731.438	86.5
731.621	87.08
731.803	87.61
731.986	88.28
732.168	88.57
732.35	89.38
732.533	89.17
732.715	89.5
732.898	89.41
733.08	89.79
733.262	89.88
733.444	89.54
733.627	89.12
733.809	89.15
733.991	88.94
734.173	89.32
734.355	90.6
734.538	90.52
734.72	91.13
734.902	91.99
735.084	92.06
735.266	91.64
735.448	92.86
735.63	92.83
735.812	92.35
735.994	91.38
736.176	91.7
736.358	92.11
736.54	92.07
736.722	93.07
736.904	94.31
737.086	93.95
737.268	93.28
737.45	93.65
737.632	92.78
737.814	92.33
737.995	93.17
738.177	93.1
738.359	92.9
738.541	93.12
738.723	93.88
738.904	93.7
739.086	93.79
739.268	94.78
739.449	94.17
739.631	94.18
739.813	94.79
739.994	95.25
740.176	94.78
740.358	96.41
740.539	96.71
740.721	96.91
740.902	97.1
741.084	96.55
741.265	96
741.447	96.27
741.628	96.27
741.81	95.91
741.991	96.9
742.172	97.54
742.354	97.75
742.535	98.52
742.717	98.52
742.898	98.62
743.079	97.5
743.261	95.75
743.442	94.88
743.623	95.05
743.804	94.3
743.986	95.16
744.167	97.2
744.348	95.97
744.529	96.06
744.71	96.78
744.891	97
745.073	96.07
745.254	97.55
745.435	96.78
745.616	96.37
745.797	95.73
745.978	95.89
746.159	97.3
746.34	97.94
746.521	97.83
746.702	98.54
746.883	98.25
747.064	95.45
747.245	96.01
747.426	95.34
747.606	94.47
747.787	95.45
747.968	96.53
748.149	96.92
748.33	97.93
748.51	99.2
748.691	98.15
748.872	98.77
749.053	98.21
749.233	98.12
749.414	96.34
749.595	96.77
749.775	96.87
749.956	96.44
750.137	95.95
750.317	96.42
750.498	96.65
750.678	96.86
750.859	97.71
751.04	97.34
751.22	97.88
751.4	97.34
751.581	97.12
751.761	97.5
751.942	97.2
752.122	97.08
752.303	97.05
752.483	97.45
752.663	95.62
752.844	97.23
753.024	96.6
753.204	97.27
753.385	95.55
753.565	98.57
753.745	100.39
753.925	101.17
754.106	101.91
754.286	102.58
754.466	101.46
754.646	99.59
754.826	97.85
755.006	97.1
755.187	98.37
755.367	97.75
755.547	97.06
755.727	98.17
755.907	97.39
756.087	97.22
756.267	96.39
756.447	97.99
756.627	99.52
756.807	99.06
756.987	96.54
757.167	97.71
757.346	97.26
757.526	96.64
757.706	95.97
757.886	97.15
758.066	96.81
758.246	96.06
758.425	97.16
758.605	99.51
758.785	101.04
758.965	103.06
759.144	105.17
759.324	103.07
759.504	102.03
759.683	101.52
759.863	99.14
760.043	97.42
760.222	97.31
760.402	97.29
760.581	97.27
760.761	95.7
760.94	95.3
761.12	97.08
761.299	96.19
761.479	95.51
761.658	96.47
761.838	97.25
762.017	96.52
762.197	96.17
762.376	97.41
762.555	97.34
762.735	97.9
762.914	95.74
763.093	96.47
763.273	95.74
763.452	95.14
763.631	92.85
763.81	94.32
763.99	95.65
764.169	95.93
764.348	98.13
764.527	98.62
764.706	97.03
764.885	96.12
765.064	96.34
765.243	95.81
765.423	96.12
765.602	96.64
765.781	97.91
765.96	96.1
766.139	94.73
766.318	94.19
766.497	96.44
766.676	96.22
766.854	96.31
767.033	97.66
767.212	98.64
767.391	96.3
767.57	95.54
767.749	94.8
767.928	94.82
768.106	95.06
768.285	93.1
768.464	92.21
768.643	94.14
768.821	93.96
769	94.18
769.179	98.38
769.357	98.35
769.536	97.14
769.715	96.03
769.893	96.17
770.072	93.21
770.25	93.21
770.429	94.06
770.607	92.86
770.786	92.94
770.964	92.59
771.143	92.94
771.321	91.75
771.5	95.36
771.678	94.28
771.857	95.43
772.035	99.09
772.213	100.38
772.392	97.43
772.57	98.37
772.748	98.99
772.927	97.1
773.105	96.59
773.283	96.54
773.461	95.12
773.64	94.83
773.818	92.75
773.996	91.55
774.174	92.47
774.352	90.72
774.531	91.17
774.709	90.08
774.887	93.29
775.065	91.98
775.243	93.29
775.421	92.2
775.599	93.34
775.777	90.45
775.955	91.19
776.133	94.09
776.311	94.25
776.489	95.86
776.667	96.45
776.844	97.97
777.022	96.96
777.2	97.39
777.378	94.71
777.556	95.54
777.734	92.54
777.911	91.14
778.089	91.29
778.267	92.99
778.445	90.4
778.622	92.1
778.8	94.59
778.978	94.37
779.155	92.76
779.333	93.21
779.511	91.39
779.688	89.06
779.866	86.24
780.043	89.43
780.221	91.62
780.398	90.6
780.576	91.77
780.753	95.75
780.931	92.19
781.108	91.3
781.286	92.4
781.463	91.56
781.64	90.24
781.818	90.7
781.995	89.33
782.172	91.17
782.35	90.3
782.527	91.16
782.704	91.08
782.882	93.22
783.059	91.03
783.236	90.52
783.413	90.29
783.59	89.78
783.768	86.41
783.945	90.51
784.122	91.07
784.299	92.71
784.476	91.91
784.653	94.8
784.83	92.08
785.007	89.88
785.184	89.18
785.361	90.86
785.538	88.86
785.715	87.82
785.892	89.2
786.069	88.82
786.246	87.4
786.423	89.99
786.6	92.19
786.776	91.08
786.953	90.74
787.13	93.33
787.307	93.9
787.484	93.02
787.66	93.27
787.837	90.95
788.014	92.23
788.191	88.2
788.367	90.46
788.544	94.29
788.721	92.14
788.897	90.17
789.074	89.72
789.25	82.83
789.427	80.09
789.603	81.02
789.78	78.49
789.956	79.57
790.133	83.82
790.309	85.4
790.486	83.67
790.662	85.08
790.839	84.77
791.015	82.51
791.192	79.47
791.368	87.36
791.544	81.72
791.721	83.93
791.897	86.09
792.073	87.65
792.249	80.37
792.426	86.99
792.602	86.41
792.778	84.01
792.954	77.24
793.13	78.18
793.307	80.27
793.483	78.7
793.659	82.22
793.835	83.67
794.011	87.95
794.187	83.35
794.363	85.69
794.539	80.67
794.715	88.9
794.891	87.5
795.067	87.32
795.243	84.97
795.419	91.47
795.595	89.8
795.771	90.6
795.947	96.53
796.122	97.16
796.298	95.62
796.474	94.42
796.65	93.17
796.826	89.88
797.001	91.88
797.177	89.36
797.353	86.65
797.529	82.64
797.704	83.34
797.88	79.1
798.056	80.51
798.231	84.39
798.407	85.35
798.582	85.19
798.758	86.92
798.934	92.44
799.109	87.91
799.285	94.09
799.46	93.54
799.636	93.6
799.811	84.93
799.986	83.25
800.162	79.48
800.337	80
800.513	79.85
800.688	79.11
800.863	78.44
801.039	79.46
801.214	77.18
801.389	79.03
801.565	72.46
801.74	82.75
801.915	79.95
802.09	82.1
802.265	85.3
802.441	91.02
802.616	84.13
802.791	90.03
802.966	95.88
803.141	93.96
803.316	93.46
803.491	93.59
803.666	89.64
803.841	86.21
804.016	82.89
804.191	81.46
804.366	92.86
804.541	88.57
804.716	80.99
804.891	83.09
805.066	88.11
805.241	72.3
805.416	67.77
805.591	68.43
805.765	67.01
805.94	67.05
806.115	63.03
806.29	68.77
806.464	74.42
806.639	79.56
806.814	78.06
806.989	84.25
807.163	82.74
807.338	78.84
807.512	71.62
807.687	64.69
807.862	60.95
808.036	58.94
808.211	59.36
808.385	61.44
808.56	67.06
808.734	70.6
808.909	72.28
809.083	71.53
809.258	72.08
809.432	74.87
809.606	70.95
809.781	68.49
809.955	63.28
810.13	62.22
810.304	53.79
810.478	60.7
810.652	64.23
810.827	74.24
811.001	73.29
811.175	81.33
811.349	78.91
811.524	79.84
811.698	72.81
811.872	79.52
812.046	80.71
812.22	78.37
812.394	81.65
812.568	92.92
812.742	95.06
812.916	96.16
813.09	95.64
813.264	95.03
813.438	96.05
813.612	90.38
813.786	74.95
813.96	81.75
814.134	77.9
814.308	70.31
814.482	68.5
814.656	77.03
814.83	69.55
815.003	78.16
815.177	79.75
815.351	90.09
815.525	96.09
815.698	95.49
815.872	90.77
816.046	90.33
816.219	81.86
816.393	79.2
816.567	82.19
816.74	79.26
816.914	71.83
817.088	70.85
817.261	73.55
817.435	80.75
817.608	79.93
817.782	79.56
817.955	91.28
818.129	82.53
818.302	69.15
818.475	67.75
818.649	92.67
818.822	83.48
818.996	90.86
819.169	92.78
819.342	91.12
819.516	82.28
819.689	83.33
819.862	96.43
820.035	99.28
820.209	95.35
820.382	99.36
820.555	97.25
820.728	82.94
820.901	59.13
821.075	61.94
821.248	58.25
821.421	63.2
821.594	50.9
821.767	77.58
821.94	72.93
822.113	62.15
822.286	54.22
822.459	66.71
822.632	65.53
822.805	67.07
822.978	81.23
823.151	81.06
823.324	79.5
823.496	77.89
823.669	74.84
823.842	67.52
824.015	72.58
824.188	69.29
824.361	80.85
824.533	74.29
824.706	71.98
824.879	72.39
825.051	66.46
825.224	47.15
825.397	66.17
825.569	67.91
825.742	55.28
825.915	56.39
826.087	72
826.26	53.86
826.432	65.81
826.605	81.5
826.777	85.53
826.95	77.11
827.122	69.93
827.295	64.42
827.467	58.4
827.64	43.14
827.812	35.28
827.984	30.68
828.157	31.39
828.329	32.11
828.501	59.23
828.674	67.67
828.846	84.7
829.018	79.96
829.19	82.51
829.363	65.2
829.535	62.5
829.707	52.07
829.879	50.06
830.051	47.07
830.223	59.38
830.395	59.27
830.568	48.81
830.74	57.21
830.912	59.43
831.084	62.76
831.256	63.66
831.428	69.55
831.6	66.69
831.772	78.66
831.943	71.11
832.115	84.25
832.287	102.3
832.459	95.76
832.631	91.03
832.803	94.86
832.975	86.04
833.146	77.82
833.318	85.59
833.49	89.17
833.662	97.49
833.833	87.12
834.005	81.06
834.177	89.55
834.348	76.69
834.52	66.08
834.692	64.34
834.863	68.06
835.035	74.56
835.206	73.75
835.378	56.98
835.549	65.3
835.721	63.83
835.892	59.82
836.064	66.54
836.235	94.54
836.407	86.1
836.578	86.06
836.749	76.01
836.921	69.12
837.092	74.34
837.264	74.49
837.435	77.39
837.606	77.63
837.777	75.78
837.949	54.98
838.12	45.91
838.291	41.02
838.462	53.49
838.633	67.67
838.805	69.93
838.976	94.37
839.147	111.15
839.318	87.26
839.489	75.94
839.66	108.15
839.831	108.33
840.002	98.36
840.173	120.27
840.344	106.79
840.515	79.71
840.686	80.28
840.857	72.23
841.028	72.07
841.199	69.6
841.369	64.82
841.54	77.58
841.711	84.32
841.882	76.51
842.053	70
842.223	80.97
842.394	57.85
842.565	57.57
842.736	40.33
842.906	63.93
843.077	64.83
843.248	134.58
843.418	128.37
843.589	90.9
843.759	78.24
843.93	61.22
844.101	60.04
844.271	49.6
844.442	63.44
844.612	71.78
844.783	72.08
844.953	49.33
845.123	45.5
845.294	34.78
845.464	35.49
845.635	48.81
845.805	102.06
845.975	96.84
846.146	126.57
846.316	122.6
846.486	141.49
846.656	95.16
846.827	99.51
846.997	92.05
847.167	49.65
847.337	47.25
847.507	53.98
847.677	64.21
847.848	69.45
848.018	116.63
848.188	118.1
848.358	111.63
848.528	98.27
848.698	116.32
848.868	109.31
849.038	77.87
849.208	22.98
849.378	50.48
849.548	30.69
849.718	36.42
849.887	57.9
850.057	80.11
850.227	75.62
850.397	67.24
850.567	65.09
850.737	53.29
850.906	40.47
851.076	41.4
851.246	46.35
851.415	48.92
851.585	50.53
851.755	57.66
851.924	55.25
852.094	64.19
852.264	55.65
852.433	42.17
852.603	53.61
852.772	59.86
852.942	45.35
853.111	64.08
853.281	83.18
853.45	62.13
853.62	35.95
853.789	29.24
853.959	33.56
854.128	48.51
854.297	59.59
854.467	165.23
854.636	163.21
854.805	95.85
854.975	86.19
855.144	69.35
855.313	65.97
855.482	69.41
855.652	76.29
855.821	69.22
855.99	50.74
856.159	33.72
856.328	34.89
856.497	45.18
856.667	36.67
856.836	41.2
857.005	72.15
857.174	60.08
857.343	59.11
857.512	100.3
857.681	79.33
857.85	19.54
858.019	-28.48
858.188	-29.94
858.356	-30.69
858.525	26.55
858.694	45.56
858.863	74.56
859.032	77.06
859.201	56.25
859.369	61.54
859.538	63.07
859.707	61.74
859.876	51.42
860.044	74.91
860.213	75.54
860.382	73.45
860.55	70.84
860.719	96.06
860.888	129.34
861.056	100.2
861.225	105.16
861.393	114.29
861.562	113.65
861.73	105.71
861.899	94.21
862.067	91.9
862.236	68.03
862.404	46.85
862.572	34.88
862.741	35.73
862.909	26.08
863.078	39.98
863.246	51.47
863.414	60.63
863.582	81.63
863.751	65.84
863.919	59.92
864.087	65.89
864.255	62.36
864.424	52.61
864.592	42.83
864.76	52.1
864.928	20.6
865.096	10.75
865.264	14.6
865.432	28.4
865.6	39.3
865.768	57.17
865.936	59.78
866.104	44.02
866.272	36.67
866.44	36.91
866.608	35.83
866.776	74.3
866.944	93.54
867.112	86.15
867.28	65.68
867.448	71.64
867.615	53.95
867.783	54.39
867.951	37.36
868.119	46.63
868.286	52.06
868.454	61.43
868.622	52.35
868.789	73.35
868.957	67.56
869.125	62.49
869.292	43.53
869.46	52.98
869.627	67.14
869.795	65.9
869.963	81.69
870.13	69.25
870.298	57.64
870.465	55.85
870.632	26.98
870.8	25.54
870.967	67.18
871.135	51.41
871.302	-6.74
871.469	39.49
871.637	24.25
871.804	16.9
871.971	41.86
872.139	85.43
872.306	78.28
872.473	93.24
872.64	95.18
872.807	78.54
872.975	43.53
873.142	36.36
873.309	65.15
873.476	69.04
873.643	66.04
873.81	93.77
873.977	89.36
874.144	57.89
874.311	58.82
874.478	52.47
874.645	29.71
874.812	40.76
874.979	33.31
875.146	11.32
875.313	28.44
875.48	30.68
875.647	26.03
875.813	12.49
875.98	18.93
876.147	16.1
876.314	45.17
876.481	26.36
876.647	16.2
876.814	43.84
876.981	44.62
877.147	17.96
877.314	21.55
877.481	43.03
877.647	0.25
877.814	-7.76
877.98	-24.38
878.147	-40.62
878.314	-85.29
878.48	19.57
878.647	11.1
878.813	57.82
878.979	30.51
879.146	74.61
879.312	31.83
879.479	62.13
879.645	45.14
879.811	71.29
879.978	27.8
880.144	56.64
880.31	37.27
880.477	23.23
880.643	17.1
880.809	9.27
880.975	-7.22
881.142	-66.13
881.308	-20.51
881.474	109.75
881.64	113.39
881.806	-58.78
881.972	126.11
882.138	149.49
882.304	62.15
882.47	39.51
882.636	62.63
882.802	48.74
882.968	27.69
883.134	20.96
883.3	41.7
883.466	42.54
883.632	56.69
883.798	88.4
883.964	180.67
884.129	132.13
884.295	56.75
884.461	36.8
884.627	62.62
884.793	63.7
884.958	95.03
885.124	80.87
885.29	72.53
885.455	49.26
885.621	40.07
885.787	31.89
885.952	17.49
886.118	37.51
886.283	59.61
886.449	46.52
886.614	39.78
886.78	88.86
886.945	89
887.111	79.95
887.276	86.85
887.442	89.37
887.607	63.32
887.773	40.06
887.938	36.41
888.103	26.82
888.269	56.83
888.434	38.42
888.599	45.94
888.764	42.77
888.93	60.32
889.095	43.47
889.26	65.93
889.425	65.71
889.59	73.62
889.756	25.47
889.921	-7.12
890.086	-4.2
890.251	18.44
890.416	17.49
890.581	47.39
890.746	95.48
890.911	107.1
891.076	102.93
891.241	79.16
891.406	83.85
891.571	57.64
891.736	15.67
891.901	0.68
892.065	47.36
892.23	73.96
892.395	67.26
892.56	49.91
892.725	77.73
892.889	14.93
893.054	2.1
893.219	14.46
893.384	34.72
893.548	27.85
893.713	23.75
893.878	12.46
