Data from Ofav_PP_Phys_9JQ4_Reflection_3.txt Node
Date: Tue Jul 27 19:05:18 EDT 2021
User: USUARIO
Spectrometer: FLMT01687
Trigger mode: 0
Integration Time (sec): 8.500000E-1
Scans to average: 2
Electric dark correction enabled: true
Nonlinearity correction enabled: false
Boxcar width: 2
XAxis mode: Wavelengths
Number of Pixels in Spectrum: 3648
>>>>>Begin Spectral Data<<<<<
179.494	-828.89
179.716	-326.61
179.937	-229.64
180.158	-235.58
180.38	-255.01
180.601	-361.92
180.823	131.78
181.044	105.05
181.265	98.34
181.486	155.14
181.708	-18.01
181.929	129.1
182.15	156.39
182.372	281.35
182.593	104.69
182.814	64.84
183.035	63.93
183.257	61.92
183.478	63.14
183.699	54.36
183.92	57.18
184.141	51.96
184.363	41.38
184.584	51.79
184.805	50.89
185.026	44.11
185.247	45.76
185.468	48.55
185.689	22.93
185.91	12.61
186.132	12.81
186.353	3.86
186.574	-5.06
186.795	-1.22
187.016	11.97
187.237	11.48
187.458	17.65
187.679	30.26
187.9	17.92
188.121	26.58
188.342	20.78
188.563	59.93
188.784	69.2
189.005	79.67
189.226	67.32
189.447	59.21
189.667	45.08
189.888	37.15
190.109	45.7
190.33	48.06
190.551	48.25
190.772	33.33
190.993	31.85
191.214	28.26
191.434	21.52
191.655	33.81
191.876	41.28
192.097	30.98
192.318	46.17
192.538	55.99
192.759	49.84
192.98	55.59
193.201	69.82
193.421	79.43
193.642	46.58
193.863	52.97
194.083	53.86
194.304	36.14
194.525	21.89
194.745	35.95
194.966	1.02
195.187	-33.67
195.407	1.13
195.628	17.51
195.848	31.02
196.069	49.87
196.29	73.42
196.51	75.51
196.731	68.18
196.951	62.79
197.172	56.29
197.392	45.37
197.613	27.31
197.833	11.46
198.054	25.55
198.274	16.79
198.495	55.35
198.715	102.18
198.936	102.52
199.156	86.86
199.377	138.84
199.597	127.26
199.817	46.97
200.038	57.06
200.258	89.6
200.479	61.27
200.699	69.62
200.919	66.34
201.14	65.54
201.36	44.22
201.58	42.04
201.801	8.68
202.021	3.95
202.241	4.23
202.461	3.98
202.682	-11.92
202.902	-16.08
203.122	14.56
203.342	12.64
203.563	43.96
203.783	53.13
204.003	54.32
204.223	66.59
204.443	72.46
204.663	73.19
204.884	47.32
205.104	54.04
205.324	40.49
205.544	53.69
205.764	43.45
205.984	31.93
206.204	9.4
206.424	30.1
206.644	13.72
206.864	21.42
207.084	40.61
207.304	60.24
207.525	49.94
207.745	66.39
207.964	69.52
208.184	65.4
208.404	63.99
208.624	53.68
208.844	55.23
209.064	77.62
209.284	71.83
209.504	77.87
209.724	100.69
209.944	62.12
210.164	-9.36
210.384	-45.81
210.604	-82.92
210.823	-0.36
211.043	17.74
211.263	25.39
211.483	60.54
211.703	72.71
211.922	69.86
212.142	103.86
212.362	79.33
212.582	59.51
212.801	51.85
213.021	57.04
213.241	55.28
213.461	50.04
213.68	43.44
213.9	-3.28
214.12	-1.41
214.339	26
214.559	38.24
214.779	43.31
214.998	67.77
215.218	63.27
215.438	46.82
215.657	53.57
215.877	41.5
216.096	41.47
216.316	54.3
216.535	42.19
216.755	43.62
216.974	63.97
217.194	78.53
217.413	66.75
217.633	83.2
217.852	54.46
218.072	43.54
218.291	16.96
218.511	17.51
218.73	15.82
218.95	28.49
219.169	30.5
219.389	22.89
219.608	22.95
219.827	31.53
220.047	27.43
220.266	43.42
220.485	60.44
220.705	52.91
220.924	50.18
221.143	42.41
221.363	19.77
221.582	11.39
221.801	23.21
222.021	31.48
222.24	32.44
222.459	42.99
222.678	43.97
222.897	37.92
223.117	38.65
223.336	28.93
223.555	31.48
223.774	31.14
223.993	34.81
224.213	24.87
224.432	47.78
224.651	59.21
224.87	40.41
225.089	28.48
225.308	31.1
225.527	30.36
225.746	17.41
225.965	41.79
226.184	38.81
226.404	50.78
226.623	42.6
226.842	24.19
227.061	18.39
227.28	25.6
227.499	26.33
227.718	29.24
227.936	46.29
228.155	56.87
228.374	60.98
228.593	60.38
228.812	69.97
229.031	59.03
229.25	54.1
229.469	44.49
229.688	29.22
229.907	-17.66
230.125	29.59
230.344	39.02
230.563	47.79
230.782	50.82
231.001	59.26
231.22	42.83
231.438	17.77
231.657	2.51
231.876	-7.46
232.095	4.15
232.313	12.25
232.532	27.86
232.751	45.91
232.969	55.8
233.188	55.37
233.407	49.39
233.625	56.67
233.844	44.04
234.063	55.76
234.281	69.11
234.5	52.14
234.719	58.62
234.937	58.04
235.156	39.88
235.374	41.43
235.593	55.83
235.811	54.4
236.03	62.9
236.249	66.54
236.467	73.68
236.686	62.89
236.904	58.43
237.123	51.98
237.341	50.3
237.559	50.09
237.778	56.35
237.996	61.88
238.215	61.44
238.433	71.76
238.652	46.32
238.87	43.48
239.088	16.18
239.307	32.92
239.525	-1.09
239.743	12.02
239.962	11.04
240.18	35.68
240.398	26.6
240.617	28.81
240.835	43.13
241.053	35.07
241.271	5.57
241.49	9.13
241.708	12.58
241.926	13.64
242.144	7.22
242.363	33.01
242.581	51.64
242.799	40.26
243.017	17.98
243.235	45.24
243.453	47.75
243.672	36.89
243.89	30.81
244.108	50.78
244.326	52.05
244.544	35.52
244.762	23.85
244.98	55.34
245.198	41.52
245.416	32.26
245.634	47.07
245.852	77.09
246.07	74.64
246.288	61.73
246.506	59.5
246.724	52.69
246.942	41.32
247.16	20.04
247.378	23.49
247.596	24.02
247.814	23.61
248.032	17.44
248.25	26.1
248.468	51.27
248.685	58.55
248.903	73.38
249.121	83.81
249.339	91.28
249.557	72.6
249.775	38
249.992	13.51
250.21	-0.35
250.428	-7.9
250.646	-20.25
250.863	6.59
251.081	27.36
251.299	38.31
251.517	44.26
251.734	72.46
251.952	61.8
252.17	43.67
252.387	24.25
252.605	21.59
252.823	11.04
253.04	28.88
253.258	40.09
253.475	46.77
253.693	59.17
253.911	58.54
254.128	48.32
254.346	34.26
254.563	33.79
254.781	24.34
254.998	36
255.216	30.84
255.433	42.9
255.651	45.42
255.868	28.14
256.086	10.02
256.303	10.38
256.521	24.14
256.738	26.25
256.956	17.75
257.173	23.06
257.39	30.01
257.608	24.1
257.825	16.91
258.043	35.09
258.26	47.97
258.477	45.31
258.695	46.01
258.912	61.96
259.129	55.05
259.346	38.82
259.564	54.09
259.781	63.08
259.998	38.7
260.216	59.75
260.433	62.83
260.65	61.04
260.867	48.6
261.084	76.75
261.302	68.61
261.519	61.76
261.736	39.74
261.953	39.36
262.17	24.96
262.387	12.51
262.604	15.98
262.822	17.97
263.039	25.98
263.256	31.59
263.473	66.59
263.69	89.88
263.907	78.42
264.124	96.98
264.341	74.13
264.558	61.77
264.775	51.41
264.992	67.19
265.209	55.45
265.426	59.92
265.643	55.7
265.86	55.32
266.077	46.56
266.294	59.67
266.51	61.2
266.727	62.78
266.944	60.73
267.161	64.71
267.378	53.48
267.595	60.17
267.812	66.08
268.028	59.23
268.245	50.13
268.462	60.09
268.679	45.53
268.896	33
269.112	26.08
269.329	34.36
269.546	31.57
269.763	23.71
269.979	34.95
270.196	39.35
270.413	43.23
270.629	37.92
270.846	47.48
271.063	35.73
271.279	45.14
271.496	29.47
271.712	28.94
271.929	13.09
272.146	21.83
272.362	23.37
272.579	31.32
272.795	53.51
273.012	64.84
273.228	46.18
273.445	43.17
273.661	29.65
273.878	18.65
274.094	19.03
274.311	44.03
274.527	40.65
274.744	46.62
274.96	41.78
275.177	31.42
275.393	22.53
275.609	31.24
275.826	40.92
276.042	43.39
276.259	58.24
276.475	59.77
276.691	58.95
276.908	56.26
277.124	47.65
277.34	49.63
277.557	48.72
277.773	46.24
277.989	49.35
278.205	54.03
278.422	38.45
278.638	41.93
278.854	56.06
279.07	65.29
279.286	62.74
279.503	67.11
279.719	66.62
279.935	60.82
280.151	56.06
280.367	55.25
280.583	56.73
280.799	58.64
281.016	45.91
281.232	47.03
281.448	43.86
281.664	41.46
281.88	35.24
282.096	30.71
282.312	10.59
282.528	12.87
282.744	13.56
282.96	4.73
283.176	21.25
283.392	47.5
283.608	52.13
283.824	40.37
284.04	27.74
284.256	39.29
284.471	32.43
284.687	33.23
284.903	44.51
285.119	59.23
285.335	45.69
285.551	28.4
285.767	27.93
285.982	9.77
286.198	17.59
286.414	2.94
286.63	18.32
286.846	25.71
287.061	35.83
287.277	12.4
287.493	26.5
287.709	23.77
287.924	40.83
288.14	46.53
288.356	85.71
288.571	98.65
288.787	84.78
289.003	69.72
289.218	53.07
289.434	24.66
289.65	3.19
289.865	-2.25
290.081	12.44
290.296	22.23
290.512	19.64
290.727	33.33
290.943	65.8
291.159	71.46
291.374	59.95
291.59	60.07
291.805	72.21
292.021	55.21
292.236	48.81
292.451	48.1
292.667	49.66
292.882	35.98
293.098	32.13
293.313	47.15
293.529	57.53
293.744	47.08
293.959	52.04
294.175	56.43
294.39	38.26
294.605	35.99
294.821	34.25
295.036	30.72
295.251	29.93
295.467	42.15
295.682	41.53
295.897	49.4
296.112	59.26
296.328	52.9
296.543	58.14
296.758	45.94
296.973	53.12
297.188	55.6
297.404	47.48
297.619	42.25
297.834	47.95
298.049	38.64
298.264	33.75
298.479	37.77
298.694	37.64
298.909	24.24
299.125	35.91
299.34	19.14
299.555	31.42
299.77	34.25
299.985	44.06
300.2	43.57
300.415	55.17
300.63	38.75
300.845	47.92
301.06	49.6
301.275	34.83
301.49	45.17
301.704	43.21
301.919	39.97
302.134	56.05
302.349	56.01
302.564	46.39
302.779	43.3
302.994	25.38
303.209	31.15
303.423	39.42
303.638	38.11
303.853	37.37
304.068	53.65
304.283	33.95
304.497	29.18
304.712	38.35
304.927	44.55
305.142	53.23
305.356	55.82
305.571	54.38
305.786	52.24
306	54.33
306.215	46.71
306.43	50.61
306.644	68.17
306.859	69.73
307.074	69.63
307.288	76.3
307.503	79.51
307.717	66.3
307.932	64.13
308.147	73.47
308.361	52.18
308.576	50.09
308.79	46.4
309.005	38.87
309.219	20.05
309.434	35.28
309.648	32.11
309.863	26.02
310.077	26.98
310.292	28.57
310.506	11.86
310.72	18.79
310.935	26.77
311.149	38.18
311.364	44.34
311.578	55.94
311.792	37.19
312.007	22.24
312.221	21.1
312.435	21.32
312.649	28.28
312.864	13.34
313.078	26.79
313.292	22.68
313.507	26.54
313.721	40.54
313.935	48.2
314.149	45.63
314.363	46.14
314.578	44.29
314.792	33.17
315.006	44
315.22	37.63
315.434	31.8
315.648	30.57
315.862	22.77
316.077	4.83
316.291	16.08
316.505	13.19
316.719	24.74
316.933	37.44
317.147	32.97
317.361	17.51
317.575	19.75
317.789	9.16
318.003	-1.11
318.217	10
318.431	24.13
318.645	26.73
318.859	28.07
319.073	27.3
319.287	26.35
319.5	29.26
319.714	22.39
319.928	27.91
320.142	9.6
320.356	39.91
320.57	29.73
320.784	45.07
320.997	53.57
321.211	74.52
321.425	58.82
321.639	53.86
321.853	49.05
322.066	36.44
322.28	5.44
322.494	3.12
322.707	21.04
322.921	22.9
323.135	11.83
323.349	31.21
323.562	37.4
323.776	22.4
323.989	1.46
324.203	14.21
324.417	5.94
324.63	22.26
324.844	18.25
325.057	15.99
325.271	12.24
325.485	11.62
325.698	8.84
325.912	28.12
326.125	54.32
326.339	52.15
326.552	62.6
326.766	58.06
326.979	45.79
327.193	27.85
327.406	33.67
327.619	22.5
327.833	26.77
328.046	48.12
328.26	48.31
328.473	31.82
328.686	37.85
328.9	32.16
329.113	17.76
329.326	-7.1
329.54	23.75
329.753	12.96
329.966	19.02
330.179	7.36
330.393	38.11
330.606	19.82
330.819	21.15
331.032	22.53
331.246	37.94
331.459	29.75
331.672	46.62
331.885	48.26
332.098	55.79
332.311	51.19
332.525	58.42
332.738	52.16
332.951	63.35
333.164	55.44
333.377	44.58
333.59	48.94
333.803	51.11
334.016	41.11
334.229	37.23
334.442	51.63
334.655	57.11
334.868	48.68
335.081	49.14
335.294	63.62
335.507	48.95
335.72	44.11
335.933	38.04
336.146	38.23
336.359	20.87
336.572	45.66
336.785	40.95
336.997	53.95
337.21	65.34
337.423	58.51
337.636	39.53
337.849	23
338.062	26.39
338.274	23.24
338.487	41.1
338.7	42.62
338.913	60.63
339.125	59.11
339.338	39.4
339.551	23.99
339.763	17.83
339.976	21.81
340.189	16.83
340.402	33.79
340.614	29.46
340.827	39.7
341.039	26.42
341.252	23.51
341.465	17.21
341.677	17.86
341.89	-0.06
342.102	10.99
342.315	25.5
342.527	36.5
342.74	39.58
342.952	47.46
343.165	52.36
343.377	44.59
343.59	17.79
343.802	24.03
344.015	19.18
344.227	10.5
344.44	7.24
344.652	42.77
344.864	46
345.077	41.06
345.289	35.86
345.502	23.34
345.714	26.32
345.926	15.92
346.139	17.33
346.351	16.23
346.563	21.05
346.775	26.88
346.988	21.74
347.2	16.7
347.412	24.59
347.624	33.08
347.837	8.93
348.049	10.15
348.261	16.9
348.473	12.73
348.685	25.91
348.897	37.78
349.11	39.08
349.322	31.05
349.534	33.02
349.746	21.77
349.958	31.43
350.17	42.74
350.382	37.54
350.594	28.66
350.806	41.37
351.018	28.65
351.23	30.61
351.442	32.04
351.654	53.42
351.866	33.08
352.078	33.23
352.29	26.32
352.502	21.61
352.714	17.82
352.926	24.45
353.138	27.29
353.35	26.78
353.561	44.28
353.773	42.18
353.985	35.68
354.197	29.61
354.409	31.64
354.621	19.12
354.832	33.96
355.044	30.42
355.256	39.22
355.468	47.21
355.679	51.2
355.891	52.54
356.103	48.56
356.314	42.18
356.526	39.33
356.738	39.3
356.949	29.2
357.161	39.98
357.373	33.45
357.584	22.17
357.796	16.56
358.008	17.88
358.219	22.37
358.431	22.29
358.642	33.44
358.854	49.15
359.065	41.96
359.277	42.16
359.488	49.42
359.7	49.24
359.911	50.79
360.123	65.57
360.334	60.49
360.546	53.1
360.757	52.7
360.969	40.68
361.18	24.56
361.391	23.93
361.603	30.5
361.814	24.38
362.025	29.39
362.237	37.29
362.448	33.72
362.659	24.57
362.871	30.71
363.082	27.07
363.293	17.13
363.504	17.31
363.716	19.49
363.927	-0.37
364.138	11.57
364.349	17.71
364.56	10.53
364.772	23.24
364.983	36.12
365.194	32.74
365.405	31.34
365.616	23.4
365.827	28.27
366.038	34.74
366.25	29
366.461	29.85
366.672	42.74
366.883	40.37
367.094	34.52
367.305	39.92
367.516	31.72
367.727	37.8
367.938	28.57
368.149	37.31
368.36	32.17
368.571	40.15
368.781	51.98
368.992	50.83
369.203	35.74
369.414	32.67
369.625	23.5
369.836	7.72
370.047	9.34
370.258	11.81
370.468	14.01
370.679	8.3
370.89	6.22
371.101	-8.78
371.312	0.79
371.522	-3.71
371.733	12.62
371.944	25.33
372.155	38.62
372.365	31.35
372.576	27.93
372.787	26.11
372.997	23.9
373.208	21.2
373.419	26.47
373.629	31.3
373.84	30.09
374.05	28.36
374.261	25.58
374.472	28.76
374.682	28.18
374.893	32.11
375.103	29.59
375.314	38.54
375.524	46.21
375.735	44.01
375.945	40.78
376.156	41.26
376.366	43.43
376.577	25.64
376.787	27.29
376.997	28.94
377.208	25.81
377.418	24.57
377.629	32.45
377.839	43.94
378.049	41.96
378.26	42.68
378.47	42.62
378.68	51.28
378.89	42.07
379.101	34.97
379.311	31.34
379.521	33.57
379.732	28.1
379.942	32.45
380.152	35.92
380.362	49.48
380.572	39.77
380.783	33.86
380.993	25.38
381.203	20.48
381.413	0.17
381.623	10.48
381.833	14.13
382.043	22.34
382.253	27.45
382.463	35.01
382.674	35.27
382.884	24.71
383.094	11.53
383.304	15.01
383.514	9.2
383.724	0.15
383.934	5.19
384.144	8.03
384.353	2.79
384.563	10.74
384.773	14.51
384.983	6.17
385.193	5.96
385.403	11
385.613	12.17
385.823	13.82
386.033	18.7
386.242	22.78
386.452	20.72
386.662	22.42
386.872	21.67
387.082	18.59
387.291	11.23
387.501	9.22
387.711	4.3
387.921	5.19
388.13	12.11
388.34	16.13
388.55	15.6
388.759	13.84
388.969	13.36
389.179	9.23
389.388	7.66
389.598	8.75
389.807	9.54
390.017	5.6
390.227	6.05
390.436	6.23
390.646	5.47
390.855	3.53
391.065	3.66
391.274	3.79
391.484	3.09
391.693	3.68
391.903	5.53
392.112	5.37
392.322	4.24
392.531	3.53
392.74	3.59
392.95	3.39
393.159	4.83
393.369	5.03
393.578	5.46
393.787	4.7
393.997	4.05
394.206	4.74
394.415	4.49
394.625	4.5
394.834	4.68
395.043	5.13
395.252	4.22
395.462	5.47
395.671	5.23
395.88	5.53
396.089	5.74
396.298	5.46
396.508	4.46
396.717	4.84
396.926	4.61
397.135	3.73
397.344	3.54
397.553	4.03
397.762	3.06
397.971	2.63
398.181	2.96
398.39	2.82
398.599	2.67
398.808	3.3
399.017	3.54
399.226	3.85
399.435	4.07
399.644	4.14
399.853	4.05
400.062	4.22
400.27	3.46
400.479	3.29
400.688	3.2
400.897	3.28
401.106	3.01
401.315	3.7
401.524	3.81
401.733	3.76
401.941	3.88
402.15	4.04
402.359	3.65
402.568	3.49
402.777	3.32
402.985	2.95
403.194	2.99
403.403	3.14
403.612	3.17
403.82	3.17
404.029	3.37
404.238	3.35
404.446	3.35
404.655	3.4
404.864	3.57
405.072	3.53
405.281	3.3
405.489	3.18
405.698	3.24
405.906	3.21
406.115	3.01
406.324	3.01
406.532	2.92
406.741	2.71
406.949	2.77
407.158	2.78
407.366	2.65
407.574	2.74
407.783	2.81
407.991	2.72
408.2	2.74
408.408	2.95
408.617	2.94
408.825	2.86
409.033	2.76
409.242	2.85
409.45	2.84
409.658	2.82
409.867	2.82
410.075	2.78
410.283	2.69
410.491	2.65
410.7	2.61
410.908	2.57
411.116	2.65
411.324	2.55
411.533	2.51
411.741	2.35
411.949	2.34
412.157	2.39
412.365	2.64
412.573	2.62
412.781	2.71
412.99	2.84
413.198	2.88
413.406	2.76
413.614	2.81
413.822	2.84
414.03	2.76
414.238	2.58
414.446	2.59
414.654	2.53
414.862	2.68
415.07	2.66
415.278	2.63
415.486	2.54
415.694	2.53
415.902	2.44
416.109	2.43
416.317	2.63
416.525	2.53
416.733	2.55
416.941	2.57
417.149	2.58
417.357	2.45
417.564	2.53
417.772	2.65
417.98	2.68
418.188	2.83
418.395	2.81
418.603	2.79
418.811	2.83
419.019	2.77
419.226	2.73
419.434	2.83
419.642	3.04
419.849	2.98
420.057	2.9
420.265	2.92
420.472	2.79
420.68	2.53
420.887	2.46
421.095	2.54
421.302	2.4
421.51	2.44
421.717	2.54
421.925	2.5
422.132	2.53
422.34	2.49
422.547	2.56
422.755	2.7
422.962	2.75
423.17	2.65
423.377	2.7
423.585	2.64
423.792	2.65
423.999	2.5
424.207	2.46
424.414	2.39
424.621	2.43
424.829	2.2
425.036	2.26
425.243	2.33
425.451	2.25
425.658	2.18
425.865	2.41
426.072	2.43
426.28	2.51
426.487	2.69
426.694	2.6
426.901	2.53
427.108	2.37
427.315	2.29
427.523	2.26
427.73	2.21
427.937	2
428.144	2.29
428.351	2.1
428.558	2.17
428.765	2.34
428.972	2.41
429.179	2.26
429.386	2.55
429.593	2.42
429.8	2.48
430.007	2.5
430.214	2.37
430.421	2.25
430.628	2.32
430.835	2.24
431.042	2.21
431.249	2.38
431.456	2.29
431.662	2.42
431.869	2.44
432.076	2.49
432.283	2.42
432.49	2.51
432.697	2.32
432.903	2.31
433.11	2.5
433.317	2.53
433.524	2.45
433.73	2.44
433.937	2.3
434.144	2.15
434.35	2.19
434.557	2.2
434.764	2.21
434.97	2.25
435.177	2.28
435.384	2.09
435.59	2.14
435.797	2.17
436.003	2.28
436.21	2.16
436.416	2.32
436.623	2.24
436.829	2.07
437.036	2.05
437.242	2.16
437.449	2.09
437.655	2.2
437.862	2.4
438.068	2.38
438.275	2.36
438.481	2.34
438.687	2.33
438.894	2.42
439.1	2.38
439.307	2.38
439.513	2.46
439.719	2.53
439.926	2.41
440.132	2.49
440.338	2.42
440.544	2.45
440.751	2.32
440.957	2.37
441.163	2.25
441.369	2.24
441.575	2.14
441.782	2.22
441.988	2.15
442.194	2.29
442.4	2.26
442.606	2.24
442.812	2.22
443.018	2.2
443.224	2.11
443.431	2.14
443.637	2.3
443.843	2.24
444.049	2.33
444.255	2.27
444.461	2.27
444.667	2.09
444.873	2.03
445.079	2.05
445.284	2.04
445.49	2.02
445.696	2.02
445.902	2.04
446.108	2.01
446.314	2.04
446.52	2.12
446.726	2.21
446.931	2.28
447.137	2.16
447.343	2.12
447.549	1.98
447.755	1.93
447.96	1.9
448.166	1.98
448.372	2.06
448.578	2.12
448.783	2.1
448.989	2.15
449.195	2.1
449.4	2.1
449.606	2.12
449.812	2.08
450.017	2.11
450.223	2.12
450.428	2.05
450.634	2.08
450.84	2.12
451.045	2.08
451.251	2.16
451.456	2.19
451.662	2.13
451.867	2.19
452.073	2.08
452.278	1.98
452.483	1.99
452.689	2.03
452.894	2.03
453.1	2.14
453.305	2.18
453.51	2.21
453.716	2.11
453.921	2.13
454.127	2.06
454.332	2
454.537	1.99
454.742	2
454.948	1.9
455.153	1.95
455.358	1.98
455.563	1.92
455.769	1.96
455.974	1.88
456.179	1.84
456.384	1.75
456.589	1.83
456.795	1.78
457	1.88
457.205	1.81
457.41	1.91
457.615	1.83
457.82	1.81
458.025	1.77
458.23	1.84
458.435	1.78
458.64	1.67
458.845	1.74
459.05	1.7
459.255	1.64
459.46	1.69
459.665	1.84
459.87	1.79
460.075	1.93
460.28	1.98
460.485	2.01
460.69	2.01
460.895	2.13
461.099	2.07
461.304	1.99
461.509	1.92
461.714	1.95
461.919	1.88
462.123	1.86
462.328	1.9
462.533	1.97
462.738	1.95
462.942	1.85
463.147	1.89
463.352	1.87
463.556	1.95
463.761	1.91
463.966	1.95
464.17	1.98
464.375	2.08
464.58	2
464.784	2.01
464.989	2.07
465.193	2.08
465.398	2.07
465.602	2.07
465.807	1.97
466.011	1.92
466.216	1.83
466.42	1.92
466.625	1.94
466.829	1.93
467.034	2.03
467.238	2.04
467.443	1.99
467.647	1.91
467.851	2.04
468.056	2.02
468.26	2.08
468.464	2.03
468.669	2.08
468.873	2.05
469.077	2.01
469.282	1.87
469.486	1.9
469.69	1.84
469.894	1.85
470.099	1.87
470.303	1.94
470.507	1.9
470.711	2.04
470.915	1.99
471.119	1.99
471.324	2.01
471.528	2.06
471.732	2.03
471.936	2.07
472.14	2.04
472.344	2.01
472.548	1.92
472.752	1.85
472.956	1.88
473.16	1.96
473.364	1.98
473.568	2.01
473.772	2.02
473.976	1.91
474.18	1.77
474.384	1.77
474.588	1.8
474.792	1.9
474.995	1.94
475.199	1.98
475.403	1.96
475.607	1.96
475.811	1.88
476.015	1.95
476.218	1.96
476.422	1.93
476.626	1.93
476.83	1.99
477.033	1.96
477.237	1.97
477.441	2.04
477.644	2.02
477.848	1.95
478.052	1.92
478.255	1.96
478.459	1.92
478.663	1.94
478.866	1.93
479.07	1.98
479.273	2.03
479.477	1.96
479.681	2.04
479.884	2.04
480.088	2
480.291	1.96
480.495	2.03
480.698	1.94
480.901	1.97
481.105	1.97
481.308	1.93
481.512	1.88
481.715	1.85
481.919	1.79
482.122	1.77
482.325	1.79
482.529	1.87
482.732	1.91
482.935	1.87
483.138	1.96
483.342	1.89
483.545	1.89
483.748	1.88
483.952	1.93
484.155	1.79
484.358	1.9
484.561	1.9
484.764	1.87
484.967	1.93
485.171	2.05
485.374	1.96
485.577	1.97
485.78	2.04
485.983	1.94
486.186	1.9
486.389	1.93
486.592	1.86
486.795	1.92
486.998	1.99
487.201	1.98
487.404	2.04
487.607	2.1
487.81	2.03
488.013	2.03
488.216	2.07
488.419	1.99
488.622	1.96
488.825	1.94
489.028	1.97
489.231	1.93
489.433	1.94
489.636	1.93
489.839	2.01
490.042	1.94
490.245	1.95
490.447	1.95
490.65	2
490.853	1.98
491.056	2.04
491.258	2.02
491.461	2.01
491.664	1.92
491.866	1.94
492.069	1.93
492.272	2.02
492.474	2.12
492.677	2.16
492.879	2.11
493.082	2.07
493.285	2.06
493.487	2.01
493.69	1.99
493.892	2.01
494.095	2.06
494.297	2.05
494.5	2.09
494.702	2.14
494.905	2.11
495.107	2.1
495.309	2.07
495.512	1.97
495.714	2
495.917	2.04
496.119	2.04
496.321	2.06
496.524	2.09
496.726	2.1
496.928	2.1
497.13	2.09
497.333	2.06
497.535	2.1
497.737	2.06
497.939	2.08
498.142	2.09
498.344	2.18
498.546	2.16
498.748	2.21
498.95	2.3
499.152	2.27
499.355	2.21
499.557	2.21
499.759	2.16
499.961	2.19
500.163	2.23
500.365	2.2
500.567	2.24
500.769	2.28
500.971	2.23
501.173	2.24
501.375	2.31
501.577	2.32
501.779	2.37
501.981	2.37
502.183	2.39
502.385	2.42
502.587	2.39
502.788	2.4
502.99	2.4
503.192	2.38
503.394	2.32
503.596	2.36
503.798	2.41
503.999	2.42
504.201	2.41
504.403	2.45
504.605	2.46
504.806	2.43
505.008	2.48
505.21	2.47
505.411	2.4
505.613	2.38
505.815	2.36
506.016	2.3
506.218	2.38
506.42	2.41
506.621	2.4
506.823	2.44
507.024	2.47
507.226	2.46
507.427	2.48
507.629	2.55
507.83	2.5
508.032	2.49
508.233	2.52
508.435	2.58
508.636	2.59
508.838	2.61
509.039	2.62
509.24	2.57
509.442	2.56
509.643	2.56
509.845	2.54
510.046	2.56
510.247	2.61
510.448	2.63
510.65	2.63
510.851	2.64
511.052	2.61
511.254	2.61
511.455	2.63
511.656	2.63
511.857	2.64
512.058	2.67
512.26	2.64
512.461	2.59
512.662	2.56
512.863	2.52
513.064	2.5
513.265	2.47
513.466	2.54
513.667	2.55
513.868	2.63
514.069	2.68
514.27	2.74
514.471	2.75
514.672	2.78
514.873	2.8
515.074	2.81
515.275	2.87
515.476	2.83
515.677	2.83
515.878	2.8
516.079	2.75
516.28	2.74
516.481	2.74
516.682	2.76
516.882	2.72
517.083	2.77
517.284	2.76
517.485	2.78
517.686	2.79
517.886	2.84
518.087	2.83
518.288	2.85
518.488	2.81
518.689	2.82
518.89	2.78
519.091	2.83
519.291	2.83
519.492	2.84
519.692	2.86
519.893	2.96
520.094	2.9
520.294	2.93
520.495	2.98
520.695	2.98
520.896	2.91
521.096	2.94
521.297	3
521.497	3.02
521.698	2.98
521.898	3.01
522.099	3.07
522.299	3.01
522.499	3.01
522.7	3.07
522.9	3.12
523.101	3.09
523.301	3.12
523.501	3.15
523.702	3.16
523.902	3.13
524.102	3.17
524.302	3.15
524.503	3.15
524.703	3.2
524.903	3.25
525.103	3.24
525.304	3.21
525.504	3.21
525.704	3.17
525.904	3.11
526.104	3.07
526.304	3.13
526.504	3.14
526.705	3.13
526.905	3.2
527.105	3.27
527.305	3.23
527.505	3.2
527.705	3.22
527.905	3.18
528.105	3.18
528.305	3.23
528.505	3.26
528.705	3.27
528.905	3.24
529.105	3.22
529.304	3.2
529.504	3.24
529.704	3.26
529.904	3.36
530.104	3.43
530.304	3.43
530.503	3.44
530.703	3.4
530.903	3.41
531.103	3.39
531.303	3.41
531.502	3.42
531.702	3.44
531.902	3.41
532.101	3.38
532.301	3.43
532.501	3.44
532.7	3.5
532.9	3.53
533.1	3.6
533.299	3.61
533.499	3.67
533.698	3.59
533.898	3.58
534.097	3.6
534.297	3.59
534.496	3.56
534.696	3.61
534.895	3.61
535.095	3.62
535.294	3.66
535.494	3.7
535.693	3.76
535.892	3.8
536.092	3.8
536.291	3.79
536.491	3.8
536.69	3.84
536.889	3.84
537.088	3.84
537.288	3.88
537.487	3.93
537.686	3.93
537.886	4.01
538.085	4.08
538.284	4.12
538.483	4.09
538.682	4.12
538.882	4.09
539.081	4.08
539.28	4.14
539.479	4.17
539.678	4.19
539.877	4.26
540.076	4.27
540.275	4.26
540.474	4.27
540.673	4.28
540.872	4.3
541.071	4.31
541.27	4.32
541.469	4.34
541.668	4.33
541.867	4.32
542.066	4.34
542.265	4.4
542.464	4.45
542.663	4.54
542.862	4.61
543.06	4.68
543.259	4.73
543.458	4.76
543.657	4.82
543.856	4.85
544.054	4.87
544.253	4.85
544.452	4.87
544.651	4.87
544.849	4.84
545.048	4.86
545.247	4.98
545.445	5.02
545.644	5.03
545.843	5.16
546.041	5.19
546.24	5.16
546.438	5.22
546.637	5.28
546.836	5.27
547.034	5.34
547.233	5.41
547.431	5.41
547.63	5.43
547.828	5.51
548.027	5.55
548.225	5.57
548.423	5.63
548.622	5.73
548.82	5.77
549.019	5.82
549.217	5.82
549.415	5.9
549.614	5.89
549.812	5.89
550.01	5.93
550.209	6.04
550.407	6.05
550.605	6.11
550.803	6.21
551.002	6.26
551.2	6.34
551.398	6.41
551.596	6.48
551.794	6.51
551.993	6.57
552.191	6.57
552.389	6.64
552.587	6.66
552.785	6.75
552.983	6.77
553.181	6.84
553.379	6.82
553.577	6.94
553.775	7.01
553.973	7.13
554.171	7.22
554.369	7.38
554.567	7.41
554.765	7.51
554.963	7.58
555.161	7.69
555.359	7.75
555.557	7.95
555.755	7.99
555.952	8.03
556.15	8.02
556.348	8.13
556.546	8.08
556.744	8.1
556.941	8.13
557.139	8.25
557.337	8.35
557.535	8.41
557.732	8.44
557.93	8.57
558.128	8.61
558.325	8.62
558.523	8.7
558.721	8.81
558.918	8.86
559.116	9.03
559.313	9.11
559.511	9.25
559.708	9.38
559.906	9.57
560.104	9.57
560.301	9.64
560.498	9.7
560.696	9.75
560.893	9.7
561.091	9.78
561.288	9.91
561.486	9.93
561.683	10.03
561.88	10.12
562.078	10.21
562.275	10.15
562.473	10.29
562.67	10.31
562.867	10.39
563.064	10.44
563.262	10.54
563.459	10.63
563.656	10.76
563.853	10.88
564.051	10.95
564.248	11.01
564.445	11.09
564.642	11.15
564.839	11.15
565.036	11.37
565.234	11.46
565.431	11.55
565.628	11.6
565.825	11.64
566.022	11.57
566.219	11.7
566.416	11.67
566.613	11.73
566.81	11.85
567.007	11.9
567.204	11.89
567.401	11.96
567.598	12.04
567.795	12.05
567.991	12.11
568.188	12.22
568.385	12.25
568.582	12.29
568.779	12.35
568.976	12.41
569.172	12.42
569.369	12.47
569.566	12.51
569.763	12.53
569.96	12.57
570.156	12.59
570.353	12.59
570.55	12.63
570.746	12.66
570.943	12.72
571.14	12.66
571.336	12.71
571.533	12.63
571.729	12.69
571.926	12.69
572.123	12.78
572.319	12.82
572.516	12.93
572.712	12.91
572.909	12.88
573.105	12.96
573.302	12.99
573.498	12.97
573.695	13.02
573.891	13.06
574.087	12.94
574.284	12.98
574.48	13.03
574.677	13.01
574.873	13.01
575.069	13.14
575.266	13.11
575.462	13.06
575.658	13.13
575.854	13.25
576.051	13.19
576.247	13.18
576.443	13.21
576.639	13.2
576.835	13.09
577.032	13.09
577.228	13.07
577.424	13.05
577.62	13.01
577.816	13.01
578.012	13.02
578.208	13.04
578.404	12.98
578.6	12.99
578.796	12.97
578.993	12.93
579.189	12.86
579.384	12.85
579.58	12.75
579.776	12.67
579.972	12.68
580.168	12.67
580.364	12.68
580.56	12.72
580.756	12.77
580.952	12.72
581.148	12.69
581.343	12.75
581.539	12.75
581.735	12.7
581.931	12.68
582.127	12.7
582.322	12.58
582.518	12.51
582.714	12.52
582.909	12.48
583.105	12.4
583.301	12.42
583.496	12.42
583.692	12.35
583.888	12.3
584.083	12.34
584.279	12.3
584.474	12.28
584.67	12.23
584.866	12.18
585.061	12.15
585.257	12.02
585.452	12.14
585.648	12.14
585.843	12.15
586.039	12.18
586.234	12.28
586.429	12.1
586.625	12.05
586.82	12.07
587.015	11.99
587.211	11.92
587.406	11.94
587.601	12.01
587.797	12
587.992	12.03
588.187	12.1
588.383	12.08
588.578	11.98
588.773	11.91
588.968	11.93
589.163	11.92
589.359	11.9
589.554	11.95
589.749	11.99
589.944	11.9
590.139	11.9
590.334	11.94
590.529	12
590.724	12.02
590.919	12.1
591.114	12.12
591.309	12.08
591.504	12.06
591.699	12.11
591.894	12.03
592.089	12.08
592.284	12.15
592.479	12.08
592.674	12.08
592.869	12.09
593.064	12.11
593.259	12.21
593.454	12.37
593.648	12.42
593.843	12.49
594.038	12.48
594.233	12.43
594.428	12.39
594.622	12.44
594.817	12.55
595.012	12.51
595.206	12.54
595.401	12.63
595.596	12.68
595.79	12.71
595.985	12.83
596.18	12.93
596.374	12.94
596.569	12.93
596.763	12.98
596.958	13.07
597.153	13.02
597.347	13.1
597.542	13.2
597.736	13.29
597.931	13.26
598.125	13.45
598.319	13.47
598.514	13.43
598.708	13.45
598.903	13.54
599.097	13.52
599.291	13.51
599.486	13.58
599.68	13.54
599.874	13.54
600.069	13.6
600.263	13.65
600.457	13.71
600.651	13.67
600.846	13.78
601.04	13.81
601.234	13.8
601.428	13.83
601.622	14.04
601.817	13.99
602.011	14.01
602.205	14.14
602.399	14.2
602.593	14.19
602.787	14.17
602.981	14.13
603.175	14.17
603.369	14.1
603.563	14.09
603.757	14.08
603.951	14.12
604.145	13.99
604.339	13.97
604.533	13.86
604.727	13.84
604.921	13.73
605.115	13.7
605.309	13.74
605.502	13.86
605.696	13.82
605.89	13.82
606.084	13.84
606.278	13.73
606.471	13.53
606.665	13.48
606.859	13.45
607.053	13.41
607.246	13.35
607.44	13.32
607.634	13.3
607.827	13.22
608.021	13.1
608.214	13.05
608.408	13.09
608.602	13.02
608.795	13.03
608.989	13.03
609.182	13.02
609.376	12.93
609.569	12.88
609.763	12.72
609.956	12.65
610.15	12.57
610.343	12.47
610.537	12.45
610.73	12.39
610.923	12.45
611.117	12.46
611.31	12.39
611.504	12.35
611.697	12.36
611.89	12.24
612.083	12.09
612.277	12.05
612.47	11.91
612.663	11.84
612.856	11.72
613.05	11.71
613.243	11.66
613.436	11.6
613.629	11.53
613.822	11.56
614.015	11.56
614.209	11.48
614.402	11.46
614.595	11.48
614.788	11.36
614.981	11.25
615.174	11.17
615.367	11.13
615.56	11
615.753	10.98
615.946	10.88
616.139	10.94
616.332	10.92
616.525	10.83
616.718	10.78
616.911	10.87
617.103	10.76
617.296	10.67
617.489	10.68
617.682	10.62
617.875	10.5
618.067	10.44
618.26	10.42
618.453	10.32
618.646	10.3
618.838	10.2
619.031	10.2
619.224	10.26
619.417	10.34
619.609	10.37
619.802	10.36
619.994	10.28
620.187	10.08
620.38	10
620.572	9.93
620.765	9.89
620.957	9.86
621.15	9.89
621.342	9.84
621.535	9.86
621.727	9.83
621.92	9.75
622.112	9.69
622.305	9.67
622.497	9.52
622.69	9.51
622.882	9.6
623.074	9.64
623.267	9.66
623.459	9.7
623.651	9.66
623.844	9.62
624.036	9.58
624.228	9.57
624.42	9.5
624.613	9.5
624.805	9.48
624.997	9.44
625.189	9.34
625.381	9.44
625.574	9.45
625.766	9.46
625.958	9.44
626.15	9.5
626.342	9.41
626.534	9.38
626.726	9.3
626.918	9.29
627.11	9.21
627.302	9.14
627.494	9.05
627.686	9.02
627.878	9
628.07	8.95
628.262	8.98
628.454	8.93
628.646	8.9
628.838	8.89
629.029	8.9
629.221	8.84
629.413	8.83
629.605	8.81
629.797	8.77
629.989	8.78
630.18	8.77
630.372	8.76
630.564	8.75
630.755	8.7
630.947	8.66
631.139	8.57
631.33	8.57
631.522	8.5
631.714	8.44
631.905	8.39
632.097	8.45
632.289	8.4
632.48	8.33
632.672	8.36
632.863	8.3
633.055	8.19
633.246	8.21
633.438	8.27
633.629	8.24
633.821	8.25
634.012	8.29
634.203	8.27
634.395	8.19
634.586	8.28
634.777	8.16
634.969	8.11
635.16	8.11
635.351	8.08
635.543	7.94
635.734	8.06
635.925	8.07
636.117	8.03
636.308	8.04
636.499	8.02
636.69	7.91
636.881	7.89
637.073	7.89
637.264	7.87
637.455	7.92
637.646	7.96
637.837	7.87
638.028	7.77
638.219	7.8
638.41	7.72
638.601	7.68
638.792	7.65
638.983	7.64
639.174	7.6
639.365	7.54
639.556	7.46
639.747	7.52
639.938	7.6
640.129	7.55
640.32	7.61
640.511	7.63
640.701	7.55
640.892	7.5
641.083	7.52
641.274	7.48
641.465	7.42
641.655	7.43
641.846	7.44
642.037	7.35
642.228	7.31
642.418	7.29
642.609	7.28
642.8	7.2
642.99	7.24
643.181	7.2
643.372	7.2
643.562	7.22
643.753	7.19
643.943	7.17
644.134	7.15
644.324	7.15
644.515	7.12
644.705	7.05
644.896	6.95
645.086	6.96
645.277	6.96
645.467	6.95
645.658	6.97
645.848	7.06
646.038	7.06
646.229	7.02
646.419	6.98
646.61	6.95
646.8	6.95
646.99	6.91
647.18	6.85
647.371	6.8
647.561	6.73
647.751	6.64
647.941	6.55
648.132	6.61
648.322	6.62
648.512	6.68
648.702	6.71
648.892	6.71
649.082	6.63
649.272	6.64
649.462	6.68
649.653	6.58
649.843	6.56
650.033	6.52
650.223	6.44
650.413	6.35
650.603	6.39
650.793	6.35
650.983	6.33
651.172	6.35
651.362	6.32
651.552	6.27
651.742	6.29
651.932	6.33
652.122	6.35
652.312	6.34
652.502	6.31
652.691	6.29
652.881	6.27
653.071	6.27
653.261	6.33
653.45	6.31
653.64	6.31
653.83	6.3
654.019	6.18
654.209	6.09
654.399	6.09
654.588	5.95
654.778	5.87
654.968	5.79
655.157	5.72
655.347	5.68
655.536	5.65
655.726	5.52
655.915	5.52
656.105	5.43
656.294	5.36
656.484	5.32
656.673	5.3
656.863	5.18
657.052	5.08
657.241	4.85
657.431	4.84
657.62	4.75
657.809	4.63
657.999	4.64
658.188	4.63
658.377	4.56
658.567	4.5
658.756	4.52
658.945	4.45
659.134	4.51
659.324	4.47
659.513	4.45
659.702	4.4
659.891	4.33
660.08	4.16
660.269	4.03
660.458	3.89
660.648	3.91
660.837	3.88
661.026	4.02
661.215	3.91
661.404	3.86
661.593	3.74
661.782	3.69
661.971	3.57
662.16	3.62
662.349	3.69
662.538	3.68
662.726	3.69
662.915	3.64
663.104	3.6
663.293	3.49
663.482	3.44
663.671	3.27
663.86	3.26
664.048	3.2
664.237	3.2
664.426	3.17
664.615	3.22
664.803	3.09
664.992	3.08
665.181	3.1
665.369	3.11
665.558	3.11
665.747	3.19
665.935	3.17
666.124	3.2
666.312	3.19
666.501	3.22
666.69	3.15
666.878	3.18
667.067	3.09
667.255	3.15
667.444	3.2
667.632	3.4
667.82	3.43
668.009	3.55
668.197	3.55
668.386	3.61
668.574	3.52
668.762	3.51
668.951	3.56
669.139	3.59
669.327	3.48
669.516	3.63
669.704	3.7
669.892	3.71
670.08	3.8
670.269	3.84
670.457	3.71
670.645	3.66
670.833	3.68
671.021	3.68
671.21	3.74
671.398	3.83
671.586	3.84
671.774	3.9
671.962	3.99
672.15	4.05
672.338	4.08
672.526	4.26
672.714	4.29
672.902	4.19
673.09	4.38
673.278	4.47
673.466	4.42
673.654	4.51
673.842	4.72
674.03	4.69
674.218	4.76
674.405	4.91
674.593	4.82
674.781	4.83
674.969	4.77
675.157	4.78
675.344	4.78
675.532	4.95
675.72	5.03
675.908	5.14
676.095	5.14
676.283	5.2
676.471	5.29
676.658	5.34
676.846	5.29
677.033	5.46
677.221	5.48
677.409	5.48
677.596	5.52
677.784	5.72
677.971	5.72
678.159	5.96
678.346	6.01
678.534	6.04
678.721	6.1
678.909	6.26
679.096	6.06
679.283	6.05
679.471	6.08
679.658	6.04
679.846	6.05
680.033	6.11
680.22	6.29
680.408	6.32
680.595	6.44
680.782	6.52
680.969	6.7
681.157	6.62
681.344	6.56
681.531	6.44
681.718	6.47
681.905	6.53
682.093	6.58
682.28	6.65
682.467	6.98
682.654	6.99
682.841	6.94
683.028	6.99
683.215	7.17
683.402	7.03
683.589	7.12
683.776	7.29
683.963	7.32
684.15	7.37
684.337	7.52
684.524	7.67
684.711	7.76
684.898	7.82
685.085	7.88
685.271	8.01
685.458	7.91
685.645	7.92
685.832	8.22
686.019	8.47
686.205	8.67
686.392	9.07
686.579	9.35
686.766	9.41
686.952	9.49
687.139	9.43
687.326	9.55
687.512	9.61
687.699	9.76
687.886	9.96
688.072	10.13
688.259	10.2
688.445	10.46
688.632	10.87
688.818	11.18
689.005	11.55
689.191	11.9
689.378	12.28
689.564	12.66
689.751	12.92
689.937	13.48
690.124	13.69
690.31	13.93
690.496	14.25
690.683	14.75
690.869	14.81
691.055	15.29
691.242	15.72
691.428	16.03
691.614	16.17
691.8	16.63
691.987	17.17
692.173	17.63
692.359	18.13
692.545	18.82
692.731	19.43
692.918	19.87
693.104	20.36
693.29	20.93
693.476	21.44
693.662	22.26
693.848	22.99
694.034	23.63
694.22	23.98
694.406	24.72
694.592	24.94
694.778	25.39
694.964	25.95
695.15	26.74
695.336	27.13
695.522	28.01
695.708	28.82
695.894	29.4
696.08	29.88
696.265	30.64
696.451	31.1
696.637	31.48
696.823	32.04
697.009	32.65
697.194	33.3
697.38	34.13
697.566	34.94
697.751	35.82
697.937	36.61
698.123	37.42
698.308	37.98
698.494	38.4
698.68	38.8
698.865	39.4
699.051	39.83
699.236	40.42
699.422	41.19
699.607	42.06
699.793	43.05
699.978	43.47
700.164	44.05
700.349	44.66
700.535	45.01
700.72	45.35
700.906	46.18
701.091	46.77
701.276	47.68
701.462	48.45
701.647	49.16
701.832	49.87
702.018	50.36
702.203	50.89
702.388	51.66
702.573	52.19
702.759	52.68
702.944	53.39
703.129	53.73
703.314	54.16
703.499	54.5
703.684	55.05
703.87	55.53
704.055	56.12
704.24	56.39
704.425	57.21
704.61	58.04
704.795	58.54
704.98	58.91
705.165	59.7
705.35	60.28
705.535	60.54
705.72	61.06
705.905	61.64
706.09	61.98
706.275	62.28
706.459	62.77
706.644	63.12
706.829	63.53
707.014	63.82
707.199	63.94
707.384	64.35
707.568	64.91
707.753	65.2
707.938	65.63
708.123	65.96
708.307	65.98
708.492	66.48
708.677	66.7
708.861	67.58
709.046	68.21
709.231	68.71
709.415	68.8
709.6	69.31
709.784	69.31
709.969	69.53
710.153	69.75
710.338	70.15
710.522	70.81
710.707	70.73
710.891	70.87
711.076	71.52
711.26	71.77
711.445	71.92
711.629	72.27
711.813	72.83
711.998	73.01
712.182	73.44
712.366	73.55
712.551	73.97
712.735	74.24
712.919	74.41
713.103	74.26
713.288	74.15
713.472	73.89
713.656	73.88
713.84	74.17
714.024	74.55
714.208	74.55
714.393	75.28
714.577	75.53
714.761	75.47
714.945	75.46
715.129	76.24
715.313	76.18
715.497	76.88
715.681	77.19
715.865	77.26
716.049	77.23
716.233	77.37
716.417	77.16
716.601	77.11
716.785	77.49
716.968	77.84
717.152	78.17
717.336	78.71
717.52	78.77
717.704	78.97
717.888	79.38
718.071	79.46
718.255	79.33
718.439	79.68
718.622	79.94
718.806	79.73
718.99	80.2
719.174	79.53
719.357	79.73
719.541	79.8
719.724	79.87
719.908	80.18
720.092	80.96
720.275	81.15
720.459	80.96
720.642	81.5
720.826	81.44
721.009	81.98
721.193	82.19
721.376	82.48
721.559	82.69
721.743	82.94
721.926	83.02
722.11	82.73
722.293	82.91
722.476	82.5
722.66	82.91
722.843	82.67
723.026	83.2
723.21	83.77
723.393	84.26
723.576	84.09
723.759	84.04
723.942	83.92
724.126	84.34
724.309	84.64
724.492	84.85
724.675	85.63
724.858	86.14
725.041	85.77
725.224	85.67
725.407	85.82
725.59	85.87
725.774	86.31
725.957	87.38
726.14	87.66
726.322	87.82
726.505	87.91
726.688	87.8
726.871	87.79
727.054	88.56
727.237	88.6
727.42	89.06
727.603	89.21
727.786	88.49
727.968	87.95
728.151	88.24
728.334	88.05
728.517	88.13
728.699	88.94
728.882	89.06
729.065	89.17
729.248	89.37
729.43	89.48
729.613	89.75
729.796	89.95
729.978	90.88
730.161	90.8
730.343	90.75
730.526	91.57
730.708	91.93
730.891	91.75
731.073	92.06
731.256	93.18
731.438	91.74
731.621	91.94
731.803	91.9
731.986	92.04
732.168	92.23
732.35	92.95
732.533	93.2
732.715	93.23
732.898	94.06
733.08	94.43
733.262	94.31
733.444	94.41
733.627	95.36
733.809	94.85
733.991	94.66
734.173	95.44
734.355	95.82
734.538	95.51
734.72	96.9
734.902	97.95
735.084	98.46
735.266	98.18
735.448	98.32
735.63	97.64
735.812	96.71
735.994	95.15
736.176	95.32
736.358	96.46
736.54	96.23
736.722	97.09
736.904	99.14
737.086	99.45
737.268	98.17
737.45	99.02
737.632	98.7
737.814	97.45
737.995	97.96
738.177	97.97
738.359	98.42
738.541	97.87
738.723	99.06
738.904	99.64
739.086	100.43
739.268	100.3
739.449	100.83
739.631	100.75
739.813	100.84
739.994	100.8
740.176	101.24
740.358	101.39
740.539	101.72
740.721	101.79
740.902	101.53
741.084	101.26
741.265	101.41
741.447	101.02
741.628	100.46
741.81	100.34
741.991	100.02
742.172	100.3
742.354	101.59
742.535	102.96
742.717	103.03
742.898	104.12
743.079	103.95
743.261	103.05
743.442	101.06
743.623	100.5
743.804	100.22
743.986	99.27
744.167	99.4
744.348	99.45
744.529	100.95
744.71	100.54
744.891	102.57
745.073	102.34
745.254	104.14
745.435	103.9
745.616	103.38
745.797	102.57
745.978	102.18
746.159	102
746.34	103.15
746.521	102.61
746.702	102.27
746.883	102.21
747.064	100.36
747.245	99.81
747.426	100.71
747.606	99.29
747.787	101.68
747.968	103.7
748.149	104.03
748.33	104.91
748.51	107
748.691	105.52
748.872	105.36
749.053	105.19
749.233	103.81
749.414	103.42
749.595	103.82
749.775	103.83
749.956	103.82
750.137	104.25
750.317	103.93
750.498	104.84
750.678	104.5
750.859	104.51
751.04	104.5
751.22	104.4
751.4	102.96
751.581	102.81
751.761	102.73
751.942	101.91
752.122	102.76
752.303	103.31
752.483	102.92
752.663	102.12
752.844	102.47
753.024	102.7
753.204	101.75
753.385	102.16
753.565	103.76
753.745	104.95
753.925	104.86
754.106	106.81
754.286	106.79
754.466	106.68
754.646	107.67
754.826	107.22
755.006	106.85
755.187	108.13
755.367	108.1
755.547	106.32
755.727	107.01
755.907	105.72
756.087	105.85
756.267	104.29
756.447	104.95
756.627	104.73
756.807	104.21
756.987	103.25
757.167	103.98
757.346	104.75
757.526	104.02
757.706	103.72
757.886	102.67
758.066	102.88
758.246	102.39
758.425	104.45
758.605	106.45
758.785	107.72
758.965	109.87
759.144	111.25
759.324	109.44
759.504	108.57
759.683	108.37
759.863	106.54
760.043	105.04
760.222	104.16
760.402	103.67
760.581	104.45
760.761	101.86
760.94	100.79
761.12	102.01
761.299	102.18
761.479	102.53
761.658	104.12
761.838	105.35
762.017	105.12
762.197	105.26
762.376	104.71
762.555	104.31
762.735	103.23
762.914	101.91
763.093	101.2
763.273	99.03
763.452	98.86
763.631	98.14
763.81	98.64
763.99	99.68
764.169	101.7
764.348	102.93
764.527	104.66
764.706	103.54
764.885	103.72
765.064	103.61
765.243	103.21
765.423	103.08
765.602	103.21
765.781	102.74
765.96	101.64
766.139	100.4
766.318	99.67
766.497	102.57
766.676	102.48
766.854	103.9
767.033	105.73
767.212	105.39
767.391	102.38
767.57	103.09
767.749	100.09
767.928	99.47
768.106	101.82
768.285	102.02
768.464	100.65
768.643	103.17
768.821	102.44
769	102.24
769.179	104.02
769.357	103.88
769.536	101.66
769.715	101.16
769.893	100.79
770.072	98.63
770.25	99.46
770.429	101.21
770.607	100.01
770.786	98.61
770.964	99.02
771.143	98.97
771.321	97.63
771.5	101.25
771.678	102.88
771.857	102.67
772.035	105.53
772.213	107.03
772.392	104.51
772.57	102.34
772.748	102.78
772.927	99.29
773.105	98.15
773.283	97.18
773.461	96.62
773.64	97.42
773.818	98.21
773.996	97.9
774.174	98.41
774.352	99.24
774.531	99.21
774.709	99.24
774.887	100.09
775.065	100.48
775.243	101.12
775.421	100.62
775.599	97.55
775.777	95.9
775.955	95.3
776.133	97.82
776.311	98.75
776.489	101.44
776.667	104.03
776.844	104.95
777.022	103.75
777.2	102.38
777.378	100.94
777.556	100.37
777.734	98.33
777.911	95.16
778.089	95.85
778.267	97.27
778.445	94.35
778.622	96.74
778.8	99.88
778.978	98.37
779.155	98.28
779.333	98.38
779.511	96.68
779.688	92.83
779.866	89.79
780.043	91.05
780.221	93.1
780.398	92.87
780.576	95.2
780.753	100.38
780.931	98.13
781.108	97.23
781.286	98.15
781.463	97.02
781.64	97.49
781.818	99.14
781.995	98.83
782.172	101.02
782.35	102.54
782.527	104.04
782.704	101.89
782.882	103.9
783.059	100.91
783.236	99.37
783.413	97.74
783.59	96.83
783.768	96.61
783.945	100.41
784.122	100.41
784.299	99.56
784.476	100.46
784.653	102.21
784.83	101.85
785.007	100.87
785.184	103.27
785.361	103.09
785.538	99.71
785.715	97.4
785.892	97.37
786.069	97.78
786.246	100.01
786.423	101.68
786.6	102.91
786.776	104.81
786.953	100.76
787.13	100.15
787.307	101.07
787.484	101.18
787.66	104.07
787.837	105.61
788.014	107.45
788.191	104.92
788.367	106.13
788.544	104.97
788.721	104.69
788.897	104.56
789.074	104.7
789.25	100.97
789.427	99.85
789.603	98.14
789.78	96.95
789.956	96.98
790.133	99.12
790.309	101.06
790.486	98.67
790.662	100.41
790.839	101.83
791.015	97.26
791.192	93.49
791.368	98.09
791.544	93.29
791.721	95.31
791.897	95.9
792.073	98.71
792.249	96.8
792.426	99.51
792.602	95.57
792.778	94.98
792.954	89.68
793.13	90.1
793.307	87.47
793.483	89.04
793.659	94.49
793.835	95.34
794.011	96.69
794.187	98.27
794.363	100.36
794.539	96.99
794.715	100.69
794.891	101.1
795.067	99.01
795.243	94
795.419	95.93
795.595	93.63
795.771	93
795.947	93.85
796.122	94.9
796.298	91.61
796.474	92.64
796.65	89.95
796.826	90.33
797.001	95.99
797.177	92.67
797.353	91.9
797.529	98.05
797.704	100.02
797.88	97.3
798.056	99.84
798.231	106.67
798.407	99.74
798.582	96.08
798.758	95.07
798.934	98.14
799.109	92.63
799.285	97.42
799.46	102.24
799.636	103.22
799.811	99.63
799.986	95.94
800.162	87.3
800.337	85.22
800.513	78.84
800.688	81.28
800.863	85.91
801.039	93.06
801.214	92.63
801.389	102.46
801.565	97.24
801.74	103.83
801.915	103.22
802.09	102.04
802.265	97.98
802.441	99.51
802.616	87.79
802.791	88.36
802.966	88.84
803.141	80.65
803.316	82.41
803.491	84.47
803.666	86.3
803.841	84.39
804.016	94.06
804.191	96.37
804.366	108.02
804.541	100.39
804.716	102.54
804.891	104.66
805.066	108.96
805.241	95.93
805.416	91.71
805.591	88.75
805.765	82.49
805.94	78.15
806.115	73.6
806.29	79.31
806.464	81.97
806.639	91.49
806.814	88.57
806.989	94.57
807.163	88.64
807.338	92.55
807.512	86.23
807.687	91.24
807.862	91.57
808.036	99.25
808.211	92.73
808.385	91.9
808.56	93.32
808.734	90.37
808.909	94.99
809.083	96.27
809.258	98.08
809.432	98.77
809.606	99.41
809.781	94.01
809.955	92.18
810.13	90.53
810.304	84.08
810.478	93.89
810.652	91.37
810.827	91.31
811.001	94.55
811.175	104.22
811.349	99.16
811.524	94.34
811.698	94.1
811.872	90.2
812.046	82.71
812.22	77.94
812.394	84.97
812.568	90.14
812.742	101.06
812.916	106.94
813.09	109.45
813.264	110.74
813.438	106
813.612	105.09
813.786	93.76
813.96	102.81
814.134	99.43
814.308	99.51
814.482	97.39
814.656	106.11
814.83	99.28
815.003	101.03
815.177	103.76
815.351	104.48
815.525	103.83
815.698	109.44
815.872	113.91
816.046	115.79
816.219	109.99
816.393	123.94
816.567	119.56
816.74	112.57
816.914	100.38
817.088	101.82
817.261	96.98
817.435	102.23
817.608	101.95
817.782	103.56
817.955	108.54
818.129	104.19
818.302	99.12
818.475	93.16
818.649	104.55
818.822	105.28
818.996	100.98
819.169	99.85
819.342	97.51
819.516	91.15
819.689	93.01
819.862	94.2
820.035	86.8
820.209	87.09
820.382	93.87
820.555	90.89
820.728	94.06
820.901	84.44
821.075	96.28
821.248	103.8
821.421	99.93
821.594	95.53
821.767	107.61
821.94	101.53
822.113	81.24
822.286	75.57
822.459	75.74
822.632	74.32
822.805	75.39
822.978	84.03
823.151	95.22
823.324	90.88
823.496	94.28
823.669	87.71
823.842	90.78
824.015	94.47
824.188	88.57
824.361	88.26
824.533	100.79
824.706	95.1
824.879	80.07
825.051	94.74
825.224	94.14
825.397	103.8
825.569	97.89
825.742	102.2
825.915	96.63
826.087	102.21
826.26	92.66
826.432	109.46
826.605	100.26
826.777	93.46
826.95	88.85
827.122	69.21
827.295	52.05
827.467	57.1
827.64	52.81
827.812	54.9
827.984	59.98
828.157	64.36
828.329	70.2
828.501	84.64
828.674	78.25
828.846	93.46
829.018	100.38
829.19	94.81
829.363	91.88
829.535	93.78
829.707	91.84
829.879	91.01
830.051	92.45
830.223	95.26
830.395	87.88
830.568	85.9
830.74	92.38
830.912	85.4
831.084	82.7
831.256	84.37
831.428	81.93
831.6	78.53
831.772	88.47
831.943	92.89
832.115	98.23
832.287	103.22
832.459	91.24
832.631	95.61
832.803	114.75
832.975	125.03
833.146	129.6
833.318	131.73
833.49	154.36
833.662	142.69
833.833	123
834.005	108.77
834.177	137.62
834.348	120.22
834.52	104.54
834.692	110.06
834.863	108.09
835.035	91.67
835.206	87.73
835.378	70.94
835.549	75.78
835.721	74.43
835.892	87.1
836.064	90.46
836.235	116.18
836.407	105.7
836.578	96.66
836.749	82.53
836.921	66.93
837.092	59.77
837.264	70.12
837.435	89.2
837.606	84.84
837.777	94.78
837.949	89.36
838.12	75.21
838.291	66.76
838.462	83.4
838.633	101.01
838.805	116.21
838.976	123.11
839.147	124.13
839.318	118.15
839.489	100.24
839.66	120.31
839.831	133.43
840.002	121.43
840.173	104.51
840.344	106.18
840.515	73.63
840.686	72.48
840.857	67.89
841.028	75.31
841.199	73.19
841.369	62.95
841.54	77.54
841.711	88.18
841.882	80.43
842.053	77.98
842.223	98.95
842.394	81.72
842.565	80.2
842.736	79.98
842.906	152.66
843.077	127.61
843.248	193.19
843.418	146.91
843.589	104.62
843.759	73.55
843.93	67.24
844.101	68.42
844.271	62
844.442	86.62
844.612	103.46
844.783	112.97
844.953	97.32
845.123	110.57
845.294	65.31
845.464	54.06
845.635	60.47
845.805	67.92
845.975	74.13
846.146	119.15
846.316	115.15
846.486	130.32
846.656	108.97
846.827	98.13
846.997	93.26
847.167	74.41
847.337	45.45
847.507	47.11
847.677	63.15
847.848	74.23
848.018	108.84
848.188	145.86
848.358	149.25
848.528	158.86
848.698	163.57
848.868	145.68
849.038	154.58
849.208	76.52
849.378	69.28
849.548	43.85
849.718	49.16
849.887	34.73
850.057	68.16
850.227	63
850.397	65.58
850.567	63.02
850.737	75.12
850.906	45.84
851.076	56.92
851.246	64.92
851.415	68.87
851.585	75.75
851.755	94.04
851.924	79.83
852.094	78.76
852.264	66.51
852.433	57.59
852.603	60.98
852.772	70.26
852.942	76.89
853.111	80.72
853.281	85.73
853.45	90.96
853.62	66.35
853.789	41.84
853.959	68.3
854.128	76.88
854.297	75.77
854.467	148.26
854.636	156.53
854.805	117.51
854.975	111.25
855.144	76.07
855.313	66.92
855.482	91.58
855.652	85.07
855.821	101.1
855.99	95.47
856.159	97.88
856.328	90.93
856.497	87.91
856.667	69.48
856.836	95.02
857.005	97.82
857.174	81.15
857.343	102.29
857.512	109.95
857.681	110.75
857.85	82.41
858.019	59.4
858.188	53.29
858.356	80.91
858.525	73.85
858.694	69.41
858.863	90.05
859.032	85.39
859.201	69.75
859.369	98.29
859.538	101.58
859.707	87.51
859.876	64.04
860.044	65.25
860.213	49.91
860.382	63.55
860.55	96.44
860.719	126.32
860.888	168.12
861.056	140.42
861.225	153.82
861.393	137.57
861.562	148.46
861.73	147.49
861.899	144.34
862.067	110.01
862.236	108.25
862.404	89.67
862.572	77.15
862.741	68.3
862.909	66.48
863.078	50.7
863.246	55.42
863.414	54.77
863.582	59.04
863.751	64.72
863.919	74.79
864.087	78.19
864.255	69.45
864.424	66.28
864.592	53.76
864.76	60.13
864.928	70.32
865.096	67.25
865.264	55.71
865.432	67.15
865.6	58.34
865.768	51.19
865.936	40.36
866.104	21.81
866.272	3.57
866.44	23.15
866.608	5.17
866.776	48.61
866.944	103.35
867.112	110.11
867.28	86.39
867.448	95.03
867.615	73.13
867.783	60.83
867.951	62.52
868.119	73.34
868.286	71.37
868.454	73.92
868.622	52.3
868.789	81.32
868.957	63.93
869.125	59.02
869.292	37.88
869.46	62.77
869.627	48.9
869.795	61.44
869.963	79.19
870.13	92.84
870.298	65.66
870.465	87.6
870.632	71.09
870.8	58.6
870.967	90.54
871.135	136.79
871.302	97.94
871.469	93.69
871.637	105.11
871.804	87.88
871.971	62.05
872.139	74.08
872.306	76.98
872.473	64.78
872.64	41.01
872.807	49.12
872.975	37.26
873.142	34.35
873.309	30.85
873.476	59.56
873.643	62.53
873.81	63.56
873.977	70.04
874.144	74.2
874.311	80.71
874.478	86.93
874.645	90.96
874.812	105.64
874.979	108.26
875.146	99.59
875.313	88.91
875.48	111.09
875.647	94.2
875.813	135.52
875.98	117.12
876.147	93.23
876.314	77.57
876.481	86.82
876.647	99.85
876.814	102.59
876.981	111.87
877.147	150.45
877.314	124.27
877.481	110.36
877.647	86.38
877.814	67.03
877.98	26.01
878.147	-13.27
878.314	-23.83
878.48	14.68
878.647	28.09
878.813	51.88
878.979	79.92
879.146	59.94
879.312	100.94
879.479	96.89
879.645	96.87
879.811	92.3
879.978	65.18
880.144	47.15
880.31	56.38
880.477	42.4
880.643	49.04
880.809	77.84
880.975	126.28
881.142	92.54
881.308	92.64
881.474	224.72
881.64	224.41
881.806	285.31
881.972	204.84
882.138	227.59
882.304	104.98
882.47	56.41
882.636	47.81
882.802	46.05
882.968	31.96
883.134	25.94
883.3	51
883.466	60.6
883.632	73.24
883.798	60.44
883.964	69.89
884.129	140.24
884.295	44.62
884.461	32.86
884.627	53.46
884.793	81.11
884.958	79.05
885.124	91.87
885.29	95.36
885.455	86.15
885.621	76.74
885.787	52.29
885.952	48.79
886.118	50.62
886.283	74.8
886.449	81.97
886.614	69.43
886.78	89.26
886.945	96.57
887.111	95.13
887.276	69.19
887.442	99.05
887.607	104.24
887.773	105.36
887.938	54.49
888.103	84.05
888.269	87.15
888.434	77.75
888.599	54.54
888.764	61.05
888.93	80.96
889.095	75.86
889.26	87.14
889.425	114.39
889.59	116.66
889.756	73.93
889.921	37.9
890.086	4.43
890.251	7.96
890.416	-24.31
890.581	4.59
890.746	50.72
890.911	79.92
891.076	124.41
891.241	130.33
891.406	108.04
891.571	134.39
891.736	108.65
891.901	67.09
892.065	90.93
892.23	113.36
892.395	101.38
892.56	81.47
892.725	108.53
892.889	67.82
893.054	52.31
893.219	41.37
893.384	53.21
893.548	49.33
893.713	42.19
893.878	24.57
