Data from Ofav_PP_Phys_313_Reflection_2.txt Node
Date: Tue Jul 27 19:06:19 EDT 2021
User: USUARIO
Spectrometer: FLMT01687
Trigger mode: 0
Integration Time (sec): 8.500000E-1
Scans to average: 2
Electric dark correction enabled: true
Nonlinearity correction enabled: false
Boxcar width: 2
XAxis mode: Wavelengths
Number of Pixels in Spectrum: 3648
>>>>>Begin Spectral Data<<<<<
179.494	-1474.07
179.716	-488.17
179.937	-321.85
180.158	-274.65
180.38	-236.5
180.601	-162.51
180.823	-12.59
181.044	27.04
181.265	20.01
181.486	13.44
181.708	-5.66
181.929	3.54
182.15	12.04
182.372	-12.78
182.593	5.83
182.814	67.56
183.035	65.52
183.257	58.83
183.478	58.82
183.699	50.3
183.92	44.93
184.141	55.83
184.363	69.14
184.584	76.55
184.805	108.98
185.026	97.71
185.247	109.89
185.468	94.66
185.689	75.63
185.91	35.55
186.132	22.9
186.353	10.95
186.574	17.79
186.795	28.71
187.016	39.52
187.237	40.47
187.458	67
187.679	67.39
187.9	59.14
188.121	86.48
188.342	104.22
188.563	97.85
188.784	97.92
189.005	96.27
189.226	72.04
189.447	61.8
189.667	73.31
189.888	59.44
190.109	53.92
190.33	57.32
190.551	68.59
190.772	53.8
190.993	48.26
191.214	49.49
191.434	48.61
191.655	55.38
191.876	47.33
192.097	41.21
192.318	46.35
192.538	48.24
192.759	45.91
192.98	45.22
193.201	52.45
193.421	50.63
193.642	37.94
193.863	25.17
194.083	39.17
194.304	27.2
194.525	8.97
194.745	1.31
194.966	-15.29
195.187	-40.19
195.407	26.65
195.628	91.22
195.848	86.3
196.069	127.88
196.29	171.84
196.51	127.26
196.731	91.53
196.951	97.5
197.172	104.49
197.392	97.93
197.613	103.96
197.833	99.43
198.054	102.7
198.274	62.17
198.495	69.41
198.715	106.57
198.936	99.06
199.156	92.08
199.377	148.45
199.597	205.1
199.817	87.58
200.038	111.28
200.258	97.37
200.479	50.57
200.699	38.2
200.919	57.63
201.14	59.94
201.36	62.3
201.58	83.72
201.801	93.65
202.021	68.08
202.241	58.76
202.461	49.11
202.682	7.5
202.902	-5.93
203.122	17.77
203.342	35.43
203.563	45.15
203.783	61.84
204.003	55.49
204.223	42.69
204.443	34.18
204.663	15.36
204.884	1.76
205.104	1.71
205.324	26.67
205.544	32.33
205.764	38.44
205.984	30.83
206.204	55.83
206.424	44.3
206.644	43.53
206.864	37.7
207.084	39.43
207.304	38.59
207.525	33.29
207.745	34.28
207.964	49.94
208.184	63.05
208.404	58.02
208.624	64.84
208.844	62.51
209.064	60.49
209.284	50.51
209.504	51.52
209.724	25.97
209.944	11.78
210.164	-28.31
210.384	-43.61
210.604	-61.85
210.823	33.83
211.043	51.54
211.263	57.37
211.483	80.34
211.703	95.2
211.922	97.48
212.142	124.67
212.362	110.55
212.582	86.73
212.801	83.4
213.021	93.92
213.241	65.01
213.461	77.17
213.68	101.75
213.9	97.95
214.12	84.89
214.339	101.03
214.559	79.37
214.779	52.83
214.998	57.08
215.218	37.96
215.438	23.4
215.657	24.83
215.877	24.48
216.096	24.05
216.316	47.19
216.535	44.21
216.755	44.72
216.974	73.72
217.194	72.46
217.413	55.31
217.633	54.95
217.852	45.87
218.072	25.21
218.291	26.26
218.511	31.75
218.73	39.15
218.95	38.96
219.169	56
219.389	52.6
219.608	65.87
219.827	97.89
220.047	137.92
220.266	88.05
220.485	78.74
220.705	78.59
220.924	72.28
221.143	56.68
221.363	40.45
221.582	33.49
221.801	14.36
222.021	29
222.24	40.87
222.459	52.55
222.678	80.99
222.897	84.18
223.117	86.25
223.336	72.45
223.555	44.1
223.774	31.49
223.993	42.69
224.213	20.4
224.432	43.5
224.651	58.71
224.87	54.84
225.089	41.32
225.308	39.99
225.527	36.01
225.746	16.38
225.965	14.43
226.184	18.76
226.404	25.81
226.623	19.37
226.842	37.22
227.061	34.33
227.28	27.88
227.499	49.21
227.718	43.81
227.936	46.1
228.155	43.47
228.374	60.71
228.593	35.7
228.812	56.93
229.031	47.08
229.25	69.32
229.469	53.13
229.688	72.31
229.907	46.21
230.125	63.8
230.344	60.19
230.563	65.79
230.782	73.95
231.001	62.67
231.22	66.43
231.438	42.77
231.657	34.41
231.876	28.17
232.095	33.35
232.313	28.66
232.532	47.58
232.751	53.75
232.969	57.95
233.188	69.64
233.407	52.8
233.625	53.31
233.844	43.33
234.063	38.86
234.281	43.4
234.5	34.46
234.719	47.06
234.937	45.05
235.156	39.4
235.374	24.27
235.593	44.78
235.811	16.6
236.03	22.28
236.249	19.66
236.467	43.44
236.686	40.36
236.904	51.68
237.123	45.7
237.341	43.28
237.559	28.17
237.778	36.31
237.996	38.49
238.215	38.31
238.433	45.9
238.652	40.98
238.87	30.13
239.088	28.92
239.307	34.52
239.525	21.41
239.743	17.39
239.962	21.8
240.18	21.91
240.398	20
240.617	35.01
240.835	54.39
241.053	58.82
241.271	57.72
241.49	88.1
241.708	100.37
241.926	108.89
242.144	99.9
242.363	115.08
242.581	107.03
242.799	68.65
243.017	41.27
243.235	81.57
243.453	83.5
243.672	65.74
243.89	76.82
244.108	91.96
244.326	66.93
244.544	50.27
244.762	35.65
244.98	53.16
245.198	39.99
245.416	47.05
245.634	51.95
245.852	97.21
246.07	84.66
246.288	81.67
246.506	90.45
246.724	90.84
246.942	68.28
247.16	59.19
247.378	55.18
247.596	57.26
247.814	51.87
248.032	50.33
248.25	62.04
248.468	69.91
248.685	56.65
248.903	71.22
249.121	71.96
249.339	62
249.557	64.6
249.775	28.86
249.992	1.46
250.21	-0.65
250.428	1.51
250.646	-25.65
250.863	7.37
251.081	42.06
251.299	55.14
251.517	34.81
251.734	75.2
251.952	83.76
252.17	77.01
252.387	45.88
252.605	65.87
252.823	51.4
253.04	48.23
253.258	53
253.475	53.99
253.693	70.79
253.911	90.61
254.128	87.07
254.346	74.56
254.563	89.82
254.781	78.01
254.998	67.04
255.216	47.66
255.433	48.21
255.651	51.64
255.868	49.57
256.086	27.34
256.303	29.6
256.521	30.54
256.738	14.96
256.956	0.54
257.173	19.38
257.39	31.99
257.608	38.92
257.825	45.86
258.043	49.74
258.26	54.72
258.477	53.49
258.695	53.4
258.912	66.72
259.129	80.01
259.346	72.15
259.564	66.17
259.781	89.95
259.998	59.73
260.216	62.09
260.433	54.07
260.65	62.42
260.867	42.51
261.084	42.98
261.302	24.11
261.519	21.65
261.736	13.68
261.953	31.56
262.17	28.46
262.387	36.4
262.604	47.77
262.822	48.76
263.039	41.04
263.256	50.12
263.473	55.32
263.69	53.31
263.907	50.77
264.124	59.59
264.341	56.44
264.558	50.84
264.775	44.39
264.992	53.03
265.209	44.22
265.426	51.13
265.643	51.45
265.86	48.17
266.077	31.31
266.294	43.71
266.51	47.85
266.727	48.17
266.944	51.92
267.161	59.63
267.378	39.66
267.595	30.69
267.812	30.53
268.028	48.51
268.245	64.03
268.462	72.13
268.679	66.04
268.896	48.31
269.112	21.74
269.329	21.94
269.546	29.08
269.763	20.14
269.979	24.08
270.196	40.52
270.413	43.67
270.629	51.69
270.846	80.27
271.063	77.94
271.279	80.01
271.496	78.4
271.712	62.79
271.929	39.17
272.146	34.76
272.362	44.29
272.579	43.41
272.795	56.16
273.012	49.1
273.228	47
273.445	53.06
273.661	62.94
273.878	51.59
274.094	51.15
274.311	66.57
274.527	55.06
274.744	41.35
274.96	53.01
275.177	46.73
275.393	28.19
275.609	36.06
275.826	49.28
276.042	27.41
276.259	54.26
276.475	55.72
276.691	50.34
276.908	49.89
277.124	61.98
277.34	56.92
277.557	57.37
277.773	55.74
277.989	51.28
278.205	47.96
278.422	54.36
278.638	50.25
278.854	64.46
279.07	63.55
279.286	58.89
279.503	54.92
279.719	64.79
279.935	61.89
280.151	53.37
280.367	60.29
280.583	62.15
280.799	63.59
281.016	53.73
281.232	73.15
281.448	68.9
281.664	54.53
281.88	35.77
282.096	42.99
282.312	26.91
282.528	21.43
282.744	25.44
282.96	51.53
283.176	67.55
283.392	80.32
283.608	102.47
283.824	77.54
284.04	42.19
284.256	36.69
284.471	19.34
284.687	9.77
284.903	-0.85
285.119	21.64
285.335	23.17
285.551	23.48
285.767	31.51
285.982	34.86
286.198	29
286.414	14.73
286.63	26.81
286.846	11.57
287.061	19.68
287.277	14.9
287.493	11.57
287.709	5.49
287.924	13.29
288.14	13.4
288.356	42.45
288.571	63.64
288.787	68.66
289.003	80.65
289.218	80.74
289.434	56.98
289.65	37.66
289.865	19.45
290.081	25.68
290.296	29.38
290.512	28.71
290.727	31.12
290.943	53.47
291.159	55.04
291.374	62.96
291.59	62.32
291.805	61.87
292.021	60.71
292.236	62.17
292.451	59.9
292.667	74.74
292.882	61.5
293.098	52.56
293.313	53.57
293.529	58.12
293.744	47.2
293.959	60.99
294.175	61.17
294.39	47.56
294.605	44.33
294.821	43.72
295.036	26.15
295.251	20.8
295.467	11.55
295.682	-8.42
295.897	5.58
296.112	19.08
296.328	29.13
296.543	40.9
296.758	44.38
296.973	42.74
297.188	52.7
297.404	38.15
297.619	45
297.834	45.95
298.049	39.38
298.264	31.14
298.479	44.3
298.694	36.69
298.909	25.63
299.125	20.61
299.34	11.61
299.555	12.05
299.77	14.42
299.985	20.13
300.2	27.56
300.415	34.95
300.63	38.21
300.845	54.44
301.06	58.64
301.275	42.06
301.49	34.2
301.704	14.39
301.919	6.73
302.134	5.6
302.349	12.62
302.564	16.54
302.779	17.49
302.994	12.05
303.209	22.18
303.423	31.7
303.638	30.7
303.853	29.46
304.068	47.65
304.283	49.89
304.497	44.09
304.712	44.16
304.927	51.54
305.142	47.67
305.356	35.63
305.571	54.94
305.786	60.17
306	58.32
306.215	46.57
306.43	47.52
306.644	54.79
306.859	54.85
307.074	74.38
307.288	82.61
307.503	87.35
307.717	77.66
307.932	77.71
308.147	74.74
308.361	65.41
308.576	45.93
308.79	40.15
309.005	25.7
309.219	-6.07
309.434	-12.18
309.648	-2.11
309.863	-12.42
310.077	-3.29
310.292	14.79
310.506	14.5
310.72	31.82
310.935	41.23
311.149	41.55
311.364	27
311.578	33.35
311.792	11.93
312.007	21.95
312.221	31.54
312.435	29.38
312.649	28.03
312.864	35.55
313.078	32.48
313.292	55.82
313.507	73.98
313.721	110.42
313.935	89.91
314.149	76.52
314.363	64.99
314.578	60.18
314.792	43.03
315.006	46.75
315.22	44.31
315.434	50.49
315.648	57.6
315.862	54.32
316.077	49.85
316.291	60.1
316.505	51.38
316.719	52.56
316.933	44.41
317.147	44.11
317.361	28.7
317.575	35.19
317.789	17.82
318.003	23
318.217	24.57
318.431	35.63
318.645	27.26
318.859	34.44
319.073	26.79
319.287	24.49
319.5	16.33
319.714	15.38
319.928	19.4
320.142	15.55
320.356	21.84
320.57	35.92
320.784	40.31
320.997	39.6
321.211	53.28
321.425	43.42
321.639	25.54
321.853	22.38
322.066	27.68
322.28	6.12
322.494	12.48
322.707	25.73
322.921	24.69
323.135	20.43
323.349	37.04
323.562	33.02
323.776	35.82
323.989	22.94
324.203	23.51
324.417	2.76
324.63	28.46
324.844	32.87
325.057	55.71
325.271	62.11
325.485	78.5
325.698	62.61
325.912	50.38
326.125	56.13
326.339	56.75
326.552	50.83
326.766	61.55
326.979	58.47
327.193	42.45
327.406	25.95
327.619	12.57
327.833	14.19
328.046	37.32
328.26	39.11
328.473	51.16
328.686	63.82
328.9	63.64
329.113	48.92
329.326	49.7
329.54	56.3
329.753	51.25
329.966	34.42
330.179	41.88
330.393	47.62
330.606	23.77
330.819	51.5
331.032	47.98
331.246	49.17
331.459	46.58
331.672	56.53
331.885	44.1
332.098	68.12
332.311	65.79
332.525	62.74
332.738	57.41
332.951	57.52
333.164	49.17
333.377	42.7
333.59	50.65
333.803	51.86
334.016	31.04
334.229	20
334.442	27.13
334.655	27.62
334.868	29.23
335.081	43.43
335.294	42.82
335.507	54.08
335.72	59.42
335.933	45.44
336.146	43.88
336.359	45.75
336.572	44.24
336.785	40.81
336.997	58.63
337.21	69.87
337.423	67.3
337.636	45.29
337.849	35.66
338.062	44.12
338.274	31.98
338.487	42.1
338.7	41.71
338.913	51.6
339.125	40.02
339.338	41.94
339.551	22.18
339.763	26.2
339.976	13.76
340.189	19.21
340.402	18.25
340.614	10.29
340.827	24.4
341.039	15
341.252	-1.08
341.465	-20.49
341.677	19.86
341.89	12.25
342.102	33.07
342.315	40.92
342.527	52.95
342.74	50.78
342.952	39.94
343.165	45.53
343.377	44.95
343.59	38.71
343.802	26.86
344.015	38.79
344.227	33.17
344.44	39.1
344.652	39.65
344.864	44.68
345.077	46.82
345.289	39.12
345.502	36.69
345.714	46.27
345.926	42.42
346.139	31.48
346.351	36.57
346.563	27.14
346.775	12.3
346.988	11.92
347.2	-1.83
347.412	-6.79
347.624	5.62
347.837	4.26
348.049	5.73
348.261	21.15
348.473	18.76
348.685	40.08
348.897	48.31
349.11	44.36
349.322	40.84
349.534	39.61
349.746	35.26
349.958	39.99
350.17	49.81
350.382	42.57
350.594	26.23
350.806	39.56
351.018	45.17
351.23	45.78
351.442	53.56
351.654	94.53
351.866	58.2
352.078	50.41
352.29	37.56
352.502	41.59
352.714	29.3
352.926	40.08
353.138	46.65
353.35	57.96
353.561	40.21
353.773	46.7
353.985	38.27
354.197	24.11
354.409	33.96
354.621	48.27
354.832	39.96
355.044	39.05
355.256	50.3
355.468	55.76
355.679	56.99
355.891	65.23
356.103	81.25
356.314	74.82
356.526	59.67
356.738	76.67
356.949	76.41
357.161	64.25
357.373	65.19
357.584	69.58
357.796	63.22
358.008	56.86
358.219	53.7
358.431	52.57
358.642	40.3
358.854	37.44
359.065	33.72
359.277	48.45
359.488	55.7
359.7	57.33
359.911	53.46
360.123	61.66
360.334	41.42
360.546	29.48
360.757	33.35
360.969	25.24
361.18	19.13
361.391	28.05
361.603	25.52
361.814	32.15
362.025	46.49
362.237	47.32
362.448	35.77
362.659	35.92
362.871	38.98
363.082	33.96
363.293	30.14
363.504	44.42
363.716	44.97
363.927	35.07
364.138	20.93
364.349	25.56
364.56	23.38
364.772	18.54
364.983	24.68
365.194	40.79
365.405	44.93
365.616	34.19
365.827	40.92
366.038	49.96
366.25	45.29
366.461	42.93
366.672	57.51
366.883	38.72
367.094	36.65
367.305	37.87
367.516	28.41
367.727	25.25
367.938	30.85
368.149	40.44
368.36	37.89
368.571	41.86
368.781	41.93
368.992	41.32
369.203	14.39
369.414	18.56
369.625	20.4
369.836	13.17
370.047	13.15
370.258	24.32
370.468	23.3
370.679	11.05
370.89	15.36
371.101	27.72
371.312	38.71
371.522	28.61
371.733	41.05
371.944	49.68
372.155	38.03
372.365	18.47
372.576	24.29
372.787	28.15
372.997	27.34
373.208	29.94
373.419	37.74
373.629	41.28
373.84	33.78
374.05	31.92
374.261	18.45
374.472	31.39
374.682	29.97
374.893	38.7
375.103	30.95
375.314	47.09
375.524	30.59
375.735	28.14
375.945	18.85
376.156	32.12
376.366	28.36
376.577	29.36
376.787	37.29
376.997	36.14
377.208	32.64
377.418	42.17
377.629	47.59
377.839	41.48
378.049	43.06
378.26	32.34
378.47	22.66
378.68	29.77
378.89	31.88
379.101	33.34
379.311	40.74
379.521	42.82
379.732	37.53
379.942	40.58
380.152	42.84
380.362	50.45
380.572	46.97
380.783	42.95
380.993	28.14
381.203	24.47
381.413	10.07
381.623	18.12
381.833	15.77
382.043	27.53
382.253	29.5
382.463	30.66
382.674	35.36
382.884	31.36
383.094	21.48
383.304	33.52
383.514	36.87
383.724	22.62
383.934	26.56
384.144	27.82
384.353	16.94
384.563	22.87
384.773	29.84
384.983	23.03
385.193	21.43
385.403	19.22
385.613	15.62
385.823	12.37
386.033	16.2
386.242	18.96
386.452	19.23
386.662	23.42
386.872	23.09
387.082	21.37
387.291	15.39
387.501	14.87
387.711	8.35
387.921	9.17
388.13	9.76
388.34	13.15
388.55	14.22
388.759	12.93
388.969	12.41
389.179	16.37
389.388	17.38
389.598	19.01
389.807	18.99
390.017	18.73
390.227	18.72
390.436	19.62
390.646	16.59
390.855	15.43
391.065	12.48
391.274	8.83
391.484	5.38
391.693	6.81
391.903	8.1
392.112	9.37
392.322	9.86
392.531	9.23
392.74	6.68
392.95	6.3
393.159	5.33
393.369	5.64
393.578	7.06
393.787	7.5
393.997	7.68
394.206	10.25
394.415	10.13
394.625	9.54
394.834	9.24
395.043	8.92
395.252	7.33
395.462	8.22
395.671	7.51
395.88	8.42
396.089	8.19
396.298	7.97
396.508	7.08
396.717	7.43
396.926	6.17
397.135	5.65
397.344	5.63
397.553	6.24
397.762	5.92
397.971	6.52
398.181	6.61
398.39	6.27
398.599	6.18
398.808	6.61
399.017	6.72
399.226	7.16
399.435	7.87
399.644	7.51
399.853	7.35
400.062	7.45
400.27	7.18
400.479	6.41
400.688	6.65
400.897	6.63
401.106	6.87
401.315	7.4
401.524	7.8
401.733	7.4
401.941	7.18
402.15	6.65
402.359	6.15
402.568	5.97
402.777	5.96
402.985	5.86
403.194	6
403.403	6.13
403.612	5.99
403.82	6.01
404.029	6.34
404.238	6.25
404.446	6.4
404.655	6.45
404.864	6.5
405.072	6.4
405.281	6.34
405.489	6
405.698	6.09
405.906	6.15
406.115	5.93
406.324	5.93
406.532	5.91
406.741	5.85
406.949	5.82
407.158	5.96
407.366	5.85
407.574	5.99
407.783	5.95
407.991	5.86
408.2	5.94
408.408	6.08
408.617	5.99
408.825	6.02
409.033	5.98
409.242	5.82
409.45	5.65
409.658	5.65
409.867	5.49
410.075	5.46
410.283	5.56
410.491	5.59
410.7	5.63
410.908	5.66
411.116	5.7
411.324	5.55
411.533	5.59
411.741	5.32
411.949	5.43
412.157	5.47
412.365	5.61
412.573	5.56
412.781	5.64
412.99	5.63
413.198	5.69
413.406	5.69
413.614	5.8
413.822	5.85
414.03	5.83
414.238	5.58
414.446	5.47
414.654	5.48
414.862	5.5
415.07	5.31
415.278	5.51
415.486	5.44
415.694	5.15
415.902	5.11
416.109	5.25
416.317	5.21
416.525	5.23
416.733	5.38
416.941	5.61
417.149	5.35
417.357	5.26
417.564	5.18
417.772	5.17
417.98	4.99
418.188	5.31
418.395	5.27
418.603	5.35
418.811	5.43
419.019	5.28
419.226	5.22
419.434	5.45
419.642	5.52
419.849	5.48
420.057	5.56
420.265	5.61
420.472	5.43
420.68	5.24
420.887	5.25
421.095	5.25
421.302	5.11
421.51	5.02
421.717	5.02
421.925	4.98
422.132	5.05
422.34	5.05
422.547	5.18
422.755	5.35
422.962	5.26
423.17	5.23
423.377	5.28
423.585	5.33
423.792	5.26
423.999	5.19
424.207	5.15
424.414	5.18
424.621	5.01
424.829	4.95
425.036	5.01
425.243	4.93
425.451	4.75
425.658	4.69
425.865	4.74
426.072	4.7
426.28	4.75
426.487	4.87
426.694	4.8
426.901	4.83
427.108	4.89
427.315	4.85
427.523	4.66
427.73	4.67
427.937	4.48
428.144	4.39
428.351	4.31
428.558	4.51
428.765	4.69
428.972	4.91
429.179	4.95
429.386	5.17
429.593	5.11
429.8	5.03
430.007	4.89
430.214	4.94
430.421	4.96
430.628	4.97
430.835	5.04
431.042	4.99
431.249	5.01
431.456	4.98
431.662	5.01
431.869	5.14
432.076	5.15
432.283	4.99
432.49	4.88
432.697	4.85
432.903	4.8
433.11	5
433.317	5.03
433.524	5.02
433.73	4.99
433.937	4.77
434.144	4.65
434.35	4.7
434.557	4.74
434.764	4.71
434.97	4.71
435.177	4.81
435.384	4.69
435.59	4.74
435.797	4.75
436.003	4.85
436.21	4.61
436.416	4.81
436.623	4.73
436.829	4.61
437.036	4.61
437.242	4.78
437.449	4.6
437.655	4.62
437.862	4.73
438.068	4.62
438.275	4.67
438.481	4.77
438.687	4.81
438.894	4.84
439.1	4.81
439.307	4.62
439.513	4.63
439.719	4.74
439.926	4.68
440.132	4.87
440.338	4.89
440.544	4.78
440.751	4.62
440.957	4.65
441.163	4.48
441.369	4.51
441.575	4.55
441.782	4.65
441.988	4.62
442.194	4.78
442.4	4.85
442.606	4.8
442.812	4.8
443.018	4.79
443.224	4.67
443.431	4.57
443.637	4.75
443.843	4.55
444.049	4.58
444.255	4.5
444.461	4.57
444.667	4.42
444.873	4.44
445.079	4.5
445.284	4.46
445.49	4.45
445.696	4.49
445.902	4.54
446.108	4.51
446.314	4.58
446.52	4.67
446.726	4.68
446.931	4.76
447.137	4.71
447.343	4.67
447.549	4.57
447.755	4.53
447.96	4.48
448.166	4.51
448.372	4.61
448.578	4.62
448.783	4.7
448.989	4.75
449.195	4.72
449.4	4.75
449.606	4.76
449.812	4.68
450.017	4.6
450.223	4.62
450.428	4.5
450.634	4.48
450.84	4.45
451.045	4.52
451.251	4.56
451.456	4.63
451.662	4.65
451.867	4.82
452.073	4.7
452.278	4.61
452.483	4.53
452.689	4.59
452.894	4.55
453.1	4.61
453.305	4.64
453.51	4.72
453.716	4.63
453.921	4.59
454.127	4.56
454.332	4.52
454.537	4.52
454.742	4.49
454.948	4.43
455.153	4.5
455.358	4.62
455.563	4.58
455.769	4.61
455.974	4.62
456.179	4.56
456.384	4.41
456.589	4.51
456.795	4.39
457	4.36
457.205	4.31
457.41	4.34
457.615	4.29
457.82	4.35
458.025	4.35
458.23	4.46
458.435	4.52
458.64	4.39
458.845	4.44
459.05	4.46
459.255	4.48
459.46	4.44
459.665	4.53
459.87	4.46
460.075	4.6
460.28	4.59
460.485	4.57
460.69	4.56
460.895	4.6
461.099	4.51
461.304	4.5
461.509	4.57
461.714	4.62
461.919	4.69
462.123	4.71
462.328	4.71
462.533	4.63
462.738	4.63
462.942	4.56
463.147	4.5
463.352	4.43
463.556	4.58
463.761	4.5
463.966	4.43
464.17	4.52
464.375	4.59
464.58	4.48
464.784	4.62
464.989	4.84
465.193	4.82
465.398	4.85
465.602	4.86
465.807	4.68
466.011	4.61
466.216	4.56
466.42	4.61
466.625	4.6
466.829	4.67
467.034	4.71
467.238	4.72
467.443	4.69
467.647	4.65
467.851	4.75
468.056	4.67
468.26	4.68
468.464	4.61
468.669	4.65
468.873	4.62
469.077	4.61
469.282	4.63
469.486	4.67
469.69	4.6
469.894	4.54
470.099	4.53
470.303	4.47
470.507	4.49
470.711	4.68
470.915	4.74
471.119	4.73
471.324	4.79
471.528	4.75
471.732	4.61
471.936	4.67
472.14	4.71
472.344	4.76
472.548	4.77
472.752	4.77
472.956	4.66
473.16	4.73
473.364	4.68
473.568	4.75
473.772	4.8
473.976	4.75
474.18	4.65
474.384	4.53
474.588	4.53
474.792	4.51
474.995	4.51
475.199	4.56
475.403	4.6
475.607	4.51
475.811	4.54
476.015	4.61
476.218	4.61
476.422	4.61
476.626	4.66
476.83	4.68
477.033	4.76
477.237	4.79
477.441	4.84
477.644	4.79
477.848	4.72
478.052	4.59
478.255	4.56
478.459	4.59
478.663	4.59
478.866	4.61
479.07	4.74
479.273	4.75
479.477	4.69
479.681	4.77
479.884	4.77
480.088	4.7
480.291	4.71
480.495	4.72
480.698	4.62
480.901	4.7
481.105	4.72
481.308	4.72
481.512	4.73
481.715	4.72
481.919	4.65
482.122	4.58
482.325	4.6
482.529	4.65
482.732	4.64
482.935	4.64
483.138	4.74
483.342	4.61
483.545	4.59
483.748	4.63
483.952	4.65
484.155	4.67
484.358	4.82
484.561	4.87
484.764	4.83
484.967	4.9
485.171	4.84
485.374	4.73
485.577	4.69
485.78	4.73
485.983	4.62
486.186	4.58
486.389	4.59
486.592	4.53
486.795	4.56
486.998	4.63
487.201	4.63
487.404	4.69
487.607	4.77
487.81	4.76
488.013	4.69
488.216	4.75
488.419	4.69
488.622	4.57
488.825	4.56
489.028	4.62
489.231	4.57
489.433	4.59
489.636	4.66
489.839	4.67
490.042	4.6
490.245	4.64
490.447	4.64
490.65	4.66
490.853	4.6
491.056	4.69
491.258	4.67
491.461	4.72
491.664	4.67
491.866	4.74
492.069	4.71
492.272	4.68
492.474	4.68
492.677	4.7
492.879	4.68
493.082	4.61
493.285	4.64
493.487	4.63
493.69	4.67
493.892	4.66
494.095	4.81
494.297	4.81
494.5	4.86
494.702	4.86
494.905	4.97
495.107	4.9
495.309	4.87
495.512	4.84
495.714	4.81
495.917	4.71
496.119	4.77
496.321	4.79
496.524	4.85
496.726	4.91
496.928	4.95
497.13	4.98
497.333	5.01
497.535	5.05
497.737	5.08
497.939	5.07
498.142	5.04
498.344	5.06
498.546	4.96
498.748	4.95
498.95	5
499.152	4.94
499.355	4.91
499.557	4.97
499.759	4.95
499.961	4.92
500.163	4.92
500.365	4.97
500.567	4.92
500.769	4.98
500.971	4.98
501.173	5.01
501.375	5.06
501.577	5.17
501.779	5.13
501.981	5.16
502.183	5.17
502.385	5.13
502.587	5.01
502.788	5.07
502.99	5.06
503.192	5
503.394	5
503.596	5.09
503.798	5.1
503.999	5.14
504.201	5.16
504.403	5.2
504.605	5.17
504.806	5.19
505.008	5.22
505.21	5.26
505.411	5.16
505.613	5.12
505.815	5.1
506.016	5.01
506.218	5.03
506.42	5.02
506.621	5.11
506.823	5.12
507.024	5.11
507.226	5.08
507.427	5.1
507.629	5.07
507.83	5
508.032	5.02
508.233	5.05
508.435	5.1
508.636	5.11
508.838	5.14
509.039	5.16
509.24	5.1
509.442	5.11
509.643	5.06
509.845	5.08
510.046	5.14
510.247	5.18
510.448	5.19
510.65	5.26
510.851	5.22
511.052	5.18
511.254	5.21
511.455	5.15
511.656	5.12
511.857	5.12
512.058	5.06
512.26	5.05
512.461	5.07
512.662	5.01
512.863	4.96
513.064	4.93
513.265	4.87
513.466	4.87
513.667	4.92
513.868	4.98
514.069	5.02
514.27	5.06
514.471	5.06
514.672	5.05
514.873	5.07
515.074	5.12
515.275	5.12
515.476	5.04
515.677	5.02
515.878	5
516.079	4.99
516.28	5
516.481	5.05
516.682	5.11
516.882	5.1
517.083	5.11
517.284	5.12
517.485	5.09
517.686	5.08
517.886	5.1
518.087	5.04
518.288	5.03
518.488	5.08
518.689	5.08
518.89	5.09
519.091	5.14
519.291	5.13
519.492	5.12
519.692	5.1
519.893	5.15
520.094	5.12
520.294	5.12
520.495	5.14
520.695	5.16
520.896	5.1
521.096	5.13
521.297	5.21
521.497	5.21
521.698	5.16
521.898	5.18
522.099	5.22
522.299	5.11
522.499	5.14
522.7	5.13
522.9	5.12
523.101	5.09
523.301	5.15
523.501	5.17
523.702	5.23
523.902	5.21
524.102	5.26
524.302	5.29
524.503	5.28
524.703	5.32
524.903	5.37
525.103	5.28
525.304	5.26
525.504	5.26
525.704	5.2
525.904	5.16
526.104	5.17
526.304	5.15
526.504	5.12
526.705	5.15
526.905	5.18
527.105	5.21
527.305	5.21
527.505	5.25
527.705	5.28
527.905	5.29
528.105	5.3
528.305	5.3
528.505	5.31
528.705	5.31
528.905	5.28
529.105	5.29
529.304	5.3
529.504	5.31
529.704	5.31
529.904	5.39
530.104	5.36
530.304	5.39
530.503	5.4
530.703	5.34
530.903	5.35
531.103	5.39
531.303	5.37
531.502	5.33
531.702	5.35
531.902	5.24
532.101	5.21
532.301	5.27
532.501	5.28
532.7	5.3
532.9	5.34
533.1	5.38
533.299	5.37
533.499	5.37
533.698	5.4
533.898	5.46
534.097	5.49
534.297	5.54
534.496	5.52
534.696	5.54
534.895	5.48
535.095	5.44
535.294	5.38
535.494	5.44
535.693	5.43
535.892	5.48
536.092	5.5
536.291	5.5
536.491	5.49
536.69	5.49
536.889	5.48
537.088	5.45
537.288	5.5
537.487	5.53
537.686	5.55
537.886	5.66
538.085	5.66
538.284	5.64
538.483	5.67
538.682	5.71
538.882	5.67
539.081	5.77
539.28	5.79
539.479	5.79
539.678	5.81
539.877	5.81
540.076	5.79
540.275	5.8
540.474	5.73
540.673	5.67
540.872	5.69
541.071	5.73
541.27	5.77
541.469	5.85
541.668	5.86
541.867	5.9
542.066	5.85
542.265	5.89
542.464	5.89
542.663	5.97
542.862	6.04
543.06	6.1
543.259	6.11
543.458	6.12
543.657	6.17
543.856	6.15
544.054	6.16
544.253	6.12
544.452	6.17
544.651	6.12
544.849	6.1
545.048	6.15
545.247	6.23
545.445	6.25
545.644	6.27
545.843	6.36
546.041	6.32
546.24	6.32
546.438	6.32
546.637	6.35
546.836	6.32
547.034	6.38
547.233	6.49
547.431	6.53
547.63	6.59
547.828	6.63
548.027	6.69
548.225	6.66
548.423	6.62
548.622	6.63
548.82	6.67
549.019	6.67
549.217	6.67
549.415	6.82
549.614	6.85
549.812	6.85
550.01	6.88
550.209	6.96
550.407	6.92
550.605	6.98
550.803	7.05
551.002	7.08
551.2	7.15
551.398	7.23
551.596	7.26
551.794	7.26
551.993	7.33
552.191	7.27
552.389	7.28
552.587	7.36
552.785	7.39
552.983	7.38
553.181	7.46
553.379	7.46
553.577	7.5
553.775	7.61
553.973	7.65
554.171	7.74
554.369	7.85
554.567	7.88
554.765	7.94
554.963	8.02
555.161	8.07
555.359	8.1
555.557	8.18
555.755	8.17
555.952	8.18
556.15	8.22
556.348	8.27
556.546	8.27
556.744	8.33
556.941	8.45
557.139	8.51
557.337	8.6
557.535	8.64
557.732	8.68
557.93	8.75
558.128	8.81
558.325	8.86
558.523	8.96
558.721	9
558.918	8.99
559.116	9.14
559.313	9.17
559.511	9.27
559.708	9.41
559.906	9.55
560.104	9.6
560.301	9.68
560.498	9.73
560.696	9.77
560.893	9.85
561.091	9.86
561.288	10
561.486	10
561.683	10.07
561.88	10.05
562.078	10.08
562.275	10.04
562.473	10.14
562.67	10.24
562.867	10.37
563.064	10.43
563.262	10.52
563.459	10.66
563.656	10.7
563.853	10.79
564.051	10.85
564.248	10.91
564.445	10.93
564.642	10.91
564.839	10.98
565.036	11.17
565.234	11.25
565.431	11.31
565.628	11.4
565.825	11.4
566.022	11.45
566.219	11.49
566.416	11.49
566.613	11.62
566.81	11.77
567.007	11.69
567.204	11.71
567.401	11.87
567.598	11.89
567.795	11.91
567.991	12.01
568.188	12.18
568.385	12.18
568.582	12.27
568.779	12.29
568.976	12.44
569.172	12.49
569.369	12.49
569.566	12.5
569.763	12.56
569.96	12.58
570.156	12.54
570.353	12.61
570.55	12.6
570.746	12.63
570.943	12.71
571.14	12.8
571.336	12.88
571.533	12.91
571.729	12.93
571.926	12.89
572.123	12.94
572.319	13.02
572.516	13.1
572.712	13.15
572.909	13.21
573.105	13.24
573.302	13.24
573.498	13.24
573.695	13.23
573.891	13.25
574.087	13.23
574.284	13.25
574.48	13.33
574.677	13.4
574.873	13.41
575.069	13.49
575.266	13.42
575.462	13.39
575.658	13.37
575.854	13.42
576.051	13.4
576.247	13.48
576.443	13.56
576.639	13.68
576.835	13.62
577.032	13.55
577.228	13.58
577.424	13.51
577.62	13.43
577.816	13.47
578.012	13.54
578.208	13.53
578.404	13.55
578.6	13.6
578.796	13.57
578.993	13.62
579.189	13.58
579.384	13.58
579.58	13.58
579.776	13.58
579.972	13.54
580.168	13.6
580.364	13.55
580.56	13.57
580.756	13.63
580.952	13.54
581.148	13.44
581.343	13.49
581.539	13.35
581.735	13.24
581.931	13.26
582.127	13.27
582.322	13.21
582.518	13.17
582.714	13.23
582.909	13.28
583.105	13.26
583.301	13.24
583.496	13.31
583.692	13.25
583.888	13.18
584.083	13.23
584.279	13.24
584.474	13.25
584.67	13.2
584.866	13.21
585.061	13.11
585.257	13.05
585.452	13.08
585.648	13.1
585.843	13.06
586.039	13.16
586.234	13.2
586.429	13.07
586.625	13.1
586.82	13.15
587.015	13.09
587.211	13.07
587.406	13.2
587.601	13.17
587.797	13.17
587.992	13.12
588.187	13.17
588.383	13.05
588.578	12.96
588.773	12.92
588.968	13.01
589.163	13.04
589.359	13.08
589.554	13.2
589.749	13.25
589.944	13.21
590.139	13.16
590.334	13.22
590.529	13.2
590.724	13.14
590.919	13.19
591.114	13.22
591.309	13.11
591.504	13.09
591.699	13.18
591.894	13.08
592.089	13.03
592.284	13.11
592.479	13.09
592.674	13.1
592.869	13.13
593.064	13.26
593.259	13.32
593.454	13.46
593.648	13.43
593.843	13.44
594.038	13.39
594.233	13.39
594.428	13.42
594.622	13.54
594.817	13.71
595.012	13.74
595.206	13.75
595.401	13.82
595.596	13.83
595.79	13.78
595.985	13.89
596.18	13.97
596.374	13.95
596.569	13.97
596.763	14.06
596.958	14.14
597.153	14.11
597.347	14.1
597.542	14.09
597.736	14.07
597.931	13.99
598.125	14.2
598.319	14.25
598.514	14.39
598.708	14.46
598.903	14.51
599.097	14.54
599.291	14.62
599.486	14.55
599.68	14.53
599.874	14.6
600.069	14.61
600.263	14.71
600.457	14.76
600.651	14.83
600.846	14.79
601.04	14.76
601.234	14.68
601.428	14.73
601.622	14.73
601.817	14.76
602.011	14.77
602.205	14.83
602.399	14.8
602.593	14.89
602.787	14.89
602.981	14.81
603.175	14.87
603.369	14.82
603.563	14.82
603.757	14.85
603.951	14.84
604.145	14.69
604.339	14.76
604.533	14.71
604.727	14.7
604.921	14.77
605.115	14.77
605.309	14.75
605.502	14.76
605.696	14.78
605.89	14.72
606.084	14.64
606.278	14.66
606.471	14.57
606.665	14.4
606.859	14.36
607.053	14.48
607.246	14.41
607.44	14.39
607.634	14.39
607.827	14.33
608.021	14.16
608.214	14.06
608.408	13.99
608.602	13.96
608.795	13.96
608.989	13.99
609.182	13.95
609.376	13.89
609.569	13.77
609.763	13.68
609.956	13.52
610.15	13.5
610.343	13.41
610.537	13.45
610.73	13.39
610.923	13.47
611.117	13.43
611.31	13.39
611.504	13.38
611.697	13.33
611.89	13.22
612.083	13.13
612.277	13.07
612.47	12.96
612.663	12.92
612.856	12.72
613.05	12.64
613.243	12.7
613.436	12.63
613.629	12.62
613.822	12.69
614.015	12.69
614.209	12.54
614.402	12.43
614.595	12.37
614.788	12.32
614.981	12.2
615.174	12.22
615.367	12.29
615.56	12.16
615.753	12.1
615.946	12.09
616.139	12.02
616.332	11.9
616.525	11.9
616.718	11.82
616.911	11.76
617.103	11.82
617.296	11.77
617.489	11.69
617.682	11.64
617.875	11.65
618.067	11.53
618.26	11.49
618.453	11.49
618.646	11.58
618.838	11.46
619.031	11.47
619.224	11.54
619.417	11.56
619.609	11.46
619.802	11.51
619.994	11.45
620.187	11.36
620.38	11.26
620.572	11.27
620.765	11.23
620.957	11.18
621.15	11.18
621.342	11.19
621.535	11.17
621.727	11.12
621.92	11.1
622.112	11.03
622.305	11.03
622.497	10.96
622.69	10.88
622.882	10.87
623.074	10.87
623.267	10.81
623.459	10.81
623.651	10.79
623.844	10.81
624.036	10.77
624.228	10.77
624.42	10.73
624.613	10.81
624.805	10.73
624.997	10.78
625.189	10.76
625.381	10.77
625.574	10.69
625.766	10.74
625.958	10.69
626.15	10.72
626.342	10.68
626.534	10.7
626.726	10.71
626.918	10.61
627.11	10.53
627.302	10.51
627.494	10.41
627.686	10.31
627.878	10.39
628.07	10.46
628.262	10.42
628.454	10.35
628.646	10.3
628.838	10.18
629.029	10.13
629.221	10.1
629.413	10.21
629.605	10.17
629.797	10.24
629.989	10.2
630.18	10.2
630.372	10.1
630.564	10.1
630.755	10
630.947	9.98
631.139	9.94
631.33	9.94
631.522	9.93
631.714	9.89
631.905	9.84
632.097	9.82
632.289	9.78
632.48	9.74
632.672	9.73
632.863	9.72
633.055	9.66
633.246	9.69
633.438	9.67
633.629	9.66
633.821	9.62
634.012	9.64
634.203	9.6
634.395	9.57
634.586	9.7
634.777	9.68
634.969	9.7
635.16	9.71
635.351	9.76
635.543	9.62
635.734	9.64
635.925	9.63
636.117	9.6
636.308	9.49
636.499	9.45
636.69	9.38
636.881	9.37
637.073	9.42
637.264	9.53
637.455	9.52
637.646	9.53
637.837	9.54
638.028	9.41
638.219	9.33
638.41	9.38
638.601	9.42
638.792	9.32
638.983	9.37
639.174	9.3
639.365	9.27
639.556	9.2
639.747	9.2
639.938	9.17
640.129	9.25
640.32	9.28
640.511	9.28
640.701	9.28
640.892	9.26
641.083	9.28
641.274	9.2
641.465	9.17
641.655	9.19
641.846	9.23
642.037	9.11
642.228	9.13
642.418	9.08
642.609	8.99
642.8	8.95
642.99	8.97
643.181	8.87
643.372	8.88
643.562	8.86
643.753	8.85
643.943	8.85
644.134	8.89
644.324	8.87
644.515	8.91
644.705	8.82
644.896	8.79
645.086	8.76
645.277	8.79
645.467	8.75
645.658	8.7
645.848	8.74
646.038	8.67
646.229	8.63
646.419	8.66
646.61	8.71
646.8	8.58
646.99	8.65
647.18	8.58
647.371	8.57
647.561	8.52
647.751	8.52
647.941	8.47
648.132	8.53
648.322	8.43
648.512	8.54
648.702	8.58
648.892	8.54
649.082	8.6
649.272	8.58
649.462	8.54
649.653	8.57
649.843	8.53
650.033	8.43
650.223	8.43
650.413	8.38
650.603	8.26
650.793	8.31
650.983	8.3
651.172	8.36
651.362	8.38
651.552	8.39
651.742	8.33
651.932	8.36
652.122	8.29
652.312	8.23
652.502	8.21
652.691	8.2
652.881	8.13
653.071	8.14
653.261	8.12
653.45	8.02
653.64	8.09
653.83	8.05
654.019	7.89
654.209	7.89
654.399	7.93
654.588	7.78
654.778	7.71
654.968	7.69
655.157	7.58
655.347	7.51
655.536	7.46
655.726	7.4
655.915	7.46
656.105	7.36
656.294	7.23
656.484	7.25
656.673	7.25
656.863	7.1
657.052	7.11
657.241	7.11
657.431	6.94
657.62	6.78
657.809	6.62
657.999	6.56
658.188	6.5
658.377	6.5
658.567	6.52
658.756	6.52
658.945	6.41
659.134	6.4
659.324	6.34
659.513	6.3
659.702	6.23
659.891	6.21
660.08	6.04
660.269	5.9
660.458	5.71
660.648	5.79
660.837	5.75
661.026	5.79
661.215	5.79
661.404	5.83
661.593	5.7
661.782	5.59
661.971	5.58
662.16	5.53
662.349	5.5
662.538	5.49
662.726	5.47
662.915	5.39
663.104	5.39
663.293	5.39
663.482	5.34
663.671	5.27
663.86	5.2
664.048	5.1
664.237	5.02
664.426	4.97
664.615	4.91
664.803	4.81
664.992	4.89
665.181	4.94
665.369	4.94
665.558	4.99
665.747	5.1
665.935	5.07
666.124	5.07
666.312	5.03
666.501	5.07
666.69	5.06
666.878	5.05
667.067	5
667.255	5.1
667.444	5.19
667.632	5.26
667.82	5.32
668.009	5.34
668.197	5.38
668.386	5.37
668.574	5.39
668.762	5.37
668.951	5.49
669.139	5.61
669.327	5.58
669.516	5.74
669.704	5.78
669.892	5.86
670.08	5.86
670.269	5.95
670.457	5.87
670.645	5.86
670.833	5.79
671.021	5.76
671.21	5.65
671.398	5.71
671.586	5.8
671.774	5.87
671.962	5.94
672.15	6.17
672.338	6.28
672.526	6.38
672.714	6.49
672.902	6.51
673.09	6.61
673.278	6.71
673.466	6.84
673.654	6.99
673.842	7.12
674.03	7.23
674.218	7.31
674.405	7.41
674.593	7.29
674.781	7.38
674.969	7.27
675.157	7.21
675.344	7.16
675.532	7.25
675.72	7.32
675.908	7.47
676.095	7.59
676.283	7.72
676.471	7.84
676.658	7.88
676.846	7.87
677.033	8.04
677.221	8.18
677.409	8.17
677.596	8.26
677.784	8.52
677.971	8.46
678.159	8.51
678.346	8.55
678.534	8.54
678.721	8.49
678.909	8.61
679.096	8.56
679.283	8.77
679.471	8.85
679.658	8.92
679.846	8.92
680.033	8.99
680.22	9.06
680.408	9.2
680.595	9.24
680.782	9.32
680.969	9.45
681.157	9.61
681.344	9.5
681.531	9.57
681.718	9.74
681.905	9.72
682.093	9.67
682.28	9.84
682.467	10.14
682.654	10.04
682.841	10.24
683.028	10.19
683.215	10.36
683.402	10.09
683.589	10.34
683.776	10.51
683.963	10.74
684.15	10.81
684.337	11.09
684.524	11.23
684.711	11.22
684.898	11.32
685.085	11.38
685.271	11.59
685.458	11.52
685.645	11.73
685.832	11.9
686.019	12.18
686.205	12.22
686.392	12.64
686.579	12.66
686.766	12.81
686.952	12.83
687.139	13.03
687.326	13.14
687.512	13.3
687.699	13.5
687.886	13.81
688.072	13.93
688.259	14.13
688.445	14.41
688.632	14.65
688.818	14.71
689.005	14.98
689.191	15.26
689.378	15.55
689.564	15.98
689.751	16.36
689.937	16.84
690.124	17.2
690.31	17.5
690.496	17.89
690.683	18.24
690.869	18.58
691.055	18.85
691.242	19.34
691.428	19.69
691.614	20.15
691.8	20.58
691.987	20.95
692.173	21.35
692.359	21.94
692.545	22.35
692.731	22.85
692.918	23.36
693.104	23.85
693.29	24.13
693.476	24.66
693.662	25.43
693.848	26.06
694.034	26.45
694.22	26.86
694.406	27.43
694.592	27.57
694.778	28.07
694.964	28.62
695.15	29.21
695.336	29.72
695.522	30.31
695.708	30.84
695.894	31.56
696.08	32.03
696.265	32.51
696.451	33.1
696.637	33.58
696.823	34.06
697.009	34.87
697.194	35.72
697.38	36.4
697.566	37.29
697.751	37.94
697.937	38.26
698.123	38.79
698.308	39.03
698.494	39.43
698.68	40.01
698.865	40.52
699.051	40.68
699.236	41.39
699.422	42.07
699.607	42.65
699.793	43.43
699.978	44.29
700.164	45.06
700.349	45.31
700.535	45.74
700.72	46.26
700.906	46.68
701.091	47.27
701.276	48.17
701.462	48.8
701.647	49.49
701.832	50.3
702.018	50.56
702.203	50.72
702.388	51.33
702.573	51.73
702.759	51.94
702.944	52.43
703.129	53.06
703.314	53.37
703.499	53.52
703.684	54.12
703.87	54.57
704.055	54.87
704.24	55.19
704.425	56
704.61	56.26
704.795	56.83
704.98	57.42
705.165	58.03
705.35	58.65
705.535	59.41
705.72	59.92
705.905	60.36
706.09	61.11
706.275	61.36
706.459	61.6
706.644	61.89
706.829	62.13
707.014	62.18
707.199	62.22
707.384	62.46
707.568	63.08
707.753	63.56
707.938	63.58
708.123	64.49
708.307	65.05
708.492	65.23
708.677	65.46
708.861	66.39
709.046	66.57
709.231	66.77
709.415	66.97
709.6	67.09
709.784	67.3
709.969	67.65
710.153	68.05
710.338	68.32
710.522	68.92
710.707	68.8
710.891	69.19
711.076	69.71
711.26	69.96
711.445	70.14
711.629	70.41
711.813	70.32
711.998	70.38
712.182	70.69
712.366	71.35
712.551	71.61
712.735	71.96
712.919	72.16
713.103	72.33
713.288	72.22
713.472	72.62
713.656	72.78
713.84	72.75
714.024	72.94
714.208	72.89
714.393	73.15
714.577	73.53
714.761	74.29
714.945	74.36
715.129	75.08
715.313	75.27
715.497	75.65
715.681	75.59
715.865	76.04
716.049	76.17
716.233	76.83
716.417	77.13
716.601	77.4
716.785	77.42
716.968	77.39
717.152	77.27
717.336	77.11
717.52	76.92
717.704	77.21
717.888	77.93
718.071	78.21
718.255	78.38
718.439	78.65
718.622	78.91
718.806	78.7
718.99	78.9
719.174	78.74
719.357	79.14
719.541	79.29
719.724	79.51
719.908	79.29
720.092	79.88
720.275	80.13
720.459	80.57
720.642	80.65
720.826	81.34
721.009	81.17
721.193	81.57
721.376	82.32
721.559	82.61
721.743	82.21
721.926	82.59
722.11	82.08
722.293	81.53
722.476	81.51
722.66	82.1
722.843	82
723.026	82.77
723.21	83.29
723.393	83.25
723.576	83.67
723.759	83.71
723.942	83.56
724.126	83.74
724.309	84.82
724.492	84.8
724.675	85.08
724.858	85.27
725.041	85.5
725.224	85.29
725.407	85.17
725.59	85.8
725.774	86.12
725.957	86.37
726.14	86.78
726.322	87.28
726.505	87.2
726.688	87.04
726.871	86.4
727.054	86.46
727.237	86.88
727.42	87.86
727.603	88.41
727.786	88.96
727.968	88.71
728.151	88.57
728.334	88.02
728.517	88.17
728.699	87.76
728.882	88
729.065	88.02
729.248	88.62
729.43	88.75
729.613	89.94
729.796	89.67
729.978	90.37
730.161	89.97
730.343	89.95
730.526	90.37
730.708	91.21
730.891	91.21
731.073	91.64
731.256	91.96
731.438	91.62
731.621	92.12
731.803	92.32
731.986	93.12
732.168	93.36
732.35	93.24
732.533	92.85
732.715	92.6
732.898	91.94
733.08	92.61
733.262	92.97
733.444	92.87
733.627	93.08
733.809	93.37
733.991	93.18
734.173	93.52
734.355	94.4
734.538	94.87
734.72	95.5
734.902	96.08
735.084	96.18
735.266	96.07
735.448	95.99
735.63	96.37
735.812	95.51
735.994	94.92
736.176	94.67
736.358	95.92
736.54	95.45
736.722	96.09
736.904	97.53
737.086	97.62
737.268	96.6
737.45	97.03
737.632	96.5
737.814	96.27
737.995	97.15
738.177	97.45
738.359	97.83
738.541	98.53
738.723	98.85
738.904	98.57
739.086	98.74
739.268	98.84
739.449	98.86
739.631	98.14
739.813	98.18
739.994	98.36
740.176	98.14
740.358	97.8
740.539	98.26
740.721	98.59
740.902	97.69
741.084	97.58
741.265	97.65
741.447	97.23
741.628	95.89
741.81	96.11
741.991	96.89
742.172	97.75
742.354	98.99
742.535	100.9
742.717	101.44
742.898	101.11
743.079	100.3
743.261	99.11
743.442	98.39
743.623	98.27
743.804	96.89
743.986	98.05
744.167	98.5
744.348	97.04
744.529	96.21
744.71	96.89
744.891	96.81
745.073	96.55
745.254	98.66
745.435	99.27
745.616	98.24
745.797	96.07
745.978	96.05
746.159	96.81
746.34	96.85
746.521	97.51
746.702	98.21
746.883	97.3
747.064	94.45
747.245	94.39
747.426	94.74
747.606	94.8
747.787	96.67
747.968	98.45
748.149	99.34
748.33	99.76
748.51	101.38
748.691	99.99
748.872	99.59
749.053	99.43
749.233	99.2
749.414	97.7
749.595	98.01
749.775	98.97
749.956	98.65
750.137	98.33
750.317	98.29
750.498	98.53
750.678	98.52
750.859	98.36
751.04	98.15
751.22	98.44
751.4	97.36
751.581	96.96
751.761	97.84
751.942	97.3
752.122	97.27
752.303	97.32
752.483	96.87
752.663	96.51
752.844	98.2
753.024	98.37
753.204	99.06
753.385	98.25
753.565	99.02
753.745	98.39
753.925	97.99
754.106	98.06
754.286	98.87
754.466	97.44
754.646	97.21
754.826	96.28
755.006	98.68
755.187	98.84
755.367	100.4
755.547	99.97
755.727	101.65
755.907	97.97
756.087	97.9
756.267	96.54
756.447	97.82
756.627	96.53
756.807	97.44
756.987	96.23
757.167	97.07
757.346	96.12
757.526	97.3
757.706	97.03
757.886	97.52
758.066	97.42
758.246	97.32
758.425	98.06
758.605	98.78
758.785	99.26
758.965	99.87
759.144	102.57
759.324	101.93
759.504	103.11
759.683	103.44
759.863	102.56
760.043	100.81
760.222	100.07
760.402	97.61
760.581	97.22
760.761	95.83
760.94	94.45
761.12	95.72
761.299	97.25
761.479	97.49
761.658	98.1
761.838	99.21
762.017	98.4
762.197	97.87
762.376	98.31
762.555	96.49
762.735	96.48
762.914	95.67
763.093	94.9
763.273	93.84
763.452	95.99
763.631	93.43
763.81	94.33
763.99	95.61
764.169	96.01
764.348	96.25
764.527	98.68
764.706	96.41
764.885	96.52
765.064	97
765.243	96.87
765.423	96.68
765.602	96.45
765.781	97.1
765.96	95.75
766.139	94.35
766.318	93.7
766.497	96.63
766.676	95.04
766.854	95.83
767.033	96.99
767.212	97.39
767.391	96.22
767.57	96.76
767.749	94.31
767.928	92.9
768.106	93.9
768.285	91.85
768.464	90.57
768.643	94.07
768.821	94.23
769	94.13
769.179	96.29
769.357	96.8
769.536	93.8
769.715	94.65
769.893	94.9
770.072	93.87
770.25	94.71
770.429	95.58
770.607	93.71
770.786	93.81
770.964	93.49
771.143	92.09
771.321	92.12
771.5	94.37
771.678	93.6
771.857	92.58
772.035	94.5
772.213	94.45
772.392	92
772.57	91.47
772.748	94.49
772.927	92.68
773.105	93.3
773.283	94.79
773.461	93.31
773.64	91.9
773.818	93.18
773.996	92.84
774.174	92.5
774.352	91.54
774.531	93.47
774.709	92.78
774.887	94.39
775.065	94.79
775.243	94.53
775.421	93.52
775.599	92.3
775.777	91.08
775.955	87.99
776.133	91.22
776.311	90.98
776.489	91.5
776.667	91.75
776.844	95.97
777.022	94.51
777.2	95.83
777.378	95.64
777.556	95.06
777.734	92.45
777.911	92.03
778.089	90.38
778.267	87.23
778.445	83.57
778.622	83.28
778.8	85.77
778.978	84.57
779.155	86.6
779.333	89.21
779.511	88.03
779.688	85.43
779.866	83.86
780.043	85.51
780.221	87.23
780.398	90.57
780.576	92.94
780.753	98.29
780.931	95.56
781.108	93.84
781.286	92.4
781.463	90.95
781.64	88.48
781.818	91.3
781.995	91.95
782.172	92.55
782.35	92.04
782.527	92.06
782.704	90.89
782.882	91.37
783.059	89.92
783.236	89.02
783.413	89.88
783.59	89.57
783.768	86.38
783.945	90.42
784.122	91.66
784.299	90.55
784.476	90.23
784.653	92.23
784.83	90.54
785.007	90.33
785.184	92.6
785.361	93.03
785.538	92.36
785.715	89.79
785.892	88.5
786.069	87.46
786.246	85.86
786.423	87.91
786.6	89.02
786.776	91.23
786.953	90.22
787.13	95.06
787.307	93.37
787.484	95.94
787.66	99.03
787.837	100.56
788.014	101.1
788.191	102.14
788.367	102.14
788.544	99.74
788.721	96.17
788.897	92.21
789.074	89.72
789.25	84.99
789.427	82.37
789.603	82.45
789.78	82.54
789.956	85.4
790.133	87.83
790.309	89.21
790.486	86.83
790.662	91.64
790.839	90.79
791.015	87.57
791.192	88.83
791.368	93.44
791.544	85.28
791.721	87.55
791.897	90.54
792.073	88.47
792.249	87.71
792.426	96.13
792.602	92.49
792.778	91.28
792.954	89.43
793.13	87.06
793.307	84.88
793.483	84
793.659	82.17
793.835	83
794.011	85.59
794.187	81.71
794.363	82.44
794.539	81.78
794.715	82.93
794.891	82.76
795.067	81.56
795.243	82.08
795.419	84.49
795.595	85.12
795.771	88.61
795.947	88.78
796.122	89.29
796.298	89.14
796.474	87.26
796.65	85.41
796.826	90.83
797.001	91.24
797.177	92.72
797.353	92.5
797.529	91.98
797.704	88.74
797.88	87.4
798.056	87.86
798.231	88.93
798.407	85.97
798.582	84.3
798.758	84.41
798.934	80.6
799.109	80.75
799.285	87.74
799.46	91.61
799.636	90.71
799.811	91.25
799.986	87.22
800.162	82.51
800.337	80.72
800.513	84.55
800.688	88.5
800.863	92.75
801.039	95.22
801.214	95.19
801.389	92.41
801.565	88.72
801.74	94.15
801.915	92.08
802.09	92.75
802.265	97.88
802.441	101
802.616	88.05
802.791	85.81
802.966	93.12
803.141	85.78
803.316	82.25
803.491	90.86
803.666	93.72
803.841	87.77
804.016	92.14
804.191	93.62
804.366	99.91
804.541	98.88
804.716	90.6
804.891	86.34
805.066	89.91
805.241	83.5
805.416	80.16
805.591	78.52
805.765	81.38
805.94	81.27
806.115	83.14
806.29	83.57
806.464	94.38
806.639	92.54
806.814	87.63
806.989	84.63
807.163	86.89
807.338	81.67
807.512	86.17
807.687	92.21
807.862	84.59
808.036	80.63
808.211	79.82
808.385	73.66
808.56	68.58
808.734	71.17
808.909	76.48
809.083	78.25
809.258	80.52
809.432	86.23
809.606	84.94
809.781	79.5
809.955	75.53
810.13	75.99
810.304	76.42
810.478	83.51
810.652	84.71
810.827	88.25
811.001	88.07
811.175	86.8
811.349	80.45
811.524	79.11
811.698	81.51
811.872	83.34
812.046	84.06
812.22	82.71
812.394	88.54
812.568	94.45
812.742	92.85
812.916	88.58
813.09	86.71
813.264	85.78
813.438	85.34
813.612	90.08
813.786	84.91
813.96	94.82
814.134	88.85
814.308	88.1
814.482	85.47
814.656	88.98
814.83	86.1
815.003	91.02
815.177	90.28
815.351	97.49
815.525	97.91
815.698	91.74
815.872	94.63
816.046	93.53
816.219	83.61
816.393	88.96
816.567	96.1
816.74	92.5
816.914	89.44
817.088	83.91
817.261	80.85
817.435	86.44
817.608	84.64
817.782	88.69
817.955	107.47
818.129	117.17
818.302	112.96
818.475	121.04
818.649	111.86
818.822	102.97
818.996	96.84
819.169	96.56
819.342	82.79
819.516	75.59
819.689	77.7
819.862	73.86
820.035	62.48
820.209	65.06
820.382	71.72
820.555	69.85
820.728	67.05
820.901	67.56
821.075	73.68
821.248	93.41
821.421	80.94
821.594	81.84
821.767	92.65
821.94	95.29
822.113	74.64
822.286	83.86
822.459	92.51
822.632	91.15
822.805	92.17
822.978	88.7
823.151	92.08
823.324	89.63
823.496	85.9
823.669	78.87
823.842	82.09
824.015	86.62
824.188	79.1
824.361	93.02
824.533	105.13
824.706	105.38
824.879	100.47
825.051	97.21
825.224	81.64
825.397	84.62
825.569	83.04
825.742	73.13
825.915	82.34
826.087	98.51
826.26	103.9
826.432	117.62
826.605	117.52
826.777	93.92
826.95	90.83
827.122	74.32
827.295	66.44
827.467	64.62
827.64	64.12
827.812	57.96
827.984	68.03
828.157	69.05
828.329	72.33
828.501	110.09
828.674	102.07
828.846	95.78
829.018	98.01
829.19	108.62
829.363	82.15
829.535	95.07
829.707	91.85
829.879	90.13
830.051	76.63
830.223	87.16
830.395	81.7
830.568	88.83
830.74	92.55
830.912	86.28
831.084	87.3
831.256	81.01
831.428	79.07
831.6	77.8
831.772	96.42
831.943	94.01
832.115	96.83
832.287	111.05
832.459	103.27
832.631	98.93
832.803	111.25
832.975	109.5
833.146	92.2
833.318	91.21
833.49	102.8
833.662	108.25
833.833	102.08
834.005	119.17
834.177	149.9
834.348	142.03
834.52	108.56
834.692	113.18
834.863	112.04
835.035	98.94
835.206	83.02
835.378	74.91
835.549	82.81
835.721	64.57
835.892	69.57
836.064	86.53
836.235	108.06
836.407	103.96
836.578	103.53
836.749	96.52
836.921	90.61
837.092	92.42
837.264	78.94
837.435	84.57
837.606	81.98
837.777	73.91
837.949	55.24
838.12	60.56
838.291	76.2
838.462	83.23
838.633	134.44
838.805	147.58
838.976	147.33
839.147	119.57
839.318	112.26
839.489	91.98
839.66	103.61
839.831	114.41
840.002	118.83
840.173	120.99
840.344	116.63
840.515	120.13
840.686	101.9
840.857	98.94
841.028	110.67
841.199	111.01
841.369	88.82
841.54	107.86
841.711	109.04
841.882	82.5
842.053	72.69
842.223	89.79
842.394	90.22
842.565	95.57
842.736	140.81
842.906	222.73
843.077	174.23
843.248	164.4
843.418	120.18
843.589	73.33
843.759	60.46
843.93	50.19
844.101	62.66
844.271	62.32
844.442	77.72
844.612	92.84
844.783	78.78
844.953	52.07
845.123	58.8
845.294	34.94
845.464	56.71
845.635	94.52
845.805	130.62
845.975	142.55
846.146	187.66
846.316	127.57
846.486	116.11
846.656	85.32
846.827	65.64
846.997	65.06
847.167	74.22
847.337	69.19
847.507	67.32
847.677	78.91
847.848	78.12
848.018	98.26
848.188	108.67
848.358	123.04
848.528	154.6
848.698	170.1
848.868	163.65
849.038	171.67
849.208	123.51
849.378	112.64
849.548	75.4
849.718	98.61
849.887	86.45
850.057	99.35
850.227	91.2
850.397	104.13
850.567	76.54
850.737	79.57
850.906	67.31
851.076	66.31
851.246	56.58
851.415	64.82
851.585	77.48
851.755	83.11
851.924	86.81
852.094	90.97
852.264	73.53
852.433	61.02
852.603	67.3
852.772	66.1
852.942	76.27
853.111	103.76
853.281	107.71
853.45	113.42
853.62	80.48
853.789	66.74
853.959	63.35
854.128	60.88
854.297	52.37
854.467	116.26
854.636	151.63
854.805	130.56
854.975	138.74
855.144	119.28
855.313	107.51
855.482	92.52
855.652	88.85
855.821	107.7
855.99	93.16
856.159	79.12
856.328	98.21
856.497	82.61
856.667	90.74
856.836	144.15
857.005	170
857.174	125.93
857.343	166.42
857.512	116.48
857.681	60.61
857.85	61.17
858.019	36.49
858.188	17.61
858.356	39.55
858.525	75.17
858.694	80.26
858.863	82.75
859.032	86.94
859.201	75.43
859.369	72.28
859.538	46.03
859.707	61.98
859.876	64.39
860.044	91.7
860.213	109.52
860.382	124.46
860.55	144.11
860.719	152.1
860.888	151.44
861.056	102.81
861.225	104.87
861.393	117.16
861.562	117.8
861.73	127.41
861.899	106.72
862.067	108.91
862.236	97.38
862.404	87.43
862.572	63.44
862.741	79.02
862.909	74.19
863.078	56.87
863.246	64.9
863.414	92.75
863.582	121.28
863.751	101.63
863.919	125
864.087	158.34
864.255	107.05
864.424	83.2
864.592	63.44
864.76	54.4
864.928	36.68
865.096	21.27
865.264	38.47
865.432	55.25
865.6	47.58
865.768	33.21
865.936	50.78
866.104	32.91
866.272	20.39
866.44	18.09
866.608	37.82
866.776	33.78
866.944	79.44
867.112	103.39
867.28	92.58
867.448	82.81
867.615	92.83
867.783	82.45
867.951	64.41
868.119	90.54
868.286	110.95
868.454	101.38
868.622	110.32
868.789	135.71
868.957	126.15
869.125	129.87
869.292	105.15
869.46	89.91
869.627	75.54
869.795	74.7
869.963	76.09
870.13	84.39
870.298	62.45
870.465	104.4
870.632	114.41
870.8	105.78
870.967	131.5
871.135	145.81
871.302	87.12
871.469	81.89
871.637	69.78
871.804	50.91
871.971	49.11
872.139	85.38
872.306	65.68
872.473	94.09
872.64	102.9
872.807	118.35
872.975	78.36
873.142	113.49
873.309	82.22
873.476	76.02
873.643	52.79
873.81	82.1
873.977	45.28
874.144	52.64
874.311	53.45
874.478	71.59
874.645	69.58
874.812	108.19
874.979	112.07
875.146	97.4
875.313	84.76
875.48	88.33
875.647	63.62
875.813	75.28
875.98	69.62
876.147	53.74
876.314	65.22
876.481	82.5
876.647	59.23
876.814	69.66
876.981	76.15
877.147	67.21
877.314	64.14
877.481	85.56
877.647	74.16
877.814	68.19
877.98	80.35
878.147	55.93
878.314	53.74
878.48	87.5
878.647	104.89
878.813	61.42
878.979	68.12
879.146	55.42
879.312	33.59
879.479	64.91
879.645	65.13
879.811	80.89
879.978	83.64
880.144	90.27
880.31	85.55
880.477	98.26
880.643	105.83
880.809	123.92
880.975	141.56
881.142	159.37
881.308	82.42
881.474	184.88
881.64	183.55
881.806	97.69
881.972	166.22
882.138	221.8
882.304	137.28
882.47	100.52
882.636	101.18
882.802	76.26
882.968	61.63
883.134	50.95
883.3	77.32
883.466	77.49
883.632	100.63
883.798	129.87
883.964	263.22
884.129	337.34
884.295	200.31
884.461	117.01
884.627	59.71
884.793	59.59
884.958	57.77
885.124	57.85
885.29	64.94
885.455	76.11
885.621	66.51
885.787	54.44
885.952	64.91
886.118	55.92
886.283	66.76
886.449	62.17
886.614	68.22
886.78	76.16
886.945	86.67
887.111	83.41
887.276	73.49
887.442	83.1
887.607	81.53
887.773	68.17
887.938	62.4
888.103	108.13
888.269	124.1
888.434	84.09
888.599	76.47
888.764	86.16
888.93	78.68
889.095	53.59
889.26	88.64
889.425	96.13
889.59	102.12
889.756	84.04
889.921	68.78
890.086	45.56
890.251	57.94
890.416	31.9
890.581	50.73
890.746	102.24
890.911	121.41
891.076	136.17
891.241	129.39
891.406	114.05
891.571	77.55
891.736	86.48
891.901	114.52
892.065	134.26
892.23	129.27
892.395	140.74
892.56	105.73
892.725	66.88
892.889	74.56
893.054	74
893.219	61.31
893.384	76.3
893.548	52.62
893.713	29.27
893.878	14.07
