Data from Ofav_PP_Phys_360_Reflection_2.txt Node
Date: Tue Jul 27 19:08:52 EDT 2021
User: USUARIO
Spectrometer: FLMT01687
Trigger mode: 0
Integration Time (sec): 8.500000E-1
Scans to average: 2
Electric dark correction enabled: true
Nonlinearity correction enabled: false
Boxcar width: 2
XAxis mode: Wavelengths
Number of Pixels in Spectrum: 3648
>>>>>Begin Spectral Data<<<<<
179.494	-1942.96
179.716	-697.04
179.937	-507.98
180.158	-420.18
180.38	-477.96
180.601	-389.92
180.823	8.16
181.044	24.51
181.265	-6.03
181.486	-133.47
181.708	-27.4
181.929	-51.66
182.15	-22.65
182.372	-122.11
182.593	-62.19
182.814	16.51
183.035	39.68
183.257	39.37
183.478	28.51
183.699	29.61
183.92	63.17
184.141	59.34
184.363	69.75
184.584	73.46
184.805	91.76
185.026	48.42
185.247	48.77
185.468	35.84
185.689	23.87
185.91	-0.47
186.132	4.93
186.353	10.44
186.574	1.62
186.795	-8.56
187.016	-2.99
187.237	-0.47
187.458	-5.29
187.679	13.85
187.9	24.57
188.121	38.76
188.342	59.4
188.563	94.58
188.784	96
189.005	103.14
189.226	105.76
189.447	81.25
189.667	75.42
189.888	75.44
190.109	72.42
190.33	62.68
190.551	57.68
190.772	50.44
190.993	36.72
191.214	39.38
191.434	37.45
191.655	51.42
191.876	57.7
192.097	64.3
192.318	61.3
192.538	61.73
192.759	61.53
192.98	44.34
193.201	44.44
193.421	55.34
193.642	44.52
193.863	27.33
194.083	38.56
194.304	18.47
194.525	-10.67
194.745	-59.29
194.966	-93.19
195.187	-116.65
195.407	-71.09
195.628	-30.7
195.848	36.42
196.069	76.22
196.29	107.37
196.51	108.16
196.731	81.52
196.951	84.83
197.172	86.38
197.392	74.42
197.613	90.34
197.833	77.86
198.054	85.03
198.274	66.05
198.495	82.54
198.715	90.22
198.936	119.3
199.156	114.1
199.377	156.74
199.597	218.73
199.817	131.66
200.038	181.11
200.258	88.01
200.479	50.66
200.699	31.69
200.919	9.44
201.14	24.21
201.36	12.91
201.58	13.62
201.801	-1.48
202.021	21.83
202.241	22.73
202.461	12.45
202.682	-15.87
202.902	-15.97
203.122	-11.43
203.342	-10.62
203.563	36.2
203.783	49.27
204.003	40
204.223	35.49
204.443	24.72
204.663	-6.53
204.884	-10.24
205.104	11.79
205.324	12.18
205.544	12.03
205.764	3.69
205.984	16.23
206.204	5.79
206.424	-3.7
206.644	14.79
206.864	23.3
207.084	21.45
207.304	47.55
207.525	56.92
207.745	75.18
207.964	83.18
208.184	84.98
208.404	57.07
208.624	50.81
208.844	46.55
209.064	37.47
209.284	29.4
209.504	32.48
209.724	21.89
209.944	-36.37
210.164	-27.09
210.384	42.13
210.604	5.31
210.823	8
211.043	41.2
211.263	20.58
211.483	4.39
211.703	21.21
211.922	12.61
212.142	15.45
212.362	25.64
212.582	33.03
212.801	45.06
213.021	73.74
213.241	51.17
213.461	29.03
213.68	15.98
213.9	-14.06
214.12	-6.68
214.339	30.79
214.559	57.91
214.779	63.41
214.998	37.5
215.218	19.5
215.438	-6.21
215.657	8.13
215.877	-6.64
216.096	16.96
216.316	41.17
216.535	42.8
216.755	12.19
216.974	40.63
217.194	51.47
217.413	45.98
217.633	54.13
217.852	52.93
218.072	39.9
218.291	25.15
218.511	15.35
218.73	17.27
218.95	20.04
219.169	31.1
219.389	31.35
219.608	36.93
219.827	62.09
220.047	99.18
220.266	76.42
220.485	75.71
220.705	60.18
220.924	45.33
221.143	29.65
221.363	11.53
221.582	-3.46
221.801	12.63
222.021	30.35
222.24	41.84
222.459	42.18
222.678	59.35
222.897	55.11
223.117	67.41
223.336	54.39
223.555	30.43
223.774	33.33
223.993	38.1
224.213	17.99
224.432	20.25
224.651	54.29
224.87	45.77
225.089	40.09
225.308	40.03
225.527	45.45
225.746	32.84
225.965	37.86
226.184	51.91
226.404	41.37
226.623	35.73
226.842	36.27
227.061	31.45
227.28	21.16
227.499	32.47
227.718	45.08
227.936	43.03
228.155	54.71
228.374	60.47
228.593	66.61
228.812	61.86
229.031	66.65
229.25	49.27
229.469	45.07
229.688	23
229.907	2.49
230.125	17
230.344	40.17
230.563	44.71
230.782	52.15
231.001	49.55
231.22	48.05
231.438	35.48
231.657	31.58
231.876	18.45
232.095	35.81
232.313	34.76
232.532	37.99
232.751	40.56
232.969	53.19
233.188	47.72
233.407	39.06
233.625	49.78
233.844	32.67
234.063	30.16
234.281	37.55
234.5	40.22
234.719	56.58
234.937	54.05
235.156	49.75
235.374	38.54
235.593	44.64
235.811	14.54
236.03	13.98
236.249	15.37
236.467	22.82
236.686	33.33
236.904	36.01
237.123	35.88
237.341	42.4
237.559	33.13
237.778	29.87
237.996	30.89
238.215	31.58
238.433	40.24
238.652	29.71
238.87	17.09
239.088	16.24
239.307	24.34
239.525	-14.77
239.743	7.68
239.962	12.83
240.18	13.02
240.398	17.32
240.617	29.38
240.835	25.41
241.053	26.64
241.271	29.01
241.49	32.6
241.708	47.53
241.926	30.56
242.144	8.31
242.363	24.76
242.581	20.47
242.799	1.87
243.017	12.84
243.235	62.74
243.453	19.63
243.672	42.94
243.89	40.04
244.108	38.52
244.326	16.28
244.544	30.13
244.762	16.84
244.98	30.74
245.198	33.27
245.416	61.01
245.634	67.85
245.852	88.43
246.07	100.71
246.288	76.55
246.506	73.15
246.724	59.88
246.942	43.36
247.16	40.47
247.378	43.23
247.596	41.54
247.814	41.01
248.032	38.46
248.25	33.1
248.468	44.51
248.685	42.21
248.903	33.27
249.121	47.28
249.339	40.73
249.557	36.25
249.775	22.98
249.992	20.5
250.21	6.43
250.428	4.97
250.646	-9.37
250.863	14.05
251.081	46.21
251.299	70.36
251.517	88.88
251.734	118.55
251.952	125.07
252.17	114.2
252.387	75.65
252.605	61.17
252.823	48.54
253.04	55.02
253.258	61.44
253.475	71.84
253.693	82.82
253.911	97.06
254.128	86.12
254.346	78.29
254.563	76.87
254.781	53.18
254.998	44.6
255.216	32.57
255.433	30.14
255.651	49.43
255.868	56.19
256.086	38.34
256.303	36.97
256.521	48.23
256.738	43.32
256.956	49.85
257.173	47.02
257.39	47.53
257.608	49.65
257.825	53.45
258.043	45.42
258.26	54.27
258.477	46.09
258.695	37.91
258.912	33.68
259.129	50.08
259.346	52.46
259.564	83.71
259.781	93.25
259.998	69.78
260.216	58.74
260.433	58.95
260.65	52.05
260.867	35.32
261.084	27.18
261.302	11.78
261.519	20.26
261.736	24.59
261.953	29.76
262.17	45.43
262.387	40.77
262.604	45.9
262.822	42.49
263.039	51.02
263.256	43.27
263.473	57.16
263.69	49.07
263.907	27.9
264.124	24.88
264.341	30.91
264.558	31.24
264.775	22.78
264.992	49.26
265.209	46
265.426	44.04
265.643	45.18
265.86	30
266.077	7.41
266.294	12.32
266.51	20.28
266.727	17.32
266.944	29.83
267.161	5.1
267.378	-5.75
267.595	-9.18
267.812	-7.06
268.028	13.64
268.245	64.94
268.462	77.66
268.679	67.14
268.896	60.52
269.112	34.99
269.329	38.29
269.546	25.91
269.763	16.86
269.979	18.1
270.196	29.97
270.413	39.46
270.629	42.24
270.846	63.27
271.063	36.53
271.279	31.04
271.496	13.09
271.712	-19.09
271.929	-55.13
272.146	-42.89
272.362	-7.09
272.579	-8.71
272.795	18.64
273.012	28.8
273.228	34.23
273.445	21.08
273.661	26.87
273.878	19.29
274.094	9.23
274.311	12.96
274.527	28.11
274.744	33.08
274.96	25.34
275.177	26.96
275.393	28.6
275.609	16.12
275.826	11.96
276.042	19.82
276.259	32.59
276.475	29.76
276.691	21.88
276.908	17.62
277.124	34.56
277.34	49.15
277.557	38.33
277.773	43.89
277.989	50.14
278.205	36.48
278.422	25.14
278.638	36.73
278.854	56.99
279.07	49.99
279.286	46.53
279.503	48.09
279.719	58.2
279.935	48.8
280.151	53.02
280.367	54
280.583	48.99
280.799	41.67
281.016	33.29
281.232	27.78
281.448	28.59
281.664	19.89
281.88	7.97
282.096	8.8
282.312	18.45
282.528	22.69
282.744	2.21
282.96	16.14
283.176	11.49
283.392	15.87
283.608	23.32
283.824	45.29
284.04	14.61
284.256	22.15
284.471	19.81
284.687	7.32
284.903	11.03
285.119	33.59
285.335	23.86
285.551	21.72
285.767	39.13
285.982	37.82
286.198	42.09
286.414	39.62
286.63	33.57
286.846	31.32
287.061	21.16
287.277	16.7
287.493	20.04
287.709	22.87
287.924	20.83
288.14	37.69
288.356	46.91
288.571	69.89
288.787	64.66
289.003	54.77
289.218	42.8
289.434	42.96
289.65	15.81
289.865	9.94
290.081	14.29
290.296	9.67
290.512	2.82
290.727	15.44
290.943	41.76
291.159	62.58
291.374	98.87
291.59	76.33
291.805	72.09
292.021	50.38
292.236	48.15
292.451	29.08
292.667	37.32
292.882	38.97
293.098	27.24
293.313	42.97
293.529	57.45
293.744	38.42
293.959	38.11
294.175	44.48
294.39	21.62
294.605	16.2
294.821	26.48
295.036	12.28
295.251	14.48
295.467	12.92
295.682	2.72
295.897	20.59
296.112	49.56
296.328	51.62
296.543	69.36
296.758	64.9
296.973	59.78
297.188	58.68
297.404	43.83
297.619	40.27
297.834	34.08
298.049	30.72
298.264	16.1
298.479	29.31
298.694	12.94
298.909	10.02
299.125	10.01
299.34	16.28
299.555	27.08
299.77	33.42
299.985	44.5
300.2	56.37
300.415	52.03
300.63	27.54
300.845	36.52
301.06	32.47
301.275	25
301.49	24.95
301.704	31.62
301.919	31.25
302.134	48.87
302.349	49
302.564	61.78
302.779	56.39
302.994	57.95
303.209	47.13
303.423	40.4
303.638	24.01
303.853	28.59
304.068	46.01
304.283	47.91
304.497	39.97
304.712	41.36
304.927	29.84
305.142	12.02
305.356	-4.03
305.571	13.98
305.786	18.15
306	24.88
306.215	28.77
306.43	39.44
306.644	45.57
306.859	49.36
307.074	56.28
307.288	58.73
307.503	63.61
307.717	55.8
307.932	46.73
308.147	59.93
308.361	54.65
308.576	49.99
308.79	58.31
309.005	55.2
309.219	48.69
309.434	39.54
309.648	43.52
309.863	35.93
310.077	37.27
310.292	35.12
310.506	27.36
310.72	21.66
310.935	12.77
311.149	24.84
311.364	0.02
311.578	37.84
311.792	34.56
312.007	41.52
312.221	37.91
312.435	38.36
312.649	34.44
312.864	0.86
313.078	-20.28
313.292	-33.38
313.507	1.35
313.721	24.25
313.935	49.85
314.149	58.44
314.363	54.13
314.578	58.8
314.792	50.12
315.006	60.11
315.22	62.74
315.434	65.38
315.648	47.06
315.862	46.6
316.077	43.71
316.291	45.21
316.505	33.4
316.719	49.59
316.933	46.07
317.147	45.07
317.361	22.21
317.575	22.1
317.789	18.62
318.003	24.74
318.217	23.75
318.431	30.7
318.645	36.69
318.859	44.31
319.073	33.28
319.287	32.2
319.5	34.53
319.714	37.85
319.928	26.7
320.142	24.68
320.356	31.91
320.57	37.22
320.784	41.56
320.997	56.4
321.211	66.12
321.425	61.52
321.639	43.95
321.853	37.2
322.066	19.62
322.28	13.09
322.494	9.1
322.707	31.38
322.921	34.34
323.135	34.58
323.349	32.76
323.562	48.65
323.776	40.64
323.989	19.82
324.203	29.85
324.417	26.15
324.63	18.25
324.844	21.35
325.057	41.48
325.271	25.52
325.485	17.67
325.698	20.4
325.912	17.22
326.125	34.26
326.339	46.93
326.552	53.72
326.766	61.15
326.979	63.11
327.193	54.78
327.406	39.85
327.619	42.45
327.833	43.26
328.046	54.49
328.26	38.63
328.473	35.95
328.686	30.38
328.9	20.65
329.113	-2.55
329.326	-10.3
329.54	7.8
329.753	14.64
329.966	8.5
330.179	40.47
330.393	40
330.606	30.12
330.819	32.76
331.032	43.9
331.246	40.57
331.459	38.21
331.672	43
331.885	46.22
332.098	65.59
332.311	65.28
332.525	67.66
332.738	44.43
332.951	35.7
333.164	13.13
333.377	-17.65
333.59	-17.39
333.803	7.76
334.016	14.92
334.229	12.8
334.442	39.23
334.655	56.53
334.868	66.27
335.081	57.9
335.294	66.52
335.507	55.77
335.72	56.16
335.933	30.71
336.146	50.08
336.359	46.62
336.572	60.31
336.785	44.16
336.997	74.37
337.21	79.94
337.423	77.84
337.636	76.61
337.849	68.1
338.062	52.43
338.274	53.7
338.487	55.63
338.7	40.36
338.913	46.98
339.125	42.66
339.338	29.01
339.551	-2.35
339.763	18.5
339.976	23.12
340.189	27.6
340.402	27.8
340.614	40
340.827	37.18
341.039	32.35
341.252	16.24
341.465	-1.9
341.677	19.26
341.89	7.21
342.102	4.03
342.315	23.84
342.527	34.24
342.74	26.54
342.952	14.95
343.165	36.96
343.377	38.37
343.59	29.83
343.802	27.15
344.015	42.09
344.227	35.5
344.44	4.2
344.652	19.14
344.864	39.82
345.077	45.17
345.289	29.57
345.502	41.26
345.714	34.7
345.926	8.35
346.139	2.25
346.351	12.57
346.563	5.47
346.775	16.99
346.988	23.36
347.2	18.56
347.412	26.44
347.624	38.79
347.837	19.93
348.049	28.62
348.261	31.17
348.473	31.72
348.685	32.3
348.897	40.03
349.11	35.14
349.322	25.57
349.534	19.44
349.746	27.12
349.958	39.88
350.17	52.64
350.382	54.13
350.594	40.45
350.806	45.25
351.018	32.25
351.23	21.64
351.442	31.73
351.654	70.89
351.866	46.37
352.078	46.2
352.29	51.47
352.502	44.08
352.714	44.19
352.926	63.03
353.138	68.5
353.35	60.8
353.561	63.67
353.773	46.74
353.985	38.49
354.197	41.65
354.409	41.38
354.621	35.76
354.832	41.86
355.044	29.04
355.256	28.86
355.468	33.46
355.679	42.5
355.891	45.19
356.103	62.18
356.314	52.07
356.526	61.65
356.738	65.68
356.949	49.21
357.161	30.61
357.373	39.09
357.584	32.22
357.796	27.91
358.008	36.92
358.219	48.31
358.431	41.68
358.642	29.63
358.854	37.56
359.065	30.68
359.277	27.33
359.488	42.6
359.7	48.61
359.911	39.18
360.123	38.52
360.334	45.43
360.546	33.95
360.757	37.76
360.969	48.63
361.18	51.86
361.391	40
361.603	42.43
361.814	26.15
362.025	32.65
362.237	31.27
362.448	41.81
362.659	31.57
362.871	41.04
363.082	16.54
363.293	16.26
363.504	1.5
363.716	9.7
363.927	11.66
364.138	25
364.349	29
364.56	21.76
364.772	28.72
364.983	25.1
365.194	24.44
365.405	29.76
365.616	29.48
365.827	23.2
366.038	30.08
366.25	26.14
366.461	14.22
366.672	23.56
366.883	27.45
367.094	21.27
367.305	30.53
367.516	29.65
367.727	34.18
367.938	34.55
368.149	39.79
368.36	45.3
368.571	33.1
368.781	38.69
368.992	27.35
369.203	22.02
369.414	27.06
369.625	39.1
369.836	31.57
370.047	45.1
370.258	40.23
370.468	32.47
370.679	23.63
370.89	7.96
371.101	0.14
371.312	3.86
371.522	-7.21
371.733	7.24
371.944	16.96
372.155	32.13
372.365	29.71
372.576	38.6
372.787	35
372.997	38.08
373.208	28.62
373.419	28.81
373.629	29.86
373.84	24.32
374.05	25.52
374.261	25.1
374.472	31.31
374.682	28.21
374.893	41.62
375.103	39.92
375.314	47.53
375.524	47.77
375.735	43.39
375.945	30.12
376.156	31.25
376.366	21.5
376.577	25.16
376.787	26.15
376.997	37.58
377.208	44.95
377.418	46.49
377.629	44.55
377.839	62.49
378.049	50.43
378.26	41.99
378.47	39.73
378.68	40.84
378.89	31.03
379.101	28.68
379.311	26.47
379.521	27.13
379.732	23.77
379.942	26.22
380.152	27.86
380.362	32.9
380.572	24.1
380.783	28.09
380.993	17.17
381.203	9.63
381.413	-1.09
381.623	8.34
381.833	8.72
382.043	21.35
382.253	31.04
382.463	34.19
382.674	39.37
382.884	37.59
383.094	22.73
383.304	17.44
383.514	14.01
383.724	7.72
383.934	-1.34
384.144	-1.01
384.353	-1.74
384.563	2.89
384.773	3.1
384.983	9.55
385.193	13.58
385.403	19.64
385.613	19.91
385.823	20.86
386.033	17.94
386.242	23.73
386.452	19.72
386.662	24.71
386.872	24.62
387.082	24.31
387.291	10.76
387.501	12.08
387.711	4.96
387.921	6.77
388.13	9.58
388.34	17.01
388.55	13.84
388.759	12.76
388.969	11.4
389.179	11.23
389.388	13.08
389.598	16.52
389.807	17.54
390.017	16.77
390.227	16.95
390.436	15.21
390.646	13.15
390.855	11.88
391.065	8.59
391.274	6.25
391.484	4.31
391.693	3.79
391.903	5.52
392.112	7.57
392.322	8.08
392.531	7.8
392.74	7.83
392.95	7.6
393.159	8.63
393.369	8.36
393.578	10.49
393.787	10.31
393.997	10.04
394.206	10.36
394.415	10.88
394.625	10.12
394.834	9.6
395.043	9.62
395.252	9.77
395.462	9.54
395.671	8.94
395.88	10.13
396.089	10.41
396.298	9.59
396.508	9.4
396.717	9.73
396.926	9.09
397.135	8.01
397.344	7.36
397.553	7.43
397.762	6.59
397.971	6.55
398.181	7.26
398.39	7.45
398.599	7.33
398.808	7.76
399.017	8.21
399.226	8.23
399.435	8.48
399.644	8.82
399.853	8.88
400.062	8.66
400.27	8.33
400.479	8.08
400.688	7.85
400.897	7.82
401.106	7.72
401.315	8.21
401.524	8.31
401.733	8.24
401.941	8.31
402.15	8.25
402.359	7.71
402.568	7.65
402.777	7.74
402.985	7.7
403.194	8.03
403.403	8.22
403.612	8.15
403.82	8.09
404.029	8.07
404.238	7.92
404.446	7.93
404.655	7.98
404.864	7.96
405.072	7.88
405.281	7.74
405.489	7.45
405.698	7.58
405.906	7.51
406.115	7.34
406.324	7.41
406.532	7.44
406.741	7.26
406.949	7.27
407.158	7.29
407.366	7.07
407.574	7.22
407.783	7.23
407.991	7.16
408.2	7.28
408.408	7.47
408.617	7.42
408.825	7.51
409.033	7.6
409.242	7.51
409.45	7.4
409.658	7.29
409.867	7.15
410.075	6.98
410.283	6.92
410.491	6.85
410.7	6.89
410.908	6.93
411.116	6.96
411.324	6.87
411.533	6.71
411.741	6.58
411.949	6.56
412.157	6.62
412.365	6.77
412.573	6.81
412.781	6.82
412.99	6.79
413.198	6.9
413.406	6.82
413.614	7.01
413.822	7.13
414.03	7.14
414.238	6.97
414.446	6.92
414.654	6.77
414.862	6.8
415.07	6.77
415.278	6.78
415.486	6.69
415.694	6.74
415.902	6.64
416.109	6.66
416.317	6.7
416.525	6.7
416.733	6.69
416.941	6.77
417.149	6.64
417.357	6.67
417.564	6.61
417.772	6.68
417.98	6.67
418.188	6.85
418.395	6.56
418.603	6.83
418.811	6.88
419.019	6.76
419.226	6.72
419.434	7.01
419.642	6.94
419.849	6.84
420.057	6.71
420.265	6.78
420.472	6.5
420.68	6.43
420.887	6.48
421.095	6.48
421.302	6.35
421.51	6.38
421.717	6.35
421.925	6.3
422.132	6.35
422.34	6.27
422.547	6.3
422.755	6.49
422.962	6.4
423.17	6.44
423.377	6.49
423.585	6.56
423.792	6.46
423.999	6.47
424.207	6.34
424.414	6.2
424.621	6.15
424.829	6.1
425.036	6.07
425.243	6.19
425.451	6.31
425.658	6.15
425.865	6.11
426.072	6.1
426.28	6.18
426.487	6.29
426.694	6.39
426.901	6.53
427.108	6.53
427.315	6.43
427.523	6.14
427.73	6.02
427.937	5.76
428.144	5.8
428.351	5.75
428.558	5.96
428.765	6.03
428.972	6.04
429.179	6.04
429.386	6.16
429.593	5.87
429.8	5.89
430.007	5.95
430.214	5.9
430.421	5.9
430.628	6.07
430.835	6.17
431.042	6.11
431.249	6.28
431.456	6.27
431.662	6.38
431.869	6.5
432.076	6.47
432.283	6.16
432.49	5.99
432.697	5.91
432.903	5.85
433.11	6.12
433.317	6.22
433.524	6.46
433.73	6.36
433.937	6.17
434.144	5.97
434.35	6.04
434.557	5.95
434.764	6.01
434.97	6
435.177	6.17
435.384	6.04
435.59	6.07
435.797	6.09
436.003	6.21
436.21	5.87
436.416	5.9
436.623	5.8
436.829	5.7
437.036	5.58
437.242	5.81
437.449	5.77
437.655	5.89
437.862	6.04
438.068	6.02
438.275	5.96
438.481	6.09
438.687	6.03
438.894	6.03
439.1	6.22
439.307	6.24
439.513	6.18
439.719	6.26
439.926	6.14
440.132	6.18
440.338	6.05
440.544	5.92
440.751	5.68
440.957	5.76
441.163	5.5
441.369	5.61
441.575	5.64
441.782	5.9
441.988	5.9
442.194	6.01
442.4	6.08
442.606	6.17
442.812	6.06
443.018	5.96
443.224	5.95
443.431	5.83
443.637	5.84
443.843	5.69
444.049	5.84
444.255	5.76
444.461	5.74
444.667	5.6
444.873	5.7
445.079	5.71
445.284	5.77
445.49	5.84
445.696	5.94
445.902	5.95
446.108	5.88
446.314	5.89
446.52	5.9
446.726	5.93
446.931	5.94
447.137	5.91
447.343	5.81
447.549	5.83
447.755	5.79
447.96	5.86
448.166	5.85
448.372	5.96
448.578	5.87
448.783	5.92
448.989	5.9
449.195	5.82
449.4	5.79
449.606	5.76
449.812	5.67
450.017	5.59
450.223	5.65
450.428	5.61
450.634	5.66
450.84	5.67
451.045	5.8
451.251	5.89
451.456	5.91
451.662	5.9
451.867	5.93
452.073	5.77
452.278	5.76
452.483	5.81
452.689	5.91
452.894	5.91
453.1	5.93
453.305	5.91
453.51	5.87
453.716	5.76
453.921	5.8
454.127	5.89
454.332	5.8
454.537	5.84
454.742	5.76
454.948	5.73
455.153	5.68
455.358	5.76
455.563	5.81
455.769	5.89
455.974	5.84
456.179	5.83
456.384	5.7
456.589	5.65
456.795	5.56
457	5.61
457.205	5.47
457.41	5.57
457.615	5.53
457.82	5.56
458.025	5.43
458.23	5.56
458.435	5.59
458.64	5.52
458.845	5.61
459.05	5.65
459.255	5.72
459.46	5.68
459.665	5.74
459.87	5.75
460.075	5.89
460.28	5.81
460.485	5.87
460.69	5.79
460.895	5.8
461.099	5.7
461.304	5.76
461.509	5.71
461.714	5.85
461.919	5.83
462.123	5.89
462.328	5.89
462.533	5.93
462.738	5.9
462.942	5.83
463.147	5.9
463.352	5.83
463.556	5.91
463.761	5.78
463.966	5.76
464.17	5.83
464.375	5.86
464.58	5.77
464.784	5.91
464.989	6.03
465.193	5.94
465.398	6.06
465.602	6.06
465.807	6.02
466.011	5.91
466.216	5.83
466.42	5.78
466.625	5.74
466.829	5.77
467.034	5.91
467.238	5.97
467.443	5.98
467.647	5.97
467.851	5.98
468.056	5.87
468.26	5.88
468.464	5.87
468.669	5.8
468.873	5.78
469.077	5.78
469.282	5.68
469.486	5.65
469.69	5.73
469.894	5.85
470.099	5.85
470.303	6
470.507	5.98
470.711	6.13
470.915	6.18
471.119	6.21
471.324	6.26
471.528	6.29
471.732	6.21
471.936	6.13
472.14	6.09
472.344	6.04
472.548	5.99
472.752	6
472.956	5.89
473.16	6.09
473.364	6.05
473.568	6.07
473.772	6.02
473.976	6.06
474.18	5.81
474.384	5.83
474.588	5.85
474.792	5.85
474.995	5.83
475.199	5.89
475.403	5.89
475.607	5.93
475.811	5.85
476.015	5.86
476.218	5.9
476.422	5.81
476.626	5.77
476.83	5.85
477.033	5.91
477.237	5.9
477.441	6.01
477.644	5.99
477.848	5.93
478.052	5.81
478.255	5.84
478.459	5.83
478.663	5.83
478.866	5.93
479.07	6.06
479.273	6.07
479.477	6.04
479.681	6.11
479.884	6.08
480.088	5.97
480.291	6.01
480.495	6.01
480.698	5.92
480.901	5.93
481.105	6.05
481.308	5.89
481.512	5.91
481.715	5.97
481.919	5.99
482.122	5.91
482.325	5.97
482.529	5.97
482.732	5.9
482.935	5.85
483.138	5.93
483.342	5.9
483.545	5.9
483.748	5.95
483.952	5.97
484.155	5.92
484.358	6.05
484.561	6.02
484.764	5.97
484.967	6.01
485.171	6
485.374	5.91
485.577	5.96
485.78	5.98
485.983	5.97
486.186	5.95
486.389	5.93
486.592	5.88
486.795	5.96
486.998	5.94
487.201	5.95
487.404	6.02
487.607	6.06
487.81	6.03
488.013	5.98
488.216	6.03
488.419	5.94
488.622	5.86
488.825	5.81
489.028	5.83
489.231	5.78
489.433	5.78
489.636	5.81
489.839	5.86
490.042	5.81
490.245	5.76
490.447	5.82
490.65	5.84
490.853	5.74
491.056	5.82
491.258	5.86
491.461	5.82
491.664	5.77
491.866	5.9
492.069	5.86
492.272	5.77
492.474	5.87
492.677	5.91
492.879	5.83
493.082	5.81
493.285	5.87
493.487	5.75
493.69	5.68
493.892	5.75
494.095	5.78
494.297	5.82
494.5	5.91
494.702	5.94
494.905	5.88
495.107	5.9
495.309	5.89
495.512	5.81
495.714	5.87
495.917	5.88
496.119	5.83
496.321	5.81
496.524	5.86
496.726	5.79
496.928	5.81
497.13	5.9
497.333	5.95
497.535	5.99
497.737	5.99
497.939	5.96
498.142	5.94
498.344	5.92
498.546	5.88
498.748	5.93
498.95	5.92
499.152	5.84
499.355	5.77
499.557	5.72
499.759	5.74
499.961	5.81
500.163	5.84
500.365	5.95
500.567	6
500.769	5.96
500.971	5.96
501.173	5.95
501.375	5.88
501.577	5.9
501.779	5.93
501.981	5.93
502.183	5.99
502.385	6.04
502.587	5.94
502.788	5.95
502.99	5.92
503.192	5.86
503.394	5.82
503.596	5.95
503.798	6
503.999	6.07
504.201	6.12
504.403	6.17
504.605	6.14
504.806	6.11
505.008	6.1
505.21	5.99
505.411	5.9
505.613	5.83
505.815	5.87
506.016	5.91
506.218	6.01
506.42	6.02
506.621	6.1
506.823	6.09
507.024	6.06
507.226	6.05
507.427	6.11
507.629	6.06
507.83	5.99
508.032	5.92
508.233	5.93
508.435	5.87
508.636	5.99
508.838	6.02
509.039	6.06
509.24	5.97
509.442	6
509.643	5.9
509.845	5.95
510.046	5.96
510.247	6.09
510.448	6.13
510.65	6.2
510.851	6.16
511.052	6.23
511.254	6.21
511.455	6.3
511.656	6.25
511.857	6.28
512.058	6.2
512.26	6.21
512.461	6.14
512.662	6.12
512.863	6.04
513.064	6.02
513.265	5.98
513.466	5.99
513.667	6.08
513.868	6.15
514.069	6.2
514.27	6.21
514.471	6.27
514.672	6.21
514.873	6.22
515.074	6.27
515.275	6.29
515.476	6.19
515.677	6.14
515.878	6.12
516.079	6.06
516.28	6.02
516.481	6.04
516.682	6.15
516.882	6.18
517.083	6.19
517.284	6.31
517.485	6.32
517.686	6.33
517.886	6.33
518.087	6.32
518.288	6.3
518.488	6.3
518.689	6.28
518.89	6.35
519.091	6.42
519.291	6.34
519.492	6.38
519.692	6.44
519.893	6.41
520.094	6.33
520.294	6.42
520.495	6.38
520.695	6.36
520.896	6.37
521.096	6.43
521.297	6.43
521.497	6.47
521.698	6.47
521.898	6.45
522.099	6.51
522.299	6.45
522.499	6.46
522.7	6.4
522.9	6.44
523.101	6.42
523.301	6.44
523.501	6.39
523.702	6.46
523.902	6.42
524.102	6.46
524.302	6.51
524.503	6.55
524.703	6.5
524.903	6.55
525.103	6.5
525.304	6.44
525.504	6.46
525.704	6.49
525.904	6.46
526.104	6.47
526.304	6.52
526.504	6.53
526.705	6.5
526.905	6.57
527.105	6.58
527.305	6.57
527.505	6.59
527.705	6.66
527.905	6.59
528.105	6.61
528.305	6.59
528.505	6.57
528.705	6.53
528.905	6.56
529.105	6.57
529.304	6.57
529.504	6.64
529.704	6.68
529.904	6.71
530.104	6.75
530.304	6.75
530.503	6.7
530.703	6.61
530.903	6.62
531.103	6.61
531.303	6.63
531.502	6.73
531.702	6.81
531.902	6.76
532.101	6.75
532.301	6.81
532.501	6.73
532.7	6.8
532.9	6.82
533.1	6.9
533.299	6.87
533.499	6.86
533.698	6.8
533.898	6.8
534.097	6.75
534.297	6.74
534.496	6.76
534.696	6.76
534.895	6.76
535.095	6.79
535.294	6.83
535.494	6.79
535.693	6.86
535.892	6.91
536.092	6.93
536.291	6.91
536.491	7.06
536.69	7.03
536.889	7
537.088	6.93
537.288	6.97
537.487	6.91
537.686	6.9
537.886	7.01
538.085	7.11
538.284	7.09
538.483	7.1
538.682	7.16
538.882	7.18
539.081	7.09
539.28	7.12
539.479	7.16
539.678	7.2
539.877	7.2
540.076	7.25
540.275	7.28
540.474	7.29
540.673	7.27
540.872	7.31
541.071	7.35
541.27	7.37
541.469	7.39
541.668	7.37
541.867	7.39
542.066	7.47
542.265	7.6
542.464	7.6
542.663	7.71
542.862	7.74
543.06	7.73
543.259	7.71
543.458	7.77
543.657	7.82
543.856	7.87
544.054	7.89
544.253	7.86
544.452	7.82
544.651	7.79
544.849	7.75
545.048	7.76
545.247	7.82
545.445	7.87
545.644	7.86
545.843	7.93
546.041	7.97
546.24	8
546.438	8.09
546.637	8.15
546.836	8.15
547.034	8.19
547.233	8.27
547.431	8.29
547.63	8.33
547.828	8.41
548.027	8.44
548.225	8.42
548.423	8.47
548.622	8.55
548.82	8.57
549.019	8.64
549.217	8.65
549.415	8.67
549.614	8.7
549.812	8.7
550.01	8.67
550.209	8.78
550.407	8.8
550.605	8.89
550.803	8.99
551.002	9.11
551.2	9.11
551.398	9.24
551.596	9.21
551.794	9.28
551.993	9.33
552.191	9.41
552.389	9.39
552.587	9.52
552.785	9.57
552.983	9.55
553.181	9.6
553.379	9.68
553.577	9.77
553.775	9.85
553.973	9.91
554.171	9.98
554.369	10.07
554.567	10.02
554.765	10.06
554.963	10.21
555.161	10.31
555.359	10.4
555.557	10.54
555.755	10.59
555.952	10.66
556.15	10.78
556.348	10.81
556.546	10.9
556.744	10.93
556.941	10.99
557.139	10.97
557.337	11.07
557.535	11.1
557.732	11.21
557.93	11.33
558.128	11.4
558.325	11.49
558.523	11.51
558.721	11.64
558.918	11.68
559.116	11.84
559.313	11.85
559.511	12.03
559.708	12.09
559.906	12.21
560.104	12.26
560.301	12.39
560.498	12.5
560.696	12.55
560.893	12.61
561.091	12.74
561.288	12.95
561.486	13.01
561.683	13.11
561.88	13.17
562.078	13.25
562.275	13.22
562.473	13.32
562.67	13.45
562.867	13.6
563.064	13.69
563.262	13.75
563.459	13.88
563.656	13.92
563.853	14.05
564.051	14.12
564.248	14.26
564.445	14.4
564.642	14.52
564.839	14.59
565.036	14.76
565.234	14.86
565.431	14.88
565.628	14.96
565.825	15.02
566.022	15.1
566.219	15.21
566.416	15.31
566.613	15.45
566.81	15.59
567.007	15.62
567.204	15.68
567.401	15.72
567.598	15.76
567.795	15.82
567.991	15.94
568.188	16.1
568.385	16.17
568.582	16.3
568.779	16.38
568.976	16.47
569.172	16.54
569.369	16.61
569.566	16.68
569.763	16.69
569.96	16.76
570.156	16.74
570.353	16.86
570.55	16.89
570.746	17
570.943	17.12
571.14	17.25
571.336	17.33
571.533	17.28
571.729	17.36
571.926	17.35
572.123	17.4
572.319	17.51
572.516	17.69
572.712	17.74
572.909	17.79
573.105	17.8
573.302	17.82
573.498	17.86
573.695	17.89
573.891	17.89
574.087	17.93
574.284	17.91
574.48	17.94
574.677	18.01
574.873	18.09
575.069	18.09
575.266	18.08
575.462	18.1
575.658	18.17
575.854	18.25
576.051	18.32
576.247	18.41
576.443	18.43
576.639	18.44
576.835	18.43
577.032	18.44
577.228	18.49
577.424	18.52
577.62	18.51
577.816	18.5
578.012	18.62
578.208	18.63
578.404	18.65
578.6	18.65
578.796	18.7
578.993	18.63
579.189	18.61
579.384	18.6
579.58	18.57
579.776	18.52
579.972	18.5
580.168	18.47
580.364	18.49
580.56	18.48
580.756	18.45
580.952	18.41
581.148	18.38
581.343	18.39
581.539	18.4
581.735	18.45
581.931	18.46
582.127	18.46
582.322	18.37
582.518	18.27
582.714	18.3
582.909	18.28
583.105	18.27
583.301	18.29
583.496	18.34
583.692	18.24
583.888	18.27
584.083	18.23
584.279	18.24
584.474	18.23
584.67	18.17
584.866	18.11
585.061	18.17
585.257	18.07
585.452	18.1
585.648	18.09
585.843	18.09
586.039	18.09
586.234	18.08
586.429	17.99
586.625	18.05
586.82	17.98
587.015	17.99
587.211	18.02
587.406	18.13
587.601	18.14
587.797	18.28
587.992	18.25
588.187	18.27
588.383	18.24
588.578	18.2
588.773	18.07
588.968	18.16
589.163	18.15
589.359	18.11
589.554	18.11
589.749	18.23
589.944	18.22
590.139	18.35
590.334	18.44
590.529	18.59
590.724	18.65
590.919	18.68
591.114	18.64
591.309	18.58
591.504	18.53
591.699	18.47
591.894	18.45
592.089	18.44
592.284	18.49
592.479	18.54
592.674	18.56
592.869	18.64
593.064	18.72
593.259	18.84
593.454	18.88
593.648	18.88
593.843	18.91
594.038	18.94
594.233	18.97
594.428	19.15
594.622	19.24
594.817	19.36
595.012	19.43
595.206	19.41
595.401	19.43
595.596	19.62
595.79	19.6
595.985	19.74
596.18	19.89
596.374	19.92
596.569	19.88
596.763	20.04
596.958	20.16
597.153	20.16
597.347	20.16
597.542	20.29
597.736	20.28
597.931	20.24
598.125	20.52
598.319	20.57
598.514	20.61
598.708	20.69
598.903	20.77
599.097	20.71
599.291	20.79
599.486	20.85
599.68	20.86
599.874	20.86
600.069	20.95
600.263	20.97
600.457	20.97
600.651	21
600.846	21.14
601.04	21.11
601.234	21.16
601.428	21.25
601.622	21.42
601.817	21.34
602.011	21.34
602.205	21.43
602.399	21.5
602.593	21.51
602.787	21.5
602.981	21.52
603.175	21.56
603.369	21.51
603.563	21.53
603.757	21.61
603.951	21.63
604.145	21.47
604.339	21.5
604.533	21.35
604.727	21.31
604.921	21.27
605.115	21.3
605.309	21.23
605.502	21.3
605.696	21.19
605.89	21.18
606.084	21.14
606.278	21.02
606.471	20.82
606.665	20.77
606.859	20.61
607.053	20.57
607.246	20.49
607.44	20.47
607.634	20.55
607.827	20.53
608.021	20.39
608.214	20.35
608.408	20.4
608.602	20.31
608.795	20.3
608.989	20.32
609.182	20.27
609.376	20.11
609.569	19.96
609.763	19.82
609.956	19.79
610.15	19.67
610.343	19.57
610.537	19.54
610.73	19.46
610.923	19.4
611.117	19.42
611.31	19.39
611.504	19.36
611.697	19.31
611.89	19.09
612.083	18.98
612.277	18.89
612.47	18.76
612.663	18.71
612.856	18.59
613.05	18.58
613.243	18.54
613.436	18.44
613.629	18.35
613.822	18.34
614.015	18.16
614.209	17.94
614.402	17.8
614.595	17.76
614.788	17.74
614.981	17.71
615.174	17.72
615.367	17.69
615.56	17.49
615.753	17.42
615.946	17.31
616.139	17.27
616.332	17.18
616.525	17.19
616.718	17.12
616.911	17.12
617.103	17.08
617.296	17.04
617.489	16.91
617.682	16.89
617.875	16.89
618.067	16.7
618.26	16.63
618.453	16.59
618.646	16.52
618.838	16.28
619.031	16.26
619.224	16.3
619.417	16.35
619.609	16.26
619.802	16.26
619.994	16.27
620.187	16.2
620.38	16.13
620.572	16.17
620.765	16.24
620.957	16.15
621.15	16.12
621.342	16.03
621.535	15.94
621.727	15.83
621.92	15.78
622.112	15.79
622.305	15.78
622.497	15.76
622.69	15.68
622.882	15.69
623.074	15.64
623.267	15.6
623.459	15.59
623.651	15.57
623.844	15.59
624.036	15.54
624.228	15.5
624.42	15.5
624.613	15.6
624.805	15.51
624.997	15.53
625.189	15.55
625.381	15.54
625.574	15.44
625.766	15.44
625.958	15.35
626.15	15.3
626.342	15.19
626.534	15.23
626.726	15.2
626.918	15.18
627.11	15.16
627.302	15.1
627.494	15.01
627.686	15.03
627.878	15.08
628.07	15.04
628.262	15.01
628.454	14.98
628.646	14.86
628.838	14.83
629.029	14.81
629.221	14.82
629.413	14.74
629.605	14.75
629.797	14.65
629.989	14.68
630.18	14.67
630.372	14.68
630.564	14.73
630.755	14.72
630.947	14.6
631.139	14.56
631.33	14.57
631.522	14.48
631.714	14.41
631.905	14.4
632.097	14.33
632.289	14.23
632.48	14.14
632.672	14.09
632.863	14.1
633.055	14.14
633.246	14.15
633.438	14.25
633.629	14.2
633.821	14.11
634.012	14.06
634.203	14.05
634.395	13.95
634.586	14.15
634.777	14.22
634.969	14.2
635.16	14.15
635.351	14.2
635.543	14.1
635.734	14.1
635.925	14.12
636.117	14.15
636.308	14.11
636.499	14.08
636.69	13.95
636.881	14
637.073	14.1
637.264	14.13
637.455	14.07
637.646	14.2
637.837	14.12
638.028	14.04
638.219	14.03
638.41	14.11
638.601	14.08
638.792	14.05
638.983	14.05
639.174	13.99
639.365	13.95
639.556	13.94
639.747	13.97
639.938	13.97
640.129	13.98
640.32	13.98
640.511	13.96
640.701	13.95
640.892	13.9
641.083	13.88
641.274	13.82
641.465	13.81
641.655	13.81
641.846	13.89
642.037	13.85
642.228	13.8
642.418	13.66
642.609	13.61
642.8	13.5
642.99	13.56
643.181	13.55
643.372	13.61
643.562	13.59
643.753	13.61
643.943	13.66
644.134	13.67
644.324	13.69
644.515	13.75
644.705	13.69
644.896	13.52
645.086	13.52
645.277	13.5
645.467	13.43
645.658	13.41
645.848	13.49
646.038	13.44
646.229	13.44
646.419	13.46
646.61	13.49
646.8	13.43
646.99	13.45
647.18	13.37
647.371	13.28
647.561	13.26
647.751	13.23
647.941	13.15
648.132	13.18
648.322	13.21
648.512	13.21
648.702	13.21
648.892	13.24
649.082	13.16
649.272	13.05
649.462	13.02
649.653	12.95
649.843	12.94
650.033	12.95
650.223	13
650.413	12.95
650.603	13.01
650.793	12.89
650.983	12.84
651.172	12.85
651.362	12.82
651.552	12.69
651.742	12.73
651.932	12.77
652.122	12.65
652.312	12.57
652.502	12.51
652.691	12.49
652.881	12.44
653.071	12.42
653.261	12.31
653.45	12.26
653.64	12.21
653.83	12.05
654.019	11.92
654.209	11.92
654.399	11.8
654.588	11.6
654.778	11.5
654.968	11.38
655.157	11.29
655.347	11.17
655.536	11.06
655.726	10.91
655.915	10.85
656.105	10.72
656.294	10.56
656.484	10.55
656.673	10.44
656.863	10.28
657.052	10.14
657.241	10.05
657.431	9.84
657.62	9.69
657.809	9.55
657.999	9.49
658.188	9.37
658.377	9.27
658.567	9.19
658.756	9.15
658.945	9.07
659.134	9.01
659.324	8.85
659.513	8.72
659.702	8.58
659.891	8.38
660.08	8.2
660.269	8.1
660.458	7.96
660.648	7.9
660.837	7.84
661.026	7.81
661.215	7.77
661.404	7.68
661.593	7.52
661.782	7.27
661.971	7.14
662.16	7.04
662.349	6.97
662.538	6.92
662.726	7.03
662.915	7.05
663.104	6.99
663.293	6.98
663.482	6.96
663.671	6.81
663.86	6.66
664.048	6.63
664.237	6.49
664.426	6.34
664.615	6.23
664.803	6.07
664.992	6.04
665.181	6.1
665.369	6.09
665.558	6.21
665.747	6.37
665.935	6.34
666.124	6.39
666.312	6.38
666.501	6.3
666.69	6.22
666.878	6.24
667.067	6.1
667.255	6.17
667.444	6.27
667.632	6.43
667.82	6.48
668.009	6.56
668.197	6.5
668.386	6.45
668.574	6.32
668.762	6.18
668.951	6.24
669.139	6.39
669.327	6.39
669.516	6.59
669.704	6.74
669.892	6.73
670.08	6.73
670.269	6.73
670.457	6.62
670.645	6.6
670.833	6.67
671.021	6.73
671.21	6.76
671.398	6.78
671.586	6.82
671.774	6.86
671.962	6.83
672.15	7.05
672.338	7.11
672.526	7.31
672.714	7.34
672.902	7.41
673.09	7.45
673.278	7.55
673.466	7.51
673.654	7.65
673.842	7.74
674.03	7.74
674.218	7.89
674.405	7.88
674.593	7.89
674.781	7.97
674.969	7.89
675.157	7.77
675.344	7.95
675.532	8
675.72	8.18
675.908	8.41
676.095	8.44
676.283	8.5
676.471	8.56
676.658	8.43
676.846	8.4
677.033	8.63
677.221	8.81
677.409	8.97
677.596	9.13
677.784	9.32
677.971	9.33
678.159	9.35
678.346	9.38
678.534	9.41
678.721	9.49
678.909	9.68
679.096	9.66
679.283	9.76
679.471	9.75
679.658	9.75
679.846	9.78
680.033	9.91
680.22	10
680.408	10.06
680.595	10.2
680.782	10.16
680.969	10.19
681.157	10.28
681.344	10.35
681.531	10.54
681.718	10.7
681.905	10.79
682.093	10.68
682.28	10.93
682.467	11.08
682.654	11.14
682.841	11.25
683.028	11.47
683.215	11.69
683.402	11.64
683.589	11.97
683.776	12.18
683.963	12.29
684.15	12.41
684.337	12.55
684.524	12.65
684.711	12.86
684.898	13.06
685.085	13.08
685.271	13.42
685.458	13.54
685.645	13.66
685.832	13.86
686.019	14.19
686.205	14.36
686.392	14.55
686.579	14.86
686.766	15.22
686.952	15.39
687.139	15.54
687.326	15.78
687.512	15.92
687.699	15.91
687.886	16.21
688.072	16.53
688.259	17
688.445	17.28
688.632	17.97
688.818	18.28
689.005	18.72
689.191	19.22
689.378	19.85
689.564	20.23
689.751	20.71
689.937	21.3
690.124	21.57
690.31	21.92
690.496	22.42
690.683	23
690.869	23.38
691.055	23.98
691.242	24.55
691.428	25.22
691.614	25.72
691.8	26.22
691.987	26.72
692.173	27.46
692.359	28.04
692.545	28.94
692.731	29.72
692.918	30.55
693.104	30.98
693.29	31.6
693.476	32.1
693.662	32.93
693.848	33.44
694.034	34.13
694.22	34.71
694.406	35.37
694.592	35.79
694.778	36.58
694.964	37.17
695.15	37.96
695.336	38.56
695.522	39.45
695.708	40.37
695.894	41.34
696.08	41.78
696.265	42.58
696.451	43.23
696.637	43.62
696.823	44.04
697.009	44.89
697.194	45.34
697.38	45.87
697.566	46.71
697.751	47.55
697.937	47.98
698.123	48.65
698.308	49.15
698.494	49.7
698.68	50.06
698.865	50.76
699.051	51.43
699.236	51.97
699.422	52.32
699.607	53.15
699.793	53.65
699.978	54.19
700.164	54.85
700.349	55.57
700.535	55.68
700.72	56.24
700.906	56.63
701.091	57.08
701.276	57.37
701.462	58.04
701.647	58.55
701.832	59.31
702.018	60.04
702.203	60.55
702.388	61
702.573	61.52
702.759	61.74
702.944	61.96
703.129	62.42
703.314	62.97
703.499	63.26
703.684	64.03
703.87	64.51
704.055	64.81
704.24	64.87
704.425	65.18
704.61	65.38
704.795	65.47
704.98	65.73
705.165	66.31
705.35	66.91
705.535	67.13
705.72	67.89
705.905	68.33
706.09	68.93
706.275	69.35
706.459	69.71
706.644	69.31
706.829	69.73
707.014	70.12
707.199	69.88
707.384	69.98
707.568	70.74
707.753	70.8
707.938	70.34
708.123	70.93
708.307	71.14
708.492	71.39
708.677	71.28
708.861	72.25
709.046	72.5
709.231	72.72
709.415	72.68
709.6	73.24
709.784	73.03
709.969	72.85
710.153	72.86
710.338	73.17
710.522	73.69
710.707	73.64
710.891	73.93
711.076	74.55
711.26	74.89
711.445	74.99
711.629	75.39
711.813	75.68
711.998	75.89
712.182	75.44
712.366	75.68
712.551	75.85
712.735	75.89
712.919	75.77
713.103	75.87
713.288	75.61
713.472	75.59
713.656	75.81
713.84	75.91
714.024	76.46
714.208	76.54
714.393	77
714.577	77.16
714.761	77.39
714.945	77.31
715.129	77.34
715.313	77.13
715.497	77.54
715.681	77.66
715.865	78.06
716.049	78.3
716.233	79
716.417	78.85
716.601	79.03
716.785	79.04
716.968	79.06
717.152	78.86
717.336	79.31
717.52	79.37
717.704	79.45
717.888	80.61
718.071	80.71
718.255	80.67
718.439	80.61
718.622	80.53
718.806	79.47
718.99	79.85
719.174	79.39
719.357	79.43
719.541	80.07
719.724	80.73
719.908	80.51
720.092	81.11
720.275	81.93
720.459	81.53
720.642	81.48
720.826	81.78
721.009	81.89
721.193	81.55
721.376	82.38
721.559	82.67
721.743	82.56
721.926	82.59
722.11	82.49
722.293	82.27
722.476	82.39
722.66	82.56
722.843	82.83
723.026	82.92
723.21	83.53
723.393	83.47
723.576	84.08
723.759	83.86
723.942	84.31
724.126	84.33
724.309	85.08
724.492	84.97
724.675	85.23
724.858	85.23
725.041	84.91
725.224	84.75
725.407	84.9
725.59	85.66
725.774	85.79
725.957	86.47
726.14	86.63
726.322	86.27
726.505	85.8
726.688	86.22
726.871	86.27
727.054	86.56
727.237	86.9
727.42	87.63
727.603	87.77
727.786	87.4
727.968	87.64
728.151	87.77
728.334	87.38
728.517	87.27
728.699	87.63
728.882	87.53
729.065	88.05
729.248	88.39
729.43	88.46
729.613	89.01
729.796	89.01
729.978	89.15
730.161	89.27
730.343	89.42
730.526	89.59
730.708	89.53
730.891	89.88
731.073	89.96
731.256	90.78
731.438	90.18
731.621	90.48
731.803	90.71
731.986	91.22
732.168	91.46
732.35	92.28
732.533	91.91
732.715	92.27
732.898	91.87
733.08	91.95
733.262	91.82
733.444	91.59
733.627	91.1
733.809	91.37
733.991	90.54
734.173	91.09
734.355	92.19
734.538	92.33
734.72	92.83
734.902	93.8
735.084	92.8
735.266	92.37
735.448	92.69
735.63	92.99
735.812	92.55
735.994	92.71
736.176	93.59
736.358	93.75
736.54	93.42
736.722	94.31
736.904	95.82
737.086	95.82
737.268	95.89
737.45	95.98
737.632	95.27
737.814	94.5
737.995	95.24
738.177	94.69
738.359	94.6
738.541	94.56
738.723	94.58
738.904	94.12
739.086	94.79
739.268	95.58
739.449	96.61
739.631	96.41
739.813	96.82
739.994	97.12
740.176	96.48
740.358	96.42
740.539	97.09
740.721	96.74
740.902	95.7
741.084	96.23
741.265	96.04
741.447	96.44
741.628	95.01
741.81	95.97
741.991	95.41
742.172	95.33
742.354	95.05
742.535	96.87
742.717	96.29
742.898	97.3
743.079	96.69
743.261	96.38
743.442	95.96
743.623	96
743.804	95.08
743.986	95.24
744.167	94.55
744.348	93.03
744.529	94.61
744.71	94.78
744.891	95.8
745.073	96.26
745.254	98.51
745.435	97.37
745.616	96.8
745.797	95.92
745.978	96.2
746.159	96.72
746.34	96.91
746.521	97.12
746.702	96.73
746.883	96.49
747.064	94.6
747.245	94.49
747.426	95.2
747.606	94.92
747.787	95.45
747.968	95.85
748.149	96.4
748.33	95.47
748.51	97.26
748.691	96.21
748.872	96.89
749.053	96.51
749.233	97.53
749.414	95.07
749.595	97.09
749.775	97.77
749.956	97.52
750.137	96.52
750.317	98.38
750.498	97.63
750.678	97.21
750.859	97.09
751.04	97.37
751.22	97.07
751.4	96.89
751.581	96.88
751.761	96.71
751.942	96.47
752.122	96.22
752.303	96.11
752.483	94.31
752.663	94.79
752.844	94.02
753.024	93.09
753.204	92.89
753.385	93.19
753.565	95.07
753.745	96.89
753.925	98.06
754.106	98.13
754.286	99.1
754.466	97.06
754.646	96.61
754.826	95.77
755.006	96.28
755.187	96.11
755.367	95.95
755.547	95.04
755.727	94.74
755.907	94.19
756.087	94.89
756.267	94.57
756.447	95.1
756.627	96.14
756.807	95.78
756.987	95.36
757.167	96.55
757.346	95.88
757.526	95
757.706	94.71
757.886	94.29
758.066	93.76
758.246	94.32
758.425	95.93
758.605	96.78
758.785	97.51
758.965	99.25
759.144	101.54
759.324	101.03
759.504	101.63
759.683	102.88
759.863	100.1
760.043	97.4
760.222	97.04
760.402	95.91
760.581	95
760.761	93.74
760.94	94.18
761.12	94.55
761.299	94.11
761.479	93.96
761.658	94.91
761.838	94.75
762.017	94.49
762.197	93.79
762.376	91.03
762.555	90.94
762.735	90.99
762.914	90.03
763.093	89.85
763.273	90.52
763.452	90.52
763.631	89.79
763.81	90.83
763.99	92.75
764.169	95.01
764.348	95.11
764.527	95.44
764.706	93.11
764.885	92.32
765.064	92.5
765.243	93.19
765.423	93.66
765.602	95.13
765.781	96.3
765.96	93.16
766.139	91.66
766.318	91.57
766.497	92.95
766.676	91
766.854	93.81
767.033	94
767.212	93.53
767.391	90.85
767.57	92.71
767.749	88.74
767.928	90.69
768.106	91.95
768.285	92.26
768.464	90.92
768.643	94.18
768.821	93.47
769	90.58
769.179	91.89
769.357	91.68
769.536	89.39
769.715	87.37
769.893	89.92
770.072	87.68
770.25	89.12
770.429	91.24
770.607	90.91
770.786	91.8
770.964	93.32
771.143	91.55
771.321	90.36
771.5	94.09
771.678	92.37
771.857	91.85
772.035	94.47
772.213	96.73
772.392	95.85
772.57	95.62
772.748	95.59
772.927	94.63
773.105	93.96
773.283	92.06
773.461	93.06
773.64	92.81
773.818	93.22
773.996	91.32
774.174	92.56
774.352	90.98
774.531	93.59
774.709	90.27
774.887	92.36
775.065	90.57
775.243	91.72
775.421	89.24
775.599	89.75
775.777	88.55
775.955	89.01
776.133	89.63
776.311	91.45
776.489	93.55
776.667	95.01
776.844	96.44
777.022	95.13
777.2	96.2
777.378	94.48
777.556	92.42
777.734	89.53
777.911	88.9
778.089	87.44
778.267	85.96
778.445	82.69
778.622	84.18
778.8	86.18
778.978	84.33
779.155	84.47
779.333	86.4
779.511	83.93
779.688	82.48
779.866	80.84
780.043	83.86
780.221	86.56
780.398	88.93
780.576	89.88
780.753	94.97
780.931	92.05
781.108	90.04
781.286	90.56
781.463	87.34
781.64	86.77
781.818	88.14
781.995	88.5
782.172	87.6
782.35	91.19
782.527	90.34
782.704	89.68
782.882	91.67
783.059	93.24
783.236	91.63
783.413	90.11
783.59	88.02
783.768	83.38
783.945	84.81
784.122	85.04
784.299	88.02
784.476	93.03
784.653	100.11
784.83	96.33
785.007	95.66
785.184	92.66
785.361	89.82
785.538	84.43
785.715	82.46
785.892	82.95
786.069	83.39
786.246	82.44
786.423	85
786.6	88.72
786.776	87.41
786.953	90.13
787.13	94.25
787.307	94.56
787.484	98.4
787.66	100.42
787.837	94.4
788.014	91.08
788.191	88.37
788.367	86.09
788.544	87.81
788.721	91.04
788.897	91.68
789.074	89.69
789.25	85.73
789.427	82.88
789.603	82.02
789.78	82.45
789.956	84.29
790.133	87.64
790.309	88.96
790.486	85.75
790.662	86.84
790.839	91.53
791.015	88.18
791.192	87.69
791.368	92.15
791.544	88.82
791.721	84.76
791.897	85.45
792.073	84.35
792.249	82.15
792.426	86.29
792.602	88.84
792.778	89.99
792.954	88.86
793.13	90.57
793.307	89.17
793.483	84.71
793.659	82.66
793.835	86.11
794.011	87.99
794.187	87.8
794.363	89.62
794.539	91.29
794.715	91.04
794.891	91.85
795.067	86.4
795.243	89.03
795.419	88.76
795.595	86.46
795.771	80.53
795.947	82.75
796.122	82.78
796.298	83.6
796.474	84.78
796.65	87.95
796.826	89.79
797.001	88.71
797.177	85.53
797.353	85.04
797.529	87.66
797.704	85.69
797.88	86.37
798.056	86.16
798.231	91.39
798.407	85.12
798.582	84.51
798.758	82.47
798.934	88.98
799.109	85.35
799.285	88.88
799.46	94.13
799.636	92.63
799.811	86.51
799.986	84.26
800.162	85.5
800.337	85.55
800.513	88.37
800.688	87.39
800.863	91.75
801.039	96.41
801.214	96.5
801.389	95.64
801.565	98.8
801.74	102.2
801.915	99.58
802.09	94.14
802.265	95.04
802.441	95.82
802.616	84.39
802.791	80.71
802.966	86.78
803.141	86.7
803.316	81.79
803.491	84.76
803.666	88.01
803.841	85.65
804.016	85.84
804.191	90.94
804.366	93.48
804.541	85.06
804.716	80.22
804.891	76.77
805.066	80.19
805.241	75.11
805.416	75.78
805.591	73.94
805.765	77.42
805.94	69.82
806.115	69.35
806.29	70.26
806.464	72.32
806.639	69.28
806.814	66.85
806.989	69.96
807.163	69.6
807.338	70.74
807.512	71.94
807.687	74.03
807.862	68.64
808.036	66.03
808.211	69.26
808.385	63.19
808.56	67.26
808.734	68.37
808.909	73.94
809.083	72.4
809.258	78.65
809.432	80.38
809.606	81.27
809.781	75.87
809.955	68.93
810.13	64.98
810.304	56.58
810.478	57.31
810.652	56.25
810.827	56.31
811.001	64.42
811.175	73.18
811.349	79.52
811.524	78.21
811.698	80.2
811.872	76.56
812.046	75.35
812.22	66.43
812.394	69.11
812.568	71.14
812.742	72.7
812.916	71.81
813.09	74.54
813.264	80.61
813.438	82.6
813.612	85.26
813.786	73.63
813.96	75.53
814.134	69.51
814.308	70.92
814.482	60.87
814.656	74.5
814.83	79.28
815.003	85.77
815.177	82.49
815.351	94.01
815.525	93.13
815.698	92.73
815.872	94
816.046	100.42
816.219	98.22
816.393	103.76
816.567	98.36
816.74	90.5
816.914	81.11
817.088	79.25
817.261	73.26
817.435	82.48
817.608	84.41
817.782	80.3
817.955	82.16
818.129	83.22
818.302	65.06
818.475	69.3
818.649	78.86
818.822	81.05
818.996	78.3
819.169	92.29
819.342	82.09
819.516	71.46
819.689	67.64
819.862	81.08
820.035	70.81
820.209	70.36
820.382	95.24
820.555	92.97
820.728	86.11
820.901	87.9
821.075	94.36
821.248	91.45
821.421	106.72
821.594	98.63
821.767	109.13
821.94	114.52
822.113	93.68
822.286	82.88
822.459	86.5
822.632	83.9
822.805	82.76
822.978	89.86
823.151	95.16
823.324	98.28
823.496	83.13
823.669	81.63
823.842	78.15
824.015	80.75
824.188	61.72
824.361	78.8
824.533	78.34
824.706	68.73
824.879	58.29
825.051	57.86
825.224	53.09
825.397	55.87
825.569	61.8
825.742	70.74
825.915	74.98
826.087	83.69
826.26	82.71
826.432	96.79
826.605	92.66
826.777	96.52
826.95	86.8
827.122	76.21
827.295	58.54
827.467	65.71
827.64	53.08
827.812	56.82
827.984	62.12
828.157	71.79
828.329	71.74
828.501	98.31
828.674	95.5
828.846	89
829.018	94.9
829.19	95.71
829.363	78.33
829.535	71.62
829.707	66.31
829.879	56.6
830.051	42.15
830.223	65.4
830.395	79.45
830.568	77.99
830.74	87.71
830.912	79.2
831.084	73.81
831.256	56.72
831.428	56.32
831.6	51.89
831.772	77.29
831.943	74.02
832.115	89.36
832.287	100.8
832.459	94.04
832.631	81.25
832.803	75.9
832.975	80.99
833.146	91.19
833.318	91.25
833.49	94.07
833.662	112.08
833.833	92.33
834.005	84.31
834.177	97.74
834.348	97.45
834.52	71.94
834.692	82.25
834.863	92.74
835.035	102.94
835.206	102.26
835.378	94.32
835.549	96.74
835.721	88.44
835.892	81.05
836.064	89.25
836.235	107.26
836.407	90.33
836.578	73.81
836.749	70.89
836.921	61.83
837.092	59.3
837.264	57
837.435	64.83
837.606	67.78
837.777	59.33
837.949	45.14
838.12	39.71
838.291	44.65
838.462	52.74
838.633	70
838.805	90.31
838.976	118.83
839.147	124.2
839.318	96.75
839.489	95.27
839.66	113.68
839.831	123.53
840.002	108.63
840.173	114.43
840.344	106.27
840.515	91.53
840.686	69.17
840.857	64.05
841.028	79.18
841.199	73.07
841.369	67.32
841.54	86.44
841.711	106.67
841.882	82.97
842.053	67.82
842.223	85.97
842.394	81.15
842.565	72.76
842.736	92.43
842.906	183.92
843.077	156.58
843.248	178.42
843.418	141.94
843.589	97.33
843.759	78.95
843.93	75.9
844.101	83.29
844.271	74.49
844.442	83.14
844.612	97.31
844.783	60.95
844.953	33.64
845.123	31.62
845.294	26.39
845.464	32.86
845.635	67.01
845.805	108.86
845.975	119.73
846.146	138
846.316	110.22
846.486	101.09
846.656	59.31
846.827	63.94
846.997	69.44
847.167	48.58
847.337	49.02
847.507	53.52
847.677	34.25
847.848	39.71
848.018	80.67
848.188	77.97
848.358	86.6
848.528	114.12
848.698	124.39
848.868	99.96
849.038	72.92
849.208	63.64
849.378	80.58
849.548	52.44
849.718	64.19
849.887	73.93
850.057	66.52
850.227	60.84
850.397	45.38
850.567	57.85
850.737	61.93
850.906	65.08
851.076	58.22
851.246	80.27
851.415	65.03
851.585	76.11
851.755	80.54
851.924	84.39
852.094	82.96
852.264	77.74
852.433	58.95
852.603	62.76
852.772	40.49
852.942	38.49
853.111	58.91
853.281	75.93
853.45	60.07
853.62	61.64
853.789	48.46
853.959	57.7
854.128	49.2
854.297	57.29
854.467	59.04
854.636	81.84
854.805	76.19
854.975	90.31
855.144	77.78
855.313	77.38
855.482	76.65
855.652	82.94
855.821	64.87
855.99	52.84
856.159	53.12
856.328	66.74
856.497	36.7
856.667	57.48
856.836	87.58
857.005	111.83
857.174	73.59
857.343	115.33
857.512	106.84
857.681	59.78
857.85	86.03
858.019	32.77
858.188	17.34
858.356	4.67
858.525	44
858.694	20.41
858.863	48.96
859.032	41.19
859.201	38.26
859.369	47.36
859.538	62.23
859.707	63.2
859.876	65.77
860.044	89.75
860.213	70.4
860.382	88.49
860.55	99.64
860.719	142.2
860.888	136.27
861.056	125.67
861.225	116.12
861.393	121.84
861.562	125.76
861.73	119.5
861.899	108.26
862.067	82.56
862.236	70.4
862.404	46.7
862.572	34.09
862.741	33.28
862.909	40.98
863.078	46.15
863.246	67.59
863.414	90.48
863.582	126.13
863.751	115.84
863.919	120.77
864.087	143.57
864.255	110.88
864.424	95.08
864.592	85.91
864.76	99.96
864.928	87.93
865.096	71.3
865.264	64.69
865.432	68.31
865.6	48.53
865.768	44.49
865.936	45.08
866.104	56.74
866.272	57.13
866.44	31.21
866.608	9.06
866.776	22.74
866.944	45.04
867.112	57.17
867.28	69.08
867.448	94.09
867.615	84.26
867.783	75.49
867.951	57
868.119	84.79
868.286	75.6
868.454	67.62
868.622	58.2
868.789	77.28
868.957	55.46
869.125	56.95
869.292	51.58
869.46	48.99
869.627	53.84
869.795	49.35
869.963	57
870.13	40.35
870.298	42.31
870.465	35.34
870.632	21.08
870.8	3.95
870.967	61.28
871.135	91.27
871.302	71.13
871.469	76.85
871.637	78.04
871.804	48.77
871.971	25.68
872.139	53.75
872.306	55.9
872.473	82.75
872.64	78.92
872.807	94.04
872.975	48.21
873.142	66.09
873.309	50.54
873.476	64.02
873.643	53.15
873.81	81.92
873.977	59.1
874.144	49.45
874.311	56.49
874.478	63.66
874.645	41.99
874.812	41.7
874.979	42.81
875.146	24.04
875.313	26.9
875.48	64.72
875.647	121.4
875.813	149.44
875.98	152.3
876.147	117.51
876.314	108.61
876.481	80.55
876.647	90.17
876.814	78.17
876.981	98.65
877.147	116.6
877.314	68.46
877.481	61.94
877.647	38.75
877.814	24.21
877.98	17.4
878.147	20.52
878.314	-9.54
878.48	19.26
878.647	7.9
878.813	-17.17
878.979	1.27
879.146	2.3
879.312	-23.66
879.479	19.16
879.645	89.06
879.811	71.32
879.978	71.05
880.144	80.47
880.31	77.89
880.477	49.29
880.643	58.76
880.809	67.8
880.975	65.03
881.142	23.39
881.308	39.28
881.474	216.86
881.64	218.46
881.806	138.91
881.972	127.72
882.138	188.08
882.304	49.81
882.47	20.27
882.636	41.77
882.802	41.69
882.968	19.85
883.134	35.08
883.3	48.73
883.466	74.03
883.632	103.9
883.798	110.98
883.964	205.02
884.129	365.27
884.295	89.78
884.461	72.68
884.627	94.83
884.793	68.1
884.958	60.41
885.124	82.19
885.29	76.43
885.455	67.54
885.621	63.94
885.787	53.18
885.952	56.65
886.118	54.82
886.283	49.56
886.449	61.96
886.614	54.78
886.78	66.04
886.945	69.19
887.111	70.73
887.276	57.6
887.442	75.58
887.607	79.41
887.773	40.67
887.938	-0.45
888.103	0.04
888.269	15.96
888.434	17.04
888.599	24.62
888.764	36.46
888.93	63.92
889.095	37
889.26	44.67
889.425	58.96
889.59	80.92
889.756	31.01
889.921	19.53
890.086	2.13
890.251	4.78
890.416	-26.89
890.581	-52.47
890.746	-16.34
890.911	16.35
891.076	3.44
891.241	12.03
891.406	41.63
891.571	39.23
891.736	40.52
891.901	62.77
892.065	92.91
892.23	106.13
892.395	123.14
892.56	122.56
892.725	133.39
892.889	83.44
893.054	60.82
893.219	64.28
893.384	78.48
893.548	66.26
893.713	71.15
893.878	79.47
