Data from Ofav_PP_310_Reflection_3.txt Node
Date: Tue Jul 27 19:01:52 EDT 2021
User: USUARIO
Spectrometer: FLMT01687
Trigger mode: 0
Integration Time (sec): 8.500000E-1
Scans to average: 2
Electric dark correction enabled: true
Nonlinearity correction enabled: false
Boxcar width: 2
XAxis mode: Wavelengths
Number of Pixels in Spectrum: 3648
>>>>>Begin Spectral Data<<<<<
179.494	-903.7
179.716	-236.02
179.937	-112.31
180.158	-115.57
180.38	-2.53
180.601	74.97
180.823	-30.4
181.044	3.53
181.265	-58.82
181.486	-101.51
181.708	-21.26
181.929	23.71
182.15	-21.37
182.372	-25.56
182.593	-41.22
182.814	58.76
183.035	68.59
183.257	45.77
183.478	41.65
183.699	44.96
183.92	38.36
184.141	31.62
184.363	54.85
184.584	64.93
184.805	82.39
185.026	62.94
185.247	83.04
185.468	72.26
185.689	47.84
185.91	19.18
186.132	22.86
186.353	13.53
186.574	-11.48
186.795	-6.34
187.016	21.21
187.237	6.3
187.458	15.1
187.679	39.94
187.9	18.34
188.121	21.5
188.342	38.43
188.563	7.26
188.784	31.58
189.005	46.26
189.226	37.42
189.447	28.62
189.667	50.96
189.888	48.58
190.109	66.4
190.33	81.34
190.551	81.17
190.772	87.15
190.993	52.15
191.214	41.16
191.434	41.36
191.655	49.51
191.876	26.49
192.097	46.94
192.318	42.71
192.538	32.31
192.759	19.44
192.98	35.17
193.201	31.5
193.421	16.66
193.642	12.66
193.863	18.1
194.083	22.65
194.304	8
194.525	11.94
194.745	4.51
194.966	-19.07
195.187	-38.21
195.407	2.33
195.628	19.74
195.848	54.15
196.069	82.54
196.29	119.09
196.51	82.14
196.731	65.85
196.951	64.84
197.172	48.41
197.392	47.55
197.613	63.7
197.833	47.19
198.054	48.04
198.274	42.6
198.495	33.31
198.715	49.18
198.936	57.57
199.156	58.53
199.377	73.45
199.597	68.4
199.817	35.35
200.038	36.11
200.258	22.98
200.479	23.69
200.699	31.59
200.919	18.76
201.14	31.16
201.36	37.33
201.58	39.86
201.801	48.64
202.021	48.45
202.241	37.52
202.461	11.25
202.682	2.87
202.902	-20.68
203.122	-15.06
203.342	-18.13
203.563	12.45
203.783	9.66
204.003	8.04
204.223	-1.24
204.443	-9.37
204.663	-50.66
204.884	-18.82
205.104	19.7
205.324	28.3
205.544	34.54
205.764	42.27
205.984	25.47
206.204	-13.32
206.424	-22.86
206.644	-5.74
206.864	-8.09
207.084	2.74
207.304	21.79
207.525	12.65
207.745	5.09
207.964	7.33
208.184	15.71
208.404	8.11
208.624	35.39
208.844	54.29
209.064	55.92
209.284	48.6
209.504	48.34
209.724	29.8
209.944	2.4
210.164	-5.61
210.384	-41.59
210.604	-47.51
210.823	13.57
211.043	7.33
211.263	6.45
211.483	25.33
211.703	38.24
211.922	41.44
212.142	58.9
212.362	43.8
212.582	45.73
212.801	45.4
213.021	39.11
213.241	32.17
213.461	37.4
213.68	42.03
213.9	34.16
214.12	20.81
214.339	47.99
214.559	41.8
214.779	9.84
214.998	10.64
215.218	9.29
215.438	13.12
215.657	14.83
215.877	25.75
216.096	32.26
216.316	39.5
216.535	20.69
216.755	31.87
216.974	47.86
217.194	43.75
217.413	40.56
217.633	50.27
217.852	37.53
218.072	14.92
218.291	-0.26
218.511	20.45
218.73	20.16
218.95	13.94
219.169	40.43
219.389	44.38
219.608	52.65
219.827	72.22
220.047	98.65
220.266	65.81
220.485	70.34
220.705	49.53
220.924	46.08
221.143	40.96
221.363	20.17
221.582	3.41
221.801	1.51
222.021	5.23
222.24	9.31
222.459	1.68
222.678	-6.03
222.897	6.23
223.117	21.1
223.336	25.03
223.555	21.63
223.774	24.89
223.993	18.67
224.213	-16.92
224.432	-1.09
224.651	30.17
224.87	35.92
225.089	30.05
225.308	34.83
225.527	27.37
225.746	4.98
225.965	11.06
226.184	9.33
226.404	13.07
226.623	20.05
226.842	28.58
227.061	9.36
227.28	19.63
227.499	18.38
227.718	-3.92
227.936	-13.16
228.155	17.5
228.374	16.68
228.593	17.74
228.812	32.28
229.031	13.88
229.25	2.66
229.469	-1.81
229.688	-8.14
229.907	-16.45
230.125	22.87
230.344	40.94
230.563	47.45
230.782	53.51
231.001	48.01
231.22	50.73
231.438	27.48
231.657	18.28
231.876	18.01
232.095	32.51
232.313	27.56
232.532	28.05
232.751	21.81
232.969	18.26
233.188	8.84
233.407	10.96
233.625	19.96
233.844	25.52
234.063	27.16
234.281	26.71
234.5	9.9
234.719	26.3
234.937	10.58
235.156	19.58
235.374	24.86
235.593	38.76
235.811	39.68
236.03	52.73
236.249	32.99
236.467	35.3
236.686	34.44
236.904	22.27
237.123	13.88
237.341	24.19
237.559	16.21
237.778	26.18
237.996	29.55
238.215	31.67
238.433	38.15
238.652	49.79
238.87	38.87
239.088	39.03
239.307	52.65
239.525	26.17
239.743	11.42
239.962	13.45
240.18	8.25
240.398	8.94
240.617	19.01
240.835	27.88
241.053	26.95
241.271	32.59
241.49	36.67
241.708	41.58
241.926	26.43
242.144	26.03
242.363	38.38
242.581	26.12
242.799	35.92
243.017	32.68
243.235	45.51
243.453	24.63
243.672	25.34
243.89	14.27
244.108	18.71
244.326	6.83
244.544	-2.94
244.762	-4.6
244.98	12.27
245.198	0.52
245.416	15.12
245.634	34.37
245.852	38.76
246.07	34.89
246.288	47.52
246.506	42.14
246.724	44.31
246.942	35.89
247.16	18.41
247.378	8.87
247.596	26.73
247.814	25.9
248.032	18.39
248.25	25.37
248.468	42.35
248.685	17.83
248.903	0.53
249.121	18.23
249.339	15.01
249.557	5.4
249.775	5.5
249.992	20.27
250.21	18.41
250.428	15.32
250.646	10.4
250.863	28.58
251.081	31.66
251.299	10.1
251.517	25.54
251.734	42.08
251.952	17.63
252.17	25.09
252.387	37.98
252.605	55.6
252.823	59.55
253.04	74.13
253.258	67.17
253.475	57.92
253.693	47.94
253.911	42.5
254.128	29.93
254.346	17.33
254.563	30.75
254.781	26.61
254.998	39.7
255.216	21.29
255.433	42.07
255.651	41.08
255.868	24.93
256.086	5.06
256.303	8.09
256.521	15.03
256.738	15.75
256.956	29.91
257.173	39.12
257.39	42.19
257.608	34.92
257.825	44.92
258.043	39.77
258.26	48.32
258.477	45.3
258.695	39.39
258.912	29.91
259.129	37.8
259.346	24.2
259.564	33.64
259.781	76.24
259.998	57.66
260.216	47.06
260.433	37.74
260.65	46.24
260.867	22.36
261.084	35.29
261.302	18.83
261.519	26.99
261.736	20.67
261.953	36.13
262.17	17.56
262.387	17.2
262.604	20.59
262.822	22.31
263.039	12.08
263.256	26.98
263.473	38.99
263.69	44.9
263.907	23.68
264.124	28.4
264.341	20.99
264.558	29.89
264.775	16.41
264.992	38.68
265.209	40.95
265.426	44.11
265.643	36.9
265.86	31.88
266.077	20.2
266.294	23.06
266.51	23.81
266.727	29.19
266.944	37.48
267.161	43.46
267.378	27.94
267.595	36.73
267.812	47.94
268.028	62.67
268.245	70.62
268.462	90.69
268.679	77.3
268.896	59.13
269.112	37.41
269.329	17.55
269.546	18.75
269.763	16.25
269.979	13.67
270.196	21.13
270.413	34.88
270.629	38.22
270.846	51.24
271.063	46.79
271.279	44.55
271.496	45.48
271.712	29.58
271.929	0.93
272.146	-18.1
272.362	3.69
272.579	13.86
272.795	23.08
273.012	22.72
273.228	32.42
273.445	28.54
273.661	19.5
273.878	2.03
274.094	17.59
274.311	17.55
274.527	23.86
274.744	22.45
274.96	34.79
275.177	18.89
275.393	15.96
275.609	24.93
275.826	20.8
276.042	7.75
276.259	17.35
276.475	15.87
276.691	6.26
276.908	3.84
277.124	13.75
277.34	22.97
277.557	5.65
277.773	-2.46
277.989	12.93
278.205	26.6
278.422	21.25
278.638	21.66
278.854	35.06
279.07	35.9
279.286	19.75
279.503	15.82
279.719	34.75
279.935	29.92
280.151	32.25
280.367	38.19
280.583	39.77
280.799	43.23
281.016	51.69
281.232	42.72
281.448	42.35
281.664	31.14
281.88	25.71
282.096	12.02
282.312	11.11
282.528	26.46
282.744	35.29
282.96	39.95
283.176	48.06
283.392	68.83
283.608	67.02
283.824	60.64
284.04	31.96
284.256	26.08
284.471	11.91
284.687	-2.69
284.903	9.97
285.119	16.35
285.335	8.93
285.551	10.8
285.767	27.62
285.982	5.21
286.198	20.7
286.414	20.68
286.63	22.37
286.846	3.13
287.061	18.35
287.277	4.49
287.493	11.55
287.709	7.2
287.924	18.47
288.14	15.29
288.356	39.9
288.571	43.4
288.787	54.59
289.003	36.11
289.218	22.07
289.434	7.35
289.65	6.22
289.865	-12.56
290.081	15.58
290.296	17.73
290.512	18.38
290.727	26.35
290.943	25.61
291.159	34.56
291.374	48.79
291.59	50.38
291.805	47.11
292.021	55.5
292.236	49.79
292.451	35.88
292.667	36.41
292.882	24.69
293.098	23.58
293.313	25.05
293.529	34.33
293.744	39.61
293.959	49.09
294.175	54
294.39	51.57
294.605	49.71
294.821	38.76
295.036	30.37
295.251	17.79
295.467	7.8
295.682	-14.67
295.897	3.46
296.112	29.04
296.328	38.31
296.543	45.27
296.758	59.33
296.973	64.17
297.188	56.69
297.404	38.47
297.619	29.77
297.834	27.64
298.049	21.49
298.264	18.68
298.479	22.86
298.694	24.29
298.909	16.1
299.125	19.19
299.34	17.01
299.555	30.32
299.77	31.73
299.985	36.07
300.2	35.69
300.415	27.64
300.63	19.34
300.845	24.4
301.06	22.28
301.275	23.56
301.49	29.51
301.704	24.82
301.919	26.45
302.134	25.98
302.349	24.71
302.564	24.14
302.779	20.92
302.994	7.9
303.209	2
303.423	-5.16
303.638	-17.84
303.853	-14.42
304.068	-1.17
304.283	4.54
304.497	-4.49
304.712	14.15
304.927	4.71
305.142	18.38
305.356	-2.69
305.571	15
305.786	3.02
306	6.58
306.215	0.87
306.43	16.49
306.644	17.11
306.859	19.24
307.074	39.18
307.288	35.33
307.503	32.08
307.717	24.25
307.932	24.05
308.147	18.29
308.361	7.64
308.576	12.63
308.79	21.19
309.005	7.6
309.219	-13.28
309.434	-16.42
309.648	-14.45
309.863	-34.7
310.077	-17.68
310.292	-1.45
310.506	-7.31
310.72	-3.05
310.935	4.25
311.149	-0.97
311.364	-14.33
311.578	13.88
311.792	10.36
312.007	39.48
312.221	58.85
312.435	64.9
312.649	63.23
312.864	58.39
313.078	39.43
313.292	6.82
313.507	-2.73
313.721	30.22
313.935	26.1
314.149	24.18
314.363	24.98
314.578	31.85
314.792	17.84
315.006	29.36
315.22	36.61
315.434	30.72
315.648	31.53
315.862	33.43
316.077	20
316.291	26.02
316.505	36
316.719	42.45
316.933	34.21
317.147	42.99
317.361	32.8
317.575	18.4
317.789	-0.25
318.003	2.04
318.217	19.17
318.431	8.34
318.645	12.81
318.859	20.35
319.073	15.44
319.287	-3.63
319.5	-7.43
319.714	-2.73
319.928	3.11
320.142	-10.08
320.356	14.91
320.57	27.75
320.784	31.25
320.997	36.9
321.211	45.43
321.425	33.32
321.639	30.05
321.853	23.74
322.066	14.76
322.28	7.3
322.494	7.66
322.707	15.76
322.921	27.47
323.135	24.14
323.349	27.76
323.562	28.12
323.776	11.9
323.989	-13.71
324.203	-8.84
324.417	-25.8
324.63	6.62
324.844	18.08
325.057	34.16
325.271	47.73
325.485	56.18
325.698	36.11
325.912	49.14
326.125	51.53
326.339	40.87
326.552	49.94
326.766	55
326.979	44.5
327.193	25.55
327.406	34.83
327.619	19.07
327.833	7.5
328.046	16.94
328.26	33.15
328.473	21.09
328.686	29.59
328.9	43.27
329.113	35.37
329.326	-0.08
329.54	0.86
329.753	-33.58
329.966	-40.11
330.179	-64.04
330.393	-10.37
330.606	-25.05
330.819	8.9
331.032	25.74
331.246	44.25
331.459	39.11
331.672	39.83
331.885	37.17
332.098	42.69
332.311	29.01
332.525	25.52
332.738	30.55
332.951	29.94
333.164	18.92
333.377	33.69
333.59	42.31
333.803	48.33
334.016	42.62
334.229	39.72
334.442	48.63
334.655	59.34
334.868	61.9
335.081	68.31
335.294	69.32
335.507	54.54
335.72	45.31
335.933	33.26
336.146	16.69
336.359	23.66
336.572	9.47
336.785	8.62
336.997	11.33
337.21	25.07
337.423	12.72
337.636	35.36
337.849	18.13
338.062	17.08
338.274	20.98
338.487	20.27
338.7	14.75
338.913	9.95
339.125	-10.75
339.338	-29.72
339.551	-42.48
339.763	-37.82
339.976	-21.73
340.189	8.46
340.402	10.22
340.614	16.55
340.827	24.67
341.039	22
341.252	10.23
341.465	4.4
341.677	18.72
341.89	1.31
342.102	20.67
342.315	12.4
342.527	19.65
342.74	11.4
342.952	-1.66
343.165	0.59
343.377	14.71
343.59	12.33
343.802	23
344.015	34.32
344.227	29.1
344.44	9.31
344.652	19.52
344.864	-16.84
345.077	-12.23
345.289	-16.45
345.502	-2.11
345.714	-2.37
345.926	-2.68
346.139	14.23
346.351	23.64
346.563	25.14
346.775	16.43
346.988	33.15
347.2	27.68
347.412	29.94
347.624	15.37
347.837	6.57
348.049	2.25
348.261	-4.28
348.473	-11.06
348.685	9.09
348.897	11.87
349.11	13.36
349.322	9.06
349.534	25.17
349.746	25.7
349.958	37.27
350.17	43.17
350.382	41.05
350.594	16.25
350.806	7.76
351.018	1.34
351.23	-9.08
351.442	-6.18
351.654	30.07
351.866	32.6
352.078	32.46
352.29	40.65
352.502	35.73
352.714	30.32
352.926	26.59
353.138	32.66
353.35	23.82
353.561	25.09
353.773	25.81
353.985	7.84
354.197	17.93
354.409	11.94
354.621	18.44
354.832	12.08
355.044	20.14
355.256	11.26
355.468	15.95
355.679	11.53
355.891	23.97
356.103	27.65
356.314	28.7
356.526	24.69
356.738	17.86
356.949	3.95
357.161	18.89
357.373	14.78
357.584	15.49
357.796	24.74
358.008	30.9
358.219	35.37
358.431	39.15
358.642	41.74
358.854	41.81
359.065	31.05
359.277	22.05
359.488	34.63
359.7	34.84
359.911	43.24
360.123	48.92
360.334	45.03
360.546	27.45
360.757	21.02
360.969	4.45
361.18	15.83
361.391	21.08
361.603	31.95
361.814	29.83
362.025	40.3
362.237	30.42
362.448	22.84
362.659	9.23
362.871	14.31
363.082	2.07
363.293	7.63
363.504	1.1
363.716	2.41
363.927	-13.53
364.138	-0.86
364.349	-4.49
364.56	4.03
364.772	17.09
364.983	25.17
365.194	8.59
365.405	13.67
365.616	10.85
365.827	22.23
366.038	25.94
366.25	29.49
366.461	28.69
366.672	28.52
366.883	12.77
367.094	31.26
367.305	36.52
367.516	35.64
367.727	47.25
367.938	50.36
368.149	22.77
368.36	10.43
368.571	3.64
368.781	-3.96
368.992	-5.08
369.203	-7.38
369.414	3.14
369.625	14.29
369.836	17.23
370.047	19.38
370.258	40.18
370.468	32.14
370.679	16
370.89	15.21
371.101	10.95
371.312	5.68
371.522	9.97
371.733	21.76
371.944	28.05
372.155	30.38
372.365	17.89
372.576	19.72
372.787	22.8
372.997	22.44
373.208	21.71
373.419	31.54
373.629	29.05
373.84	29.46
374.05	23.21
374.261	18.63
374.472	22.08
374.682	21.64
374.893	21.16
375.103	22.1
375.314	25.88
375.524	27.65
375.735	26.12
375.945	18.16
376.156	24.51
376.366	32.61
376.577	15.84
376.787	17.4
376.997	19.89
377.208	16.14
377.418	7.82
377.629	22.6
377.839	30.61
378.049	31.1
378.26	31
378.47	35.51
378.68	30.75
378.89	28.14
379.101	23.4
379.311	21.84
379.521	26.84
379.732	19.02
379.942	25.01
380.152	29.65
380.362	37.15
380.572	27.87
380.783	26.99
380.993	16.79
381.203	7.35
381.413	0.17
381.623	-4.02
381.833	-0.94
382.043	4.99
382.253	11.76
382.463	7.83
382.674	21.04
382.884	13.43
383.094	8.21
383.304	6.11
383.514	11.67
383.724	2.05
383.934	8.89
384.144	7.71
384.353	7.81
384.563	12.03
384.773	17.39
384.983	12.81
385.193	10.89
385.403	8.99
385.613	7.24
385.823	5.34
386.033	9.39
386.242	16
386.452	14.84
386.662	14.13
386.872	18.68
387.082	13.16
387.291	7.63
387.501	13.65
387.711	11.43
387.921	10.89
388.13	14.91
388.34	14.33
388.55	10.74
388.759	9.81
388.969	6.13
389.179	6.93
389.388	10.86
389.598	15.46
389.807	15.42
390.017	14.62
390.227	15.7
390.436	13.72
390.646	9.62
390.855	8.52
391.065	8.47
391.274	5.36
391.484	4.3
391.693	6.18
391.903	8.26
392.112	8.76
392.322	9.08
392.531	8.97
392.74	9.1
392.95	9.14
393.159	9.25
393.369	9.4
393.578	10.65
393.787	10.05
393.997	9.84
394.206	10.86
394.415	10.21
394.625	9.43
394.834	8.91
395.043	8.39
395.252	8.07
395.462	9.17
395.671	8.44
395.88	9.44
396.089	9.72
396.298	9.23
396.508	9.6
396.717	10.74
396.926	9.86
397.135	9.94
397.344	9.87
397.553	9.2
397.762	8.82
397.971	9.16
398.181	8.88
398.39	9.03
398.599	9.26
398.808	9.05
399.017	9.22
399.226	9.6
399.435	9.36
399.644	9.75
399.853	10.18
400.062	10.29
400.27	10.06
400.479	9.94
400.688	9.42
400.897	9.32
401.106	9.14
401.315	9.15
401.524	9.14
401.733	9.33
401.941	9.11
402.15	9.1
402.359	9.18
402.568	9.6
402.777	9.32
402.985	9.53
403.194	9.8
403.403	9.6
403.612	9.38
403.82	9.41
404.029	9.19
404.238	8.99
404.446	9.25
404.655	9.25
404.864	9.33
405.072	9.34
405.281	9.21
405.489	9.01
405.698	9.22
405.906	9.21
406.115	9.12
406.324	9.17
406.532	9.02
406.741	8.88
406.949	8.9
407.158	8.9
407.366	8.76
407.574	9.01
407.783	8.8
407.991	8.7
408.2	8.64
408.408	8.79
408.617	8.72
408.825	8.75
409.033	8.66
409.242	8.65
409.45	8.57
409.658	8.58
409.867	8.65
410.075	8.55
410.283	8.63
410.491	8.51
410.7	8.29
410.908	8.24
411.116	8.45
411.324	8.38
411.533	8.49
411.741	8.42
411.949	8.4
412.157	8.3
412.365	8.55
412.573	8.39
412.781	8.55
412.99	8.5
413.198	8.71
413.406	8.45
413.614	8.59
413.822	8.64
414.03	8.59
414.238	8.34
414.446	8.33
414.654	8.24
414.862	8.1
415.07	8.14
415.278	8.05
415.486	7.98
415.694	7.83
415.902	7.77
416.109	7.79
416.317	7.91
416.525	7.95
416.733	8.04
416.941	8.07
417.149	7.96
417.357	8.06
417.564	7.89
417.772	7.86
417.98	7.78
418.188	7.88
418.395	7.72
418.603	7.82
418.811	7.98
419.019	8.09
419.226	8.09
419.434	8.2
419.642	8.35
419.849	8.21
420.057	8.03
420.265	7.91
420.472	7.77
420.68	7.73
420.887	7.77
421.095	7.85
421.302	7.9
421.51	7.84
421.717	7.8
421.925	7.79
422.132	7.78
422.34	7.73
422.547	7.82
422.755	7.73
422.962	7.73
423.17	7.74
423.377	7.84
423.585	7.83
423.792	7.74
423.999	7.65
424.207	7.69
424.414	7.49
424.621	7.49
424.829	7.54
425.036	7.58
425.243	7.57
425.451	7.48
425.658	7.38
425.865	7.54
426.072	7.48
426.28	7.42
426.487	7.59
426.694	7.55
426.901	7.36
427.108	7.32
427.315	7.35
427.523	7.3
427.73	7.13
427.937	7.19
428.144	7.33
428.351	7.15
428.558	7.28
428.765	7.52
428.972	7.43
429.179	7.38
429.386	7.38
429.593	7.32
429.8	7.27
430.007	7.2
430.214	7.12
430.421	7.26
430.628	7.15
430.835	7.2
431.042	7.18
431.249	7.29
431.456	7.25
431.662	7.46
431.869	7.43
432.076	7.44
432.283	7.46
432.49	7.51
432.697	7.45
432.903	7.46
433.11	7.61
433.317	7.55
433.524	7.45
433.73	7.28
433.937	7.24
434.144	7.13
434.35	7.1
434.557	7.16
434.764	7.18
434.97	7.13
435.177	7.16
435.384	7.05
435.59	7.02
435.797	7.09
436.003	7.09
436.21	7.06
436.416	7.12
436.623	7.08
436.829	6.96
437.036	6.97
437.242	6.91
437.449	6.9
437.655	6.96
437.862	7.05
438.068	7.15
438.275	7.28
438.481	7.15
438.687	7.08
438.894	7.09
439.1	6.96
439.307	6.87
439.513	7.04
439.719	7.22
439.926	7.11
440.132	7.24
440.338	7.2
440.544	7.19
440.751	7.03
440.957	7.11
441.163	6.9
441.369	6.96
441.575	6.87
441.782	6.89
441.988	6.86
442.194	7.01
442.4	7.1
442.606	7.08
442.812	7.11
443.018	7.06
443.224	7.02
443.431	6.87
443.637	6.93
443.843	6.9
444.049	7.03
444.255	6.99
444.461	6.95
444.667	6.93
444.873	6.88
445.079	6.85
445.284	6.92
445.49	7.02
445.696	7.04
445.902	6.99
446.108	6.96
446.314	6.9
446.52	6.88
446.726	6.83
446.931	6.91
447.137	6.84
447.343	6.83
447.549	6.79
447.755	6.8
447.96	6.85
448.166	6.91
448.372	6.88
448.578	6.86
448.783	6.92
448.989	6.88
449.195	6.86
449.4	6.89
449.606	6.87
449.812	6.78
450.017	6.81
450.223	6.74
450.428	6.72
450.634	6.76
450.84	6.7
451.045	6.73
451.251	6.78
451.456	6.8
451.662	6.69
451.867	6.86
452.073	6.71
452.278	6.7
452.483	6.57
452.689	6.6
452.894	6.53
453.1	6.59
453.305	6.6
453.51	6.73
453.716	6.72
453.921	6.76
454.127	6.77
454.332	6.7
454.537	6.73
454.742	6.63
454.948	6.43
455.153	6.49
455.358	6.56
455.563	6.57
455.769	6.77
455.974	6.82
456.179	6.72
456.384	6.61
456.589	6.6
456.795	6.47
457	6.47
457.205	6.41
457.41	6.39
457.615	6.34
457.82	6.37
458.025	6.4
458.23	6.48
458.435	6.5
458.64	6.34
458.845	6.3
459.05	6.29
459.255	6.25
459.46	6.41
459.665	6.56
459.87	6.56
460.075	6.72
460.28	6.74
460.485	6.64
460.69	6.6
460.895	6.72
461.099	6.66
461.304	6.66
461.509	6.74
461.714	6.83
461.919	6.8
462.123	6.74
462.328	6.73
462.533	6.68
462.738	6.6
462.942	6.58
463.147	6.54
463.352	6.5
463.556	6.59
463.761	6.59
463.966	6.57
464.17	6.76
464.375	6.78
464.58	6.69
464.784	6.66
464.989	6.7
465.193	6.54
465.398	6.56
465.602	6.59
465.807	6.64
466.011	6.59
466.216	6.63
466.42	6.65
466.625	6.55
466.829	6.51
467.034	6.55
467.238	6.57
467.443	6.64
467.647	6.69
467.851	6.71
468.056	6.71
468.26	6.67
468.464	6.63
468.669	6.7
468.873	6.68
469.077	6.69
469.282	6.7
469.486	6.75
469.69	6.7
469.894	6.82
470.099	6.78
470.303	6.78
470.507	6.72
470.711	6.76
470.915	6.72
471.119	6.68
471.324	6.74
471.528	6.63
471.732	6.61
471.936	6.66
472.14	6.63
472.344	6.65
472.548	6.72
472.752	6.64
472.956	6.55
473.16	6.65
473.364	6.5
473.568	6.48
473.772	6.55
473.976	6.48
474.18	6.46
474.384	6.55
474.588	6.58
474.792	6.63
474.995	6.63
475.199	6.65
475.403	6.63
475.607	6.64
475.811	6.56
476.015	6.67
476.218	6.67
476.422	6.63
476.626	6.59
476.83	6.76
477.033	6.72
477.237	6.76
477.441	6.86
477.644	6.86
477.848	6.71
478.052	6.79
478.255	6.74
478.459	6.69
478.663	6.67
478.866	6.64
479.07	6.65
479.273	6.64
479.477	6.65
479.681	6.79
479.884	6.82
480.088	6.7
480.291	6.74
480.495	6.76
480.698	6.63
480.901	6.64
481.105	6.73
481.308	6.72
481.512	6.7
481.715	6.71
481.919	6.65
482.122	6.64
482.325	6.67
482.529	6.64
482.732	6.65
482.935	6.69
483.138	6.7
483.342	6.66
483.545	6.73
483.748	6.76
483.952	6.8
484.155	6.84
484.358	6.92
484.561	6.92
484.764	6.9
484.967	6.95
485.171	7
485.374	6.94
485.577	6.93
485.78	7.03
485.983	6.98
486.186	6.85
486.389	6.9
486.592	6.91
486.795	6.92
486.998	7.01
487.201	7.14
487.404	7.26
487.607	7.37
487.81	7.42
488.013	7.43
488.216	7.49
488.419	7.47
488.622	7.47
488.825	7.47
489.028	7.53
489.231	7.56
489.433	7.62
489.636	7.7
489.839	7.82
490.042	7.85
490.245	7.89
490.447	8.01
490.65	8.09
490.853	8.14
491.056	8.28
491.258	8.38
491.461	8.39
491.664	8.46
491.866	8.62
492.069	8.69
492.272	8.78
492.474	8.91
492.677	9.03
492.879	9.06
493.082	9.15
493.285	9.32
493.487	9.47
493.69	9.55
493.892	9.75
494.095	9.94
494.297	10.01
494.5	10.07
494.702	10.22
494.905	10.37
495.107	10.46
495.309	10.67
495.512	10.77
495.714	10.89
495.917	10.98
496.119	11.06
496.321	11.14
496.524	11.39
496.726	11.57
496.928	11.73
497.13	11.94
497.333	12.1
497.535	12.19
497.737	12.32
497.939	12.46
498.142	12.62
498.344	12.8
498.546	12.92
498.748	13.09
498.95	13.2
499.152	13.28
499.355	13.25
499.557	13.36
499.759	13.4
499.961	13.54
500.163	13.58
500.365	13.76
500.567	13.8
500.769	13.91
500.971	13.91
501.173	14.03
501.375	14.15
501.577	14.23
501.779	14.29
501.981	14.4
502.183	14.44
502.385	14.46
502.587	14.47
502.788	14.44
502.99	14.33
503.192	14.35
503.394	14.32
503.596	14.38
503.798	14.53
503.999	14.56
504.201	14.51
504.403	14.47
504.605	14.39
504.806	14.29
505.008	14.3
505.21	14.33
505.411	14.26
505.613	14.19
505.815	14.09
506.016	13.96
506.218	13.94
506.42	13.87
506.621	13.87
506.823	13.85
507.024	13.89
507.226	13.8
507.427	13.79
507.629	13.71
507.83	13.53
508.032	13.36
508.233	13.3
508.435	13.21
508.636	13.2
508.838	13.25
509.039	13.22
509.24	13.1
509.442	13.06
509.643	12.9
509.845	12.78
510.046	12.74
510.247	12.71
510.448	12.63
510.65	12.61
510.851	12.61
511.052	12.56
511.254	12.46
511.455	12.41
511.656	12.32
511.857	12.17
512.058	12.05
512.26	11.96
512.461	11.89
512.662	11.78
512.863	11.75
513.064	11.69
513.265	11.65
513.466	11.61
513.667	11.64
513.868	11.54
514.069	11.58
514.27	11.46
514.471	11.43
514.672	11.34
514.873	11.34
515.074	11.25
515.275	11.25
515.476	11.14
515.677	11.11
515.878	11.07
516.079	10.99
516.28	10.98
516.481	10.92
516.682	10.95
516.882	10.93
517.083	10.87
517.284	10.85
517.485	10.89
517.686	10.74
517.886	10.73
518.087	10.76
518.288	10.7
518.488	10.68
518.689	10.7
518.89	10.64
519.091	10.62
519.291	10.59
519.492	10.49
519.692	10.47
519.893	10.48
520.094	10.37
520.294	10.33
520.495	10.33
520.695	10.34
520.896	10.27
521.096	10.27
521.297	10.31
521.497	10.32
521.698	10.27
521.898	10.2
522.099	10.19
522.299	10.15
522.499	10.08
522.7	10.05
522.9	10.11
523.101	10.08
523.301	10.06
523.501	10.11
523.702	10.16
523.902	10.08
524.102	10.11
524.302	10.09
524.503	10.02
524.703	10.01
524.903	10.06
525.103	10.07
525.304	10.07
525.504	10.07
525.704	9.99
525.904	9.95
526.104	9.88
526.304	9.86
526.504	9.85
526.705	9.86
526.905	9.89
527.105	9.87
527.305	9.8
527.505	9.84
527.705	9.81
527.905	9.75
528.105	9.8
528.305	9.88
528.505	9.83
528.705	9.94
528.905	9.94
529.105	9.91
529.304	9.91
529.504	9.9
529.704	9.81
529.904	9.85
530.104	9.9
530.304	9.9
530.503	9.95
530.703	9.97
530.903	9.99
531.103	9.94
531.303	9.93
531.502	9.93
531.702	9.94
531.902	9.92
532.101	9.9
532.301	9.94
532.501	9.92
532.7	9.9
532.9	9.85
533.1	9.84
533.299	9.85
533.499	9.89
533.698	9.91
533.898	9.97
534.097	10.04
534.297	10.06
534.496	9.99
534.696	9.97
534.895	9.92
535.095	9.93
535.294	9.88
535.494	9.92
535.693	10
535.892	10.02
536.092	10.03
536.291	10.03
536.491	10.07
536.69	10.06
536.889	10.11
537.088	10.05
537.288	9.99
537.487	10.01
537.686	9.97
537.886	10
538.085	10.03
538.284	10.1
538.483	10.06
538.682	10.03
538.882	10.06
539.081	10.07
539.28	10.14
539.479	10.16
539.678	10.2
539.877	10.16
540.076	10.14
540.275	10.1
540.474	10.14
540.673	10.11
540.872	10.14
541.071	10.17
541.27	10.19
541.469	10.11
541.668	10.12
541.867	10.08
542.066	10.08
542.265	10.1
542.464	10.13
542.663	10.2
542.862	10.22
543.06	10.24
543.259	10.25
543.458	10.29
543.657	10.29
543.856	10.35
544.054	10.35
544.253	10.41
544.452	10.45
544.651	10.41
544.849	10.36
545.048	10.33
545.247	10.36
545.445	10.34
545.644	10.35
545.843	10.37
546.041	10.4
546.24	10.32
546.438	10.35
546.637	10.38
546.836	10.39
547.034	10.48
547.233	10.52
547.431	10.5
547.63	10.59
547.828	10.61
548.027	10.63
548.225	10.65
548.423	10.64
548.622	10.59
548.82	10.62
549.019	10.66
549.217	10.6
549.415	10.66
549.614	10.7
549.812	10.74
550.01	10.67
550.209	10.8
550.407	10.84
550.605	10.9
550.803	10.88
551.002	10.92
551.2	10.93
551.398	10.94
551.596	10.95
551.794	10.98
551.993	11.02
552.191	11.02
552.389	11.11
552.587	11.17
552.785	11.26
552.983	11.3
553.181	11.39
553.379	11.33
553.577	11.39
553.775	11.42
553.973	11.44
554.171	11.42
554.369	11.54
554.567	11.57
554.765	11.65
554.963	11.74
555.161	11.84
555.359	11.86
555.557	11.89
555.755	11.88
555.952	11.96
556.15	12.02
556.348	12.05
556.546	12.02
556.744	12.06
556.941	12.02
557.139	12.01
557.337	12.16
557.535	12.3
557.732	12.4
557.93	12.52
558.128	12.66
558.325	12.64
558.523	12.68
558.721	12.72
558.918	12.76
559.116	12.88
559.313	12.96
559.511	13.09
559.708	13.18
559.906	13.26
560.104	13.25
560.301	13.27
560.498	13.24
560.696	13.27
560.893	13.33
561.091	13.4
561.288	13.51
561.486	13.6
561.683	13.71
561.88	13.79
562.078	13.84
562.275	13.9
562.473	14.03
562.67	14.05
562.867	14.09
563.064	14.1
563.262	14.09
563.459	14.17
563.656	14.24
563.853	14.32
564.051	14.49
564.248	14.61
564.445	14.65
564.642	14.71
564.839	14.8
565.036	14.85
565.234	14.91
565.431	14.97
565.628	15.01
565.825	15.02
566.022	15.12
566.219	15.24
566.416	15.3
566.613	15.4
566.81	15.51
567.007	15.54
567.204	15.56
567.401	15.62
567.598	15.7
567.795	15.73
567.991	15.74
568.188	15.72
568.385	15.77
568.582	15.88
568.779	15.92
568.976	16.02
569.172	16.12
569.369	16.1
569.566	16.03
569.763	15.99
569.96	16.05
570.156	15.97
570.353	16.12
570.55	16.17
570.746	16.29
570.943	16.31
571.14	16.5
571.336	16.46
571.533	16.43
571.729	16.45
571.926	16.53
572.123	16.49
572.319	16.56
572.516	16.71
572.712	16.76
572.909	16.73
573.105	16.75
573.302	16.73
573.498	16.66
573.695	16.7
573.891	16.61
574.087	16.64
574.284	16.68
574.48	16.8
574.677	16.67
574.873	16.84
575.069	16.82
575.266	16.82
575.462	16.77
575.658	16.86
575.854	16.87
576.051	16.92
576.247	16.93
576.443	16.97
576.639	17.09
576.835	17
577.032	17.03
577.228	17.02
577.424	16.98
577.62	17
577.816	17.03
578.012	17.01
578.208	17.03
578.404	17.07
578.6	16.86
578.796	16.78
578.993	16.79
579.189	16.74
579.384	16.63
579.58	16.72
579.776	16.8
579.972	16.8
580.168	16.76
580.364	16.77
580.56	16.78
580.756	16.71
580.952	16.64
581.148	16.72
581.343	16.69
581.539	16.57
581.735	16.58
581.931	16.53
582.127	16.46
582.322	16.47
582.518	16.54
582.714	16.59
582.909	16.63
583.105	16.58
583.301	16.59
583.496	16.55
583.692	16.53
583.888	16.44
584.083	16.43
584.279	16.32
584.474	16.24
584.67	16.03
584.866	16.03
585.061	15.96
585.257	15.97
585.452	15.98
585.648	16.04
585.843	15.96
586.039	16.03
586.234	16.11
586.429	16.08
586.625	16.08
586.82	16.14
587.015	16.11
587.211	15.95
587.406	16.04
587.601	16.1
587.797	16.13
587.992	16.12
588.187	16.1
588.383	16.05
588.578	15.99
588.773	15.89
588.968	15.91
589.163	16
589.359	16.01
589.554	15.94
589.749	16.01
589.944	16.04
590.139	16.09
590.334	16.15
590.529	16.3
590.724	16.31
590.919	16.28
591.114	16.22
591.309	16.13
591.504	15.99
591.699	15.99
591.894	15.92
592.089	15.88
592.284	15.9
592.479	15.96
592.674	15.97
592.869	16.02
593.064	16.12
593.259	16.15
593.454	16.17
593.648	16.14
593.843	16.21
594.038	16.2
594.233	16.2
594.428	16.31
594.622	16.32
594.817	16.39
595.012	16.4
595.206	16.41
595.401	16.46
595.596	16.55
595.79	16.47
595.985	16.52
596.18	16.59
596.374	16.61
596.569	16.63
596.763	16.75
596.958	16.88
597.153	16.87
597.347	16.87
597.542	16.93
597.736	16.99
597.931	16.85
598.125	17.08
598.319	17.05
598.514	17.08
598.708	17.06
598.903	17.22
599.097	17.1
599.291	17.14
599.486	17.19
599.68	17.24
599.874	17.24
600.069	17.29
600.263	17.35
600.457	17.35
600.651	17.33
600.846	17.45
601.04	17.46
601.234	17.44
601.428	17.5
601.622	17.54
601.817	17.45
602.011	17.45
602.205	17.5
602.399	17.47
602.593	17.49
602.787	17.51
602.981	17.55
603.175	17.62
603.369	17.62
603.563	17.61
603.757	17.56
603.951	17.57
604.145	17.41
604.339	17.38
604.533	17.38
604.727	17.28
604.921	17.25
605.115	17.27
605.309	17.26
605.502	17.28
605.696	17.28
605.89	17.17
606.084	17.17
606.278	17.13
606.471	17.01
606.665	17.02
606.859	17.06
607.053	17.05
607.246	17.13
607.44	17.11
607.634	17.09
607.827	16.95
608.021	16.9
608.214	16.78
608.408	16.72
608.602	16.73
608.795	16.72
608.989	16.63
609.182	16.58
609.376	16.48
609.569	16.39
609.763	16.35
609.956	16.33
610.15	16.19
610.343	16.19
610.537	16.14
610.73	16
610.923	15.88
611.117	15.91
611.31	15.84
611.504	15.77
611.697	15.82
611.89	15.8
612.083	15.61
612.277	15.61
612.47	15.53
612.663	15.52
612.856	15.4
613.05	15.38
613.243	15.29
613.436	15.28
613.629	15.12
613.822	15.15
614.015	15.17
614.209	15.06
614.402	14.94
614.595	14.99
614.788	14.9
614.981	14.86
615.174	14.82
615.367	14.81
615.56	14.57
615.753	14.49
615.946	14.39
616.139	14.36
616.332	14.33
616.525	14.37
616.718	14.34
616.911	14.3
617.103	14.28
617.296	14.23
617.489	14.14
617.682	14.16
617.875	14.14
618.067	14.05
618.26	14
618.453	13.99
618.646	13.96
618.838	13.9
619.031	13.88
619.224	13.92
619.417	13.98
619.609	13.97
619.802	13.91
619.994	13.9
620.187	13.78
620.38	13.69
620.572	13.56
620.765	13.49
620.957	13.43
621.15	13.39
621.342	13.32
621.535	13.37
621.727	13.38
621.92	13.4
622.112	13.41
622.305	13.45
622.497	13.36
622.69	13.3
622.882	13.21
623.074	13.22
623.267	13.15
623.459	13.17
623.651	13.2
623.844	13.24
624.036	13.16
624.228	13.2
624.42	13.2
624.613	13.14
624.805	13.09
624.997	13.03
625.189	12.92
625.381	12.93
625.574	12.92
625.766	12.99
625.958	13.09
626.15	13.16
626.342	13.1
626.534	13.1
626.726	12.96
626.918	12.84
627.11	12.8
627.302	12.71
627.494	12.7
627.686	12.73
627.878	12.77
628.07	12.67
628.262	12.69
628.454	12.61
628.646	12.5
628.838	12.49
629.029	12.59
629.221	12.57
629.413	12.54
629.605	12.57
629.797	12.54
629.989	12.44
630.18	12.43
630.372	12.5
630.564	12.47
630.755	12.46
630.947	12.44
631.139	12.39
631.33	12.3
631.522	12.26
631.714	12.18
631.905	12.15
632.097	12.11
632.289	12.07
632.48	12.04
632.672	12.06
632.863	12.03
633.055	12.07
633.246	12.12
633.438	12.15
633.629	12.1
633.821	12.07
634.012	12.06
634.203	12.02
634.395	11.98
634.586	12.1
634.777	12.08
634.969	12.11
635.16	12.11
635.351	12.12
635.543	11.98
635.734	12
635.925	11.9
636.117	11.87
636.308	11.81
636.499	11.73
636.69	11.62
636.881	11.67
637.073	11.61
637.264	11.59
637.455	11.54
637.646	11.61
637.837	11.44
638.028	11.32
638.219	11.37
638.41	11.45
638.601	11.4
638.792	11.44
638.983	11.52
639.174	11.38
639.365	11.38
639.556	11.31
639.747	11.27
639.938	11.28
640.129	11.28
640.32	11.31
640.511	11.33
640.701	11.35
640.892	11.25
641.083	11.23
641.274	11.09
641.465	11.07
641.655	11.13
641.846	11.13
642.037	11.07
642.228	11.13
642.418	10.98
642.609	10.9
642.8	10.89
642.99	10.89
643.181	10.79
643.372	10.91
643.562	10.89
643.753	10.85
643.943	10.93
644.134	10.94
644.324	10.9
644.515	10.9
644.705	10.85
644.896	10.7
645.086	10.71
645.277	10.69
645.467	10.63
645.658	10.62
645.848	10.69
646.038	10.64
646.229	10.59
646.419	10.63
646.61	10.61
646.8	10.6
646.99	10.59
647.18	10.57
647.371	10.48
647.561	10.5
647.751	10.54
647.941	10.54
648.132	10.54
648.322	10.55
648.512	10.48
648.702	10.4
648.892	10.3
649.082	10.35
649.272	10.35
649.462	10.43
649.653	10.4
649.843	10.38
650.033	10.28
650.223	10.26
650.413	10.18
650.603	10.18
650.793	10.15
650.983	10.18
651.172	10.14
651.362	10.08
651.552	10.03
651.742	9.96
651.932	9.91
652.122	9.91
652.312	9.93
652.502	9.87
652.691	9.98
652.881	10.05
653.071	10.07
653.261	10.04
653.45	10
653.64	9.97
653.83	9.86
654.019	9.72
654.209	9.75
654.399	9.74
654.588	9.66
654.778	9.54
654.968	9.51
655.157	9.42
655.347	9.39
655.536	9.32
655.726	9.25
655.915	9.28
656.105	9.17
656.294	9.11
656.484	9.08
656.673	9.01
656.863	8.87
657.052	8.85
657.241	8.77
657.431	8.67
657.62	8.56
657.809	8.31
657.999	8.2
658.188	8.14
658.377	8.08
658.567	8.02
658.756	8.09
658.945	8.1
659.134	8.02
659.324	8.03
659.513	8.03
659.702	7.99
659.891	7.85
660.08	7.71
660.269	7.47
660.458	7.34
660.648	7.26
660.837	7.29
661.026	7.33
661.215	7.33
661.404	7.36
661.593	7.25
661.782	7.1
661.971	7.03
662.16	7.04
662.349	6.97
662.538	6.95
662.726	6.91
662.915	6.84
663.104	6.73
663.293	6.65
663.482	6.62
663.671	6.54
663.86	6.5
664.048	6.44
664.237	6.45
664.426	6.38
664.615	6.35
664.803	6.28
664.992	6.3
665.181	6.32
665.369	6.33
665.558	6.41
665.747	6.48
665.935	6.43
666.124	6.36
666.312	6.33
666.501	6.29
666.69	6.15
666.878	6.21
667.067	6.13
667.255	6.11
667.444	6.06
667.632	6.15
667.82	6.12
668.009	6.12
668.197	6.2
668.386	6.27
668.574	6.3
668.762	6.26
668.951	6.4
669.139	6.49
669.327	6.49
669.516	6.51
669.704	6.53
669.892	6.48
670.08	6.37
670.269	6.38
670.457	6.27
670.645	6.28
670.833	6.27
671.021	6.3
671.21	6.31
671.398	6.45
671.586	6.53
671.774	6.65
671.962	6.62
672.15	6.62
672.338	6.69
672.526	6.77
672.714	6.82
672.902	6.87
673.09	7.11
673.278	7.07
673.466	7.14
673.654	7.22
673.842	7.38
674.03	7.28
674.218	7.4
674.405	7.36
674.593	7.25
674.781	7.29
674.969	7.28
675.157	7.24
675.344	7.25
675.532	7.46
675.72	7.53
675.908	7.62
676.095	7.62
676.283	7.75
676.471	7.81
676.658	7.81
676.846	7.84
677.033	8.1
677.221	8.17
677.409	8.19
677.596	8.29
677.784	8.43
677.971	8.4
678.159	8.43
678.346	8.46
678.534	8.39
678.721	8.52
678.909	8.56
679.096	8.59
679.283	8.67
679.471	8.73
679.658	8.63
679.846	8.76
680.033	8.85
680.22	8.9
680.408	8.95
680.595	9.14
680.782	9.12
680.969	9.12
681.157	9.18
681.344	9.26
681.531	9.22
681.718	9.35
681.905	9.51
682.093	9.53
682.28	9.63
682.467	9.81
682.654	9.71
682.841	9.64
683.028	9.64
683.215	9.73
683.402	9.62
683.589	9.92
683.776	10.16
683.963	10.29
684.15	10.5
684.337	10.64
684.524	10.69
684.711	10.88
684.898	10.91
685.085	10.98
685.271	11.21
685.458	11.35
685.645	11.31
685.832	11.61
686.019	11.82
686.205	12.02
686.392	12.08
686.579	12.35
686.766	12.51
686.952	12.5
687.139	12.65
687.326	12.92
687.512	13.1
687.699	13.09
687.886	13.36
688.072	13.47
688.259	13.75
688.445	13.9
688.632	14.46
688.818	14.84
689.005	15.13
689.191	15.41
689.378	15.95
689.564	16.23
689.751	16.47
689.937	16.92
690.124	17.21
690.31	17.44
690.496	17.93
690.683	18.3
690.869	18.67
691.055	18.95
691.242	19.3
691.428	19.63
691.614	20.01
691.8	20.3
691.987	20.73
692.173	21.37
692.359	21.82
692.545	22.36
692.731	22.9
692.918	23.57
693.104	23.82
693.29	24.34
693.476	24.82
693.662	25.45
693.848	25.87
694.034	26.56
694.22	26.99
694.406	27.53
694.592	28.07
694.778	28.59
694.964	29.08
695.15	29.52
695.336	29.87
695.522	30.39
695.708	31.14
695.894	31.71
696.08	32.12
696.265	32.87
696.451	33.17
696.637	33.46
696.823	33.82
697.009	34.63
697.194	35.17
697.38	36.04
697.566	36.69
697.751	37.32
697.937	37.66
698.123	38.21
698.308	38.57
698.494	39.07
698.68	39.63
698.865	40.22
699.051	40.56
699.236	41.02
699.422	41.46
699.607	42.3
699.793	42.95
699.978	43.74
700.164	44.41
700.349	45.04
700.535	45.19
700.72	45.64
700.906	46.16
701.091	46.72
701.276	47.24
701.462	47.83
701.647	48.51
701.832	48.84
702.018	49.5
702.203	49.99
702.388	50.47
702.573	50.77
702.759	51.33
702.944	51.54
703.129	52.16
703.314	52.82
703.499	53.64
703.684	54.32
703.87	54.95
704.055	55.51
704.24	55.52
704.425	55.62
704.61	56.16
704.795	56.53
704.98	56.86
705.165	57.59
705.35	58.5
705.535	59.02
705.72	59.6
705.905	60.13
706.09	60.77
706.275	61.16
706.459	61.47
706.644	61.81
706.829	62.07
707.014	62.51
707.199	62.3
707.384	62.62
707.568	63.35
707.753	63.5
707.938	63.49
708.123	64.34
708.307	64.68
708.492	65.11
708.677	65.44
708.861	66.26
709.046	66.53
709.231	66.78
709.415	66.39
709.6	66.94
709.784	67.06
709.969	67.3
710.153	67.37
710.338	68.01
710.522	68.72
710.707	68.65
710.891	68.64
711.076	69.32
711.26	69.93
711.445	70.08
711.629	70.73
711.813	71.29
711.998	71.45
712.182	71.33
712.366	71.37
712.551	71.48
712.735	71.61
712.919	71.73
713.103	71.29
713.288	71.63
713.472	71.72
713.656	71.99
713.84	72.06
714.024	73.35
714.208	73.3
714.393	73.74
714.577	74.43
714.761	74.98
714.945	74.96
715.129	75.08
715.313	75.15
715.497	75.15
715.681	75.08
715.865	75.38
716.049	75.77
716.233	76.61
716.417	77.02
716.601	77.17
716.785	77.43
716.968	77.87
717.152	77.67
717.336	77.64
717.52	78.09
717.704	78.04
717.888	78.38
718.071	78.25
718.255	78.44
718.439	78.27
718.622	78.48
718.806	78.39
718.99	79.16
719.174	78.71
719.357	79.15
719.541	79.54
719.724	79.61
719.908	79.47
720.092	79.99
720.275	80.39
720.459	79.84
720.642	80.14
720.826	80.74
721.009	80.59
721.193	80.89
721.376	81.28
721.559	81.3
721.743	80.82
721.926	81.62
722.11	81.55
722.293	81.88
722.476	82.34
722.66	82.78
722.843	82.56
723.026	82.63
723.21	82.68
723.393	82.26
723.576	82.35
723.759	82.16
723.942	82.13
724.126	82.12
724.309	82.81
724.492	83.05
724.675	83.58
724.858	83.77
725.041	84.25
725.224	84.57
725.407	84.69
725.59	85.05
725.774	85.22
725.957	85.28
726.14	85.8
726.322	85.38
726.505	85.72
726.688	85.61
726.871	85.55
727.054	85.01
727.237	85.45
727.42	85.14
727.603	85.69
727.786	86.02
727.968	85.99
728.151	86.05
728.334	86.22
728.517	86.04
728.699	86.04
728.882	86.33
729.065	86.57
729.248	86.86
729.43	87.6
729.613	88.61
729.796	88.39
729.978	89.44
730.161	89.3
730.343	88.68
730.526	88.71
730.708	88.98
730.891	88.69
731.073	88.69
731.256	89.72
731.438	89.51
731.621	90.17
731.803	90.11
731.986	91.36
732.168	91
732.35	90.31
732.533	89.86
732.715	89.13
732.898	88.33
733.08	89.1
733.262	89.31
733.444	89.62
733.627	90.65
733.809	90.87
733.991	91.08
734.173	92.04
734.355	92.45
734.538	92.59
734.72	93.48
734.902	93.62
735.084	93.45
735.266	93.77
735.448	93.6
735.63	93.53
735.812	93.03
735.994	92.27
736.176	91.51
736.358	93.06
736.54	93.3
736.722	94.79
736.904	96.45
737.086	96.74
737.268	95.13
737.45	94.62
737.632	93.41
737.814	92.82
737.995	93.26
738.177	93.46
738.359	93.8
738.541	94.18
738.723	94.23
738.904	94.93
739.086	95.22
739.268	95.06
739.449	93.48
739.631	93.47
739.813	93.34
739.994	93.69
740.176	93.29
740.358	95.74
740.539	96.41
740.721	96.05
740.902	95.75
741.084	96.08
741.265	94.6
741.447	94.37
741.628	94.4
741.81	94.14
741.991	94.36
742.172	95.62
742.354	95.98
742.535	96.33
742.717	97.35
742.898	98.14
743.079	97
743.261	96.22
743.442	96
743.623	95.29
743.804	94.22
743.986	94.67
744.167	94.67
744.348	94.39
744.529	95.55
744.71	96.18
744.891	96.84
745.073	97.14
745.254	97.62
745.435	96.33
745.616	95.56
745.797	94.26
745.978	94.27
746.159	94.88
746.34	95.93
746.521	96.41
746.702	97.41
746.883	97.9
747.064	96.21
747.245	96.38
747.426	95.99
747.606	94.97
747.787	95.59
747.968	96.05
748.149	94.82
748.33	95.33
748.51	96.67
748.691	95.31
748.872	95.99
749.053	96.57
749.233	96.95
749.414	95.22
749.595	95.54
749.775	95.75
749.956	96.3
750.137	96.1
750.317	97.39
750.498	97.68
750.678	98.1
750.859	97.89
751.04	97.7
751.22	96.61
751.4	96.84
751.581	96.28
751.761	96.9
751.942	97.24
752.122	98.02
752.303	96.24
752.483	95.53
752.663	93.51
752.844	92.85
753.024	92.07
753.204	93.68
753.385	94.14
753.565	96.21
753.745	96.87
753.925	97.19
754.106	96.45
754.286	96.5
754.466	94.37
754.646	95.04
754.826	96.2
755.006	97.18
755.187	97.93
755.367	98.62
755.547	98.03
755.727	96.33
755.907	95.66
756.087	95.41
756.267	96.47
756.447	95.66
756.627	96.84
756.807	96.24
756.987	95.41
757.167	94.98
757.346	95.06
757.526	95.22
757.706	94.92
757.886	93.92
758.066	93.86
758.246	94.67
758.425	95.19
758.605	96.86
758.785	98.69
758.965	99.49
759.144	100.39
759.324	98.92
759.504	97.69
759.683	97.09
759.863	94.89
760.043	94.09
760.222	93.27
760.402	93.12
760.581	93.02
760.761	93.15
760.94	92.58
761.12	93.46
761.299	94.55
761.479	94.94
761.658	95.86
761.838	95.97
762.017	95.87
762.197	94.07
762.376	94.87
762.555	93.61
762.735	94.29
762.914	93.02
763.093	94.16
763.273	94.77
763.452	95.3
763.631	92.67
763.81	95.69
763.99	96.64
764.169	96.02
764.348	96.82
764.527	98.23
764.706	95.56
764.885	94.73
765.064	94.26
765.243	94.59
765.423	94.39
765.602	94.22
765.781	94.87
765.96	93.31
766.139	91.36
766.318	91.94
766.497	93.36
766.676	93.23
766.854	93.35
767.033	95.23
767.212	94.75
767.391	93.52
767.57	93.62
767.749	92.54
767.928	91.7
768.106	92.67
768.285	93.83
768.464	92.26
768.643	92.71
768.821	91.16
769	90.13
769.179	90.94
769.357	90.98
769.536	92.63
769.715	94.54
769.893	95.77
770.072	92.63
770.25	93.97
770.429	94.15
770.607	93.05
770.786	93.28
770.964	94.18
771.143	93.91
771.321	92.11
771.5	94.94
771.678	93.5
771.857	92.84
772.035	94.13
772.213	94.38
772.392	91.34
772.57	91.29
772.748	92.56
772.927	92.42
773.105	92.81
773.283	92
773.461	90.83
773.64	90.63
773.818	88.23
773.996	87.26
774.174	87.76
774.352	87.02
774.531	88.43
774.709	89.27
774.887	91.62
775.065	93.03
775.243	95.31
775.421	93.26
775.599	91.56
775.777	90.34
775.955	90.51
776.133	90.38
776.311	91.4
776.489	93.05
776.667	93.6
776.844	94.33
777.022	96.55
777.2	97.77
777.378	96.83
777.556	97.36
777.734	94.21
777.911	91.41
778.089	89.96
778.267	89.15
778.445	88.26
778.622	89.65
778.8	90.17
778.978	88.2
779.155	89.18
779.333	86.54
779.511	86.54
779.688	86.52
779.866	87.22
780.043	87.32
780.221	92.4
780.398	90.95
780.576	93.73
780.753	96.51
780.931	96.46
781.108	94.76
781.286	93.35
781.463	91.43
781.64	89.67
781.818	90.04
781.995	88.51
782.172	92.55
782.35	90.81
782.527	93.71
782.704	91.44
782.882	93.1
783.059	91.97
783.236	91.47
783.413	87.5
783.59	87.8
783.768	85.36
783.945	87.79
784.122	90.26
784.299	94.07
784.476	94.13
784.653	96.54
784.83	93.18
785.007	91.06
785.184	89.76
785.361	90.97
785.538	87.22
785.715	86.38
785.892	84.76
786.069	84.46
786.246	80.86
786.423	82.36
786.6	84.66
786.776	86.6
786.953	84.84
787.13	88.98
787.307	90.83
787.484	90.82
787.66	93.76
787.837	96.33
788.014	95.89
788.191	94.92
788.367	93.29
788.544	92.23
788.721	87.14
788.897	86.57
789.074	83.61
789.25	81.73
789.427	80.31
789.603	85.52
789.78	83.02
789.956	84.67
790.133	82.88
790.309	82.48
790.486	78.25
790.662	83.35
790.839	86.88
791.015	87.88
791.192	86.45
791.368	89.13
791.544	83.24
791.721	78.89
791.897	80.3
792.073	82.87
792.249	78.81
792.426	80.46
792.602	80.46
792.778	79.93
792.954	77.18
793.13	80.92
793.307	84.33
793.483	83.88
793.659	84.03
793.835	82.4
794.011	83.67
794.187	80.61
794.363	85.34
794.539	86.13
794.715	88.88
794.891	88.99
795.067	85
795.243	80.06
795.419	82.52
795.595	82.6
795.771	82.64
795.947	86.79
796.122	89.37
796.298	84.96
796.474	84.21
796.65	84.89
796.826	84.15
797.001	85.04
797.177	82.28
797.353	81.42
797.529	80.22
797.704	81.58
797.88	77.77
798.056	80.45
798.231	83.47
798.407	80.01
798.582	77.43
798.758	80.64
798.934	86.25
799.109	84.79
799.285	88.42
799.46	91.65
799.636	94.56
799.811	88.89
799.986	88.27
800.162	88.84
800.337	87.52
800.513	82.94
800.688	81.58
800.863	80.5
801.039	79.65
801.214	78.62
801.389	79.57
801.565	76.42
801.74	78.56
801.915	79.99
802.09	82.82
802.265	81.94
802.441	86.66
802.616	82.53
802.791	80.74
802.966	81.24
803.141	80.31
803.316	79.38
803.491	81.68
803.666	83.66
803.841	79.44
804.016	80.88
804.191	82.1
804.366	82.14
804.541	77.08
804.716	76.73
804.891	79.16
805.066	82.51
805.241	85.47
805.416	82.6
805.591	81.79
805.765	71.61
805.94	67.32
806.115	65.7
806.29	67.7
806.464	73.72
806.639	80.78
806.814	73.25
806.989	72.07
807.163	74.1
807.338	70.04
807.512	67.43
807.687	75.03
807.862	73.53
808.036	74.72
808.211	71.95
808.385	78.18
808.56	82.38
808.734	75.7
808.909	77.64
809.083	79.03
809.258	77.34
809.432	74.18
809.606	85.56
809.781	85.37
809.955	83.09
810.13	83.15
810.304	75.85
810.478	75.79
810.652	70.87
810.827	73.59
811.001	73.92
811.175	84.46
811.349	86.65
811.524	81.39
811.698	78.92
811.872	78.91
812.046	81.97
812.22	74.41
812.394	83.78
812.568	96.33
812.742	92.66
812.916	84.83
813.09	87.27
813.264	87.63
813.438	82.64
813.612	89.28
813.786	83.42
813.96	88.03
814.134	80.14
814.308	79
814.482	74.47
814.656	80.12
814.83	74.51
815.003	75
815.177	67.99
815.351	65.86
815.525	62.63
815.698	73.05
815.872	77.55
816.046	89.18
816.219	89.49
816.393	91.72
816.567	83.28
816.74	83.01
816.914	73.98
817.088	76.71
817.261	76.81
817.435	82.52
817.608	86.2
817.782	83.22
817.955	79.11
818.129	86.73
818.302	89.85
818.475	87.65
818.649	103.75
818.822	108.76
818.996	101.89
819.169	93.34
819.342	80.6
819.516	70.07
819.689	66.75
819.862	72.7
820.035	65.83
820.209	72.36
820.382	79.02
820.555	80.75
820.728	77.97
820.901	70.43
821.075	73.27
821.248	77.8
821.421	70.73
821.594	69.46
821.767	79.27
821.94	84.6
822.113	80.63
822.286	79.39
822.459	77.86
822.632	78.86
822.805	74.3
822.978	70.03
823.151	77.49
823.324	65.81
823.496	63.98
823.669	62.1
823.842	65.94
824.015	59.72
824.188	76.36
824.361	82.47
824.533	86.21
824.706	72.08
824.879	68.17
825.051	61.22
825.224	67.79
825.397	68.27
825.569	77.91
825.742	83.4
825.915	70.64
826.087	65.75
826.26	65.72
826.432	76.01
826.605	73.95
826.777	78.42
826.95	70.2
827.122	66.65
827.295	54.08
827.467	61.22
827.64	57.94
827.812	63.47
827.984	63.92
828.157	63.73
828.329	57.94
828.501	71.56
828.674	70.58
828.846	74.45
829.018	72.56
829.19	70.63
829.363	64.08
829.535	64.38
829.707	66.38
829.879	80.9
830.051	80.64
830.223	91.04
830.395	95.3
830.568	95.8
830.74	87.81
830.912	67.95
831.084	64.45
831.256	53.31
831.428	48.75
831.6	51.84
831.772	64.75
831.943	69.27
832.115	78.68
832.287	86.07
832.459	76.3
832.631	80.33
832.803	94.01
832.975	108.03
833.146	108.68
833.318	117.02
833.49	115.58
833.662	101.4
833.833	84.01
834.005	85.94
834.177	98.41
834.348	104.49
834.52	85.43
834.692	77.53
834.863	62.66
835.035	35.74
835.206	46.12
835.378	41.81
835.549	49.06
835.721	52.89
835.892	64.35
836.064	60.49
836.235	77.71
836.407	76.75
836.578	74.27
836.749	63.98
836.921	57.45
837.092	57.21
837.264	51.15
837.435	62.33
837.606	69.72
837.777	71.56
837.949	59.07
838.12	67.07
838.291	69.42
838.462	61.96
838.633	51.16
838.805	64.75
838.976	60.9
839.147	47.27
839.318	54.84
839.489	57.39
839.66	71.82
839.831	93.75
840.002	73.02
840.173	83.71
840.344	74.03
840.515	62.05
840.686	56.57
840.857	72.75
841.028	79.46
841.199	98.08
841.369	80.51
841.54	95.38
841.711	98.77
841.882	84.38
842.053	79.13
842.223	110.53
842.394	98.83
842.565	97.98
842.736	122.4
842.906	134.35
843.077	80.99
843.248	113.04
843.418	102.51
843.589	52.93
843.759	62.67
843.93	55.43
844.101	45.48
844.271	52.74
844.442	76.85
844.612	85.54
844.783	103.92
844.953	104.33
845.123	91.89
845.294	84.41
845.464	68.28
845.635	65.86
845.805	58.37
845.975	66.11
846.146	84.89
846.316	94.14
846.486	89.3
846.656	73.56
846.827	59.02
846.997	72.39
847.167	56.11
847.337	47.77
847.507	52.93
847.677	84.61
847.848	54.37
848.018	54.51
848.188	89.28
848.358	77.44
848.528	44.41
848.698	72.29
848.868	94.75
849.038	82.73
849.208	87.15
849.378	76.14
849.548	60.88
849.718	58.25
849.887	27.07
850.057	25.82
850.227	19.4
850.397	25.02
850.567	9.61
850.737	26.24
850.906	39.02
851.076	46.12
851.246	38.58
851.415	47.89
851.585	53.44
851.755	57.11
851.924	56.02
852.094	65.08
852.264	44.26
852.433	38.53
852.603	45.2
852.772	41.36
852.942	36.9
853.111	62.29
853.281	67.56
853.45	58.74
853.62	38.82
853.789	20.66
853.959	34.97
854.128	42.34
854.297	43.75
854.467	110.71
854.636	124.43
854.805	108.54
854.975	120.28
855.144	113.64
855.313	91.09
855.482	100.45
855.652	80.19
855.821	81.02
855.99	73.7
856.159	76.06
856.328	73.88
856.497	88.42
856.667	89.14
856.836	118
857.005	123.16
857.174	93.38
857.343	96.01
857.512	90.02
857.681	46.67
857.85	45.02
858.019	27.06
858.188	15.75
858.356	18.08
858.525	42.07
858.694	51.52
858.863	61.22
859.032	56.84
859.201	35.74
859.369	23.58
859.538	13.44
859.707	39.53
859.876	57.82
860.044	76.45
860.213	66.55
860.382	88.92
860.55	95.49
860.719	112.84
860.888	130.67
861.056	132.18
861.225	122.97
861.393	110.56
861.562	109.39
861.73	97.36
861.899	81.59
862.067	82.48
862.236	69.96
862.404	58.08
862.572	66.32
862.741	77.18
862.909	60.86
863.078	58.04
863.246	49.76
863.414	40.03
863.582	26.37
863.751	38.32
863.919	41.98
864.087	56.2
864.255	60.19
864.424	52.92
864.592	42.54
864.76	63.72
864.928	58.88
865.096	56.28
865.264	54.56
865.432	61.28
865.6	43.72
865.768	46.94
865.936	46.69
866.104	57.98
866.272	65.41
866.44	59.4
866.608	66.04
866.776	109.25
866.944	111.94
867.112	105.1
867.28	112.75
867.448	102.15
867.615	76.65
867.783	79.55
867.951	86.79
868.119	92.28
868.286	103.21
868.454	103.71
868.622	88.4
868.789	94.41
868.957	106.44
869.125	95.81
869.292	81.77
869.46	82.96
869.627	69.89
869.795	43.01
869.963	51.57
870.13	37.01
870.298	4.22
870.465	30.72
870.632	45.56
870.8	8.89
870.967	35.76
871.135	65.44
871.302	29.06
871.469	53.1
871.637	84.93
871.804	77.08
871.971	85.8
872.139	101.72
872.306	95.67
872.473	92.27
872.64	74.31
872.807	75.74
872.975	79.66
873.142	51.54
873.309	63.12
873.476	79.71
873.643	80.31
873.81	66.86
873.977	82.09
874.144	72.39
874.311	81.97
874.478	88.91
874.645	93.02
874.812	95.26
874.979	80.61
875.146	63.12
875.313	46.62
875.48	33.61
875.647	26.62
875.813	44.64
875.98	61.09
876.147	75.63
876.314	51.25
876.481	44.51
876.647	37.18
876.814	36.67
876.981	30.18
877.147	50.5
877.314	57.71
877.481	69.36
877.647	44.89
877.814	60.39
877.98	73.06
878.147	68.68
878.314	70.54
878.48	86.07
878.647	86.78
878.813	50.75
878.979	47.52
879.146	36.55
879.312	62.82
879.479	57.67
879.645	74.68
879.811	94.46
879.978	96.26
880.144	71.35
880.31	60.11
880.477	46.61
880.643	46.83
880.809	40.74
880.975	67.67
881.142	63.97
881.308	47.57
881.474	122.15
881.64	83.64
881.806	-29.93
881.972	77.11
882.138	149.29
882.304	63.75
882.47	58.67
882.636	52.64
882.802	49.57
882.968	44.71
883.134	52.73
883.3	47.48
883.466	70.9
883.632	58.14
883.798	55.1
883.964	73.41
884.129	154.55
884.295	41.8
884.461	57.19
884.627	30.28
884.793	35.81
884.958	60.31
885.124	58.9
885.29	65.34
885.455	83.46
885.621	81.73
885.787	57.85
885.952	68.75
886.118	63.2
886.283	46.56
886.449	63.5
886.614	48.05
886.78	50.12
886.945	44.92
887.111	47.89
887.276	37.76
887.442	41.35
887.607	24.82
887.773	25.76
887.938	6.23
888.103	8.17
888.269	40.06
888.434	40.04
888.599	37.99
888.764	39.21
888.93	35.19
889.095	27.29
889.26	57.55
889.425	63.22
889.59	59.53
889.756	31.39
889.921	35.77
890.086	5.6
890.251	2.28
890.416	-25.68
890.581	-12.1
890.746	26.48
890.911	21.77
891.076	43.01
891.241	68.67
891.406	93.51
891.571	72.11
891.736	65.2
891.901	55.47
892.065	53.16
892.23	53.31
892.395	49.82
892.56	8.07
892.725	25.7
892.889	54.91
893.054	56.13
893.219	55.8
893.384	84.21
893.548	79.73
893.713	76.04
893.878	71.05
