Data from Ofav_PP_Phys_9GT46_Reflection_2.txt Node
Date: Tue Jul 27 19:03:36 EDT 2021
User: USUARIO
Spectrometer: FLMT01687
Trigger mode: 0
Integration Time (sec): 8.500000E-1
Scans to average: 2
Electric dark correction enabled: true
Nonlinearity correction enabled: false
Boxcar width: 2
XAxis mode: Wavelengths
Number of Pixels in Spectrum: 3648
>>>>>Begin Spectral Data<<<<<
179.494	-564.44
179.716	-192.74
179.937	-101.31
180.158	-108.94
180.38	-90.51
180.601	-81.85
180.823	50.47
181.044	51.26
181.265	1.66
181.486	-7.41
181.708	47.62
181.929	13.39
182.15	1.22
182.372	-133.68
182.593	27.72
182.814	81.24
183.035	74.47
183.257	46
183.478	36.65
183.699	26.32
183.92	22.79
184.141	27.32
184.363	52.54
184.584	63.92
184.805	70.91
185.026	54.78
185.247	29.86
185.468	20.65
185.689	12.9
185.91	-18.65
186.132	-26.33
186.353	5.68
186.574	-16.12
186.795	-1.97
187.016	17.93
187.237	22.47
187.458	13.28
187.679	24.86
187.9	-9.75
188.121	3.19
188.342	0.14
188.563	31.68
188.784	54.3
189.005	83.93
189.226	69.26
189.447	69.47
189.667	68
189.888	78.59
190.109	67.73
190.33	80.63
190.551	54.22
190.772	52.58
190.993	18.44
191.214	25.76
191.434	21.91
191.655	38.91
191.876	25.98
192.097	29.45
192.318	37.28
192.538	58.21
192.759	55.23
192.98	55.35
193.201	63.18
193.421	64.96
193.642	29.58
193.863	25.11
194.083	20.33
194.304	1.34
194.525	-12.85
194.745	-43.2
194.966	-64.81
195.187	-57.11
195.407	-33.09
195.628	13.79
195.848	50.79
196.069	39.71
196.29	62.36
196.51	124.39
196.731	67.53
196.951	49.96
197.172	34.08
197.392	36.96
197.613	20.54
197.833	36.57
198.054	41.52
198.274	51.54
198.495	40.05
198.715	35.37
198.936	-6.39
199.156	40
199.377	35.76
199.597	39.51
199.817	30.86
200.038	81.62
200.258	44.87
200.479	67.56
200.699	70.26
200.919	55.03
201.14	54.27
201.36	36.65
201.58	17.81
201.801	-14.62
202.021	10.35
202.241	7.7
202.461	1.22
202.682	-10.64
202.902	5.71
203.122	17.66
203.342	30.89
203.563	52.52
203.783	72.12
204.003	58.74
204.223	46.55
204.443	24.36
204.663	4.82
204.884	-9.81
205.104	8.39
205.324	6.08
205.544	13.54
205.764	9.38
205.984	3.22
206.204	-11.69
206.424	-6.9
206.644	31.14
206.864	48.67
207.084	50.98
207.304	58.28
207.525	70.35
207.745	66.14
207.964	51.87
208.184	63.97
208.404	59.75
208.624	39.01
208.844	55.37
209.064	69.69
209.284	70.66
209.504	66.8
209.724	109.2
209.944	75.56
210.164	69.2
210.384	63.81
210.604	66.67
210.823	14.09
211.043	32.68
211.263	14.96
211.483	25.51
211.703	9.74
211.922	-8.17
212.142	1.17
212.362	15.35
212.582	-48.43
212.801	-13.19
213.021	-10.77
213.241	-43.41
213.461	-69.82
213.68	4.51
213.9	-17.77
214.12	3.88
214.339	27.96
214.559	36.87
214.779	29.22
214.998	20.72
215.218	8.48
215.438	27
215.657	41.01
215.877	19.88
216.096	48.87
216.316	63.34
216.535	49.61
216.755	49.21
216.974	61.3
217.194	44.07
217.413	42.02
217.633	35.76
217.852	32.2
218.072	16.74
218.291	12.86
218.511	6.19
218.73	25.57
218.95	15.68
219.169	46.18
219.389	26.93
219.608	46.38
219.827	43.99
220.047	20.55
220.266	22.69
220.485	39.04
220.705	32.33
220.924	30.67
221.143	32.28
221.363	18.43
221.582	8.69
221.801	3.65
222.021	12.83
222.24	29.2
222.459	13.97
222.678	33.92
222.897	27.84
223.117	24.93
223.336	6.08
223.555	21.42
223.774	18.14
223.993	35.97
224.213	36.27
224.432	47.32
224.651	58.65
224.87	39.7
225.089	22.1
225.308	15.03
225.527	15.59
225.746	-11.89
225.965	10.57
226.184	11.85
226.404	4.63
226.623	3.71
226.842	15.52
227.061	15.19
227.28	18.57
227.499	13.74
227.718	10.08
227.936	15.27
228.155	21.01
228.374	26.78
228.593	38.15
228.812	31.96
229.031	28.85
229.25	17.29
229.469	-11.94
229.688	-19.38
229.907	-22.05
230.125	2.27
230.344	18.67
230.563	43.96
230.782	45.83
231.001	49.76
231.22	40.06
231.438	23.12
231.657	3.27
231.876	-15.27
232.095	-3.31
232.313	13.1
232.532	11.8
232.751	22.78
232.969	35.66
233.188	47.4
233.407	32.79
233.625	41.64
233.844	41.45
234.063	47.16
234.281	34.69
234.5	21.12
234.719	47.49
234.937	41.62
235.156	32.47
235.374	22.67
235.593	38.19
235.811	17.24
236.03	16.05
236.249	22.28
236.467	32.92
236.686	20.11
236.904	15.32
237.123	22.01
237.341	23.79
237.559	18.87
237.778	25.86
237.996	22.05
238.215	23.98
238.433	19.44
238.652	19.63
238.87	25.62
239.088	34.58
239.307	37.81
239.525	38.21
239.743	23.07
239.962	20.53
240.18	23.42
240.398	23.84
240.617	26.19
240.835	44.72
241.053	51.62
241.271	36.02
241.49	38.38
241.708	36.16
241.926	19.65
242.144	9.92
242.363	32.7
242.581	27.23
242.799	13.68
243.017	10.8
243.235	12.75
243.453	-6.04
243.672	13.13
243.89	17.22
244.108	18.11
244.326	11.18
244.544	19.78
244.762	6.48
244.98	10.89
245.198	8.6
245.416	8.67
245.634	-6.02
245.852	1.47
246.07	20.11
246.288	33.47
246.506	41.75
246.724	46.24
246.942	36.01
247.16	42.75
247.378	34.37
247.596	28.57
247.814	31.4
248.032	28.93
248.25	14.5
248.468	27
248.685	32.92
248.903	46.02
249.121	42.33
249.339	23.59
249.557	26.85
249.775	4.93
249.992	-5.37
250.21	-5.24
250.428	-5.21
250.646	-20.66
250.863	6.92
251.081	11.33
251.299	29.01
251.517	49.28
251.734	80.11
251.952	56.18
252.17	39.8
252.387	16.08
252.605	23.68
252.823	3.18
253.04	28.37
253.258	35.42
253.475	25.24
253.693	23.15
253.911	37.67
254.128	29.06
254.346	33.45
254.563	43.11
254.781	46.22
254.998	43.38
255.216	42.41
255.433	29.41
255.651	53.83
255.868	47.63
256.086	29.58
256.303	13.92
256.521	34.16
256.738	21.59
256.956	18.97
257.173	34.34
257.39	45.24
257.608	41.07
257.825	43.73
258.043	46.84
258.26	41.56
258.477	39.58
258.695	33.13
258.912	30.48
259.129	21.98
259.346	16.76
259.564	12.68
259.781	28.46
259.998	17.85
260.216	25.08
260.433	24.63
260.65	46.49
260.867	34.53
261.084	45.89
261.302	48.82
261.519	43.98
261.736	20.48
261.953	25.37
262.17	17.94
262.387	21.04
262.604	18.44
262.822	19.59
263.039	26.67
263.256	28.27
263.473	41.83
263.69	47.11
263.907	17.24
264.124	-16.05
264.341	8.36
264.558	4.27
264.775	12.31
264.992	40.26
265.209	45.42
265.426	40.73
265.643	41.29
265.86	34.99
266.077	29.81
266.294	42
266.51	45.25
266.727	40.21
266.944	36.47
267.161	26.26
267.378	-3.87
267.595	10.33
267.812	19.08
268.028	39.04
268.245	49.01
268.462	51.72
268.679	16.62
268.896	15.54
269.112	-8.63
269.329	1.86
269.546	24.99
269.763	23.13
269.979	20.01
270.196	16.3
270.413	27.22
270.629	29.66
270.846	39.25
271.063	42.12
271.279	63.09
271.496	56.19
271.712	37.89
271.929	25.68
272.146	-11.55
272.362	12.86
272.579	2.77
272.795	8.3
273.012	24.99
273.228	32.4
273.445	20.09
273.661	23.8
273.878	22.91
274.094	13.75
274.311	23.58
274.527	24.26
274.744	15.48
274.96	15.55
275.177	6.52
275.393	-7.56
275.609	-7.87
275.826	-6.54
276.042	-7.54
276.259	-2.32
276.475	0.89
276.691	-1.46
276.908	5.48
277.124	19.38
277.34	37.37
277.557	39.87
277.773	49.1
277.989	39.29
278.205	30.46
278.422	16.97
278.638	16.68
278.854	24.99
279.07	23.46
279.286	21.17
279.503	20.22
279.719	36.32
279.935	39.84
280.151	46.38
280.367	46.04
280.583	50.8
280.799	43.7
281.016	32.13
281.232	36.17
281.448	44.1
281.664	34.31
281.88	26.72
282.096	19.68
282.312	7
282.528	-10.38
282.744	-22.52
282.96	-4.48
283.176	4.61
283.392	9.8
283.608	23.18
283.824	31.4
284.04	2.12
284.256	14.92
284.471	11.75
284.687	16.71
284.903	25.73
285.119	44.02
285.335	35.69
285.551	36.25
285.767	33.4
285.982	19.72
286.198	20.67
286.414	7.57
286.63	12.45
286.846	5.01
287.061	7.29
287.277	-4.32
287.493	-9.46
287.709	-12.22
287.924	-11.25
288.14	-4.27
288.356	21.56
288.571	53.72
288.787	44.7
289.003	30.62
289.218	36.42
289.434	27.08
289.65	2.24
289.865	1.93
290.081	25.18
290.296	22.19
290.512	26.63
290.727	22.02
290.943	36.16
291.159	56.45
291.374	53.9
291.59	58.72
291.805	55.33
292.021	51.35
292.236	39.4
292.451	29.55
292.667	17.16
292.882	25.57
293.098	14.75
293.313	16.3
293.529	34.08
293.744	30.9
293.959	35.59
294.175	45.36
294.39	31.51
294.605	25.76
294.821	24.61
295.036	5.32
295.251	-10.95
295.467	-7.11
295.682	-32.82
295.897	-24.42
296.112	5.32
296.328	21.39
296.543	42.88
296.758	47.09
296.973	52.95
297.188	48.89
297.404	31.19
297.619	30.49
297.834	30.5
298.049	31.26
298.264	28.93
298.479	42.29
298.694	23.31
298.909	14.2
299.125	10.95
299.34	5.75
299.555	8.84
299.77	23.3
299.985	33.95
300.2	33.89
300.415	30.27
300.63	24.85
300.845	20.54
301.06	30.41
301.275	26.45
301.49	37.72
301.704	17.68
301.919	13.42
302.134	7.79
302.349	9.92
302.564	6.95
302.779	6.07
302.994	3.34
303.209	-7.29
303.423	-12.61
303.638	-20.28
303.853	-7.26
304.068	2.59
304.283	9.97
304.497	19.98
304.712	28.94
304.927	26.42
305.142	36.79
305.356	16.78
305.571	32.2
305.786	10.32
306	31.41
306.215	17.76
306.43	43.48
306.644	36.52
306.859	47.15
307.074	39.43
307.288	41.73
307.503	37.97
307.717	35.17
307.932	30.28
308.147	35.77
308.361	43.91
308.576	37.52
308.79	29.07
309.005	15.87
309.219	11.51
309.434	-3.81
309.648	-8.08
309.863	-1.19
310.077	19.55
310.292	11.43
310.506	9.35
310.72	19.09
310.935	-8.16
311.149	-17.1
311.364	-0.14
311.578	12.15
311.792	11.48
312.007	24.19
312.221	36.91
312.435	29.98
312.649	30.51
312.864	30.58
313.078	35.46
313.292	2.45
313.507	17.17
313.721	32.81
313.935	25.79
314.149	24.72
314.363	30.41
314.578	32.26
314.792	28.15
315.006	24.58
315.22	26.15
315.434	16.46
315.648	3.17
315.862	-7.2
316.077	1.03
316.291	-0.9
316.505	13.91
316.719	26.1
316.933	38.29
317.147	26.54
317.361	37.42
317.575	34.94
317.789	24.52
318.003	15.53
318.217	28.32
318.431	31.29
318.645	29.12
318.859	38.04
319.073	33.17
319.287	19.33
319.5	4.22
319.714	13.81
319.928	10.5
320.142	14.19
320.356	43.65
320.57	56.37
320.784	48.95
320.997	49.23
321.211	50.6
321.425	41.07
321.639	22.85
321.853	19.84
322.066	22.56
322.28	-1.13
322.494	-0.57
322.707	6.85
322.921	9.23
323.135	5.7
323.349	20.31
323.562	15.91
323.776	16.53
323.989	2.18
324.203	-4.89
324.417	-13.47
324.63	17.5
324.844	14.68
325.057	23.37
325.271	49.97
325.485	60.44
325.698	43.98
325.912	46.33
326.125	40.28
326.339	30.35
326.552	22.14
326.766	16.88
326.979	20.54
327.193	24.38
327.406	24.01
327.619	12.36
327.833	16.51
328.046	16.36
328.26	12.43
328.473	-6.57
328.686	9.8
328.9	12.37
329.113	9.33
329.326	-1.52
329.54	26.28
329.753	1.99
329.966	-6.23
330.179	-13.23
330.393	21.1
330.606	8.17
330.819	29.73
331.032	9.76
331.246	29.41
331.459	10.82
331.672	21.14
331.885	11.31
332.098	41.39
332.311	24.17
332.525	28.65
332.738	15.36
332.951	23.31
333.164	2.78
333.377	5.12
333.59	12.09
333.803	21.7
334.016	10.42
334.229	19.95
334.442	32.47
334.655	31.31
334.868	33.64
335.081	49.74
335.294	52.43
335.507	44.78
335.72	44.24
335.933	36.03
336.146	12.73
336.359	13.42
336.572	13.41
336.785	13.95
336.997	14.29
337.21	15.22
337.423	7.73
337.636	-0.69
337.849	2.51
338.062	9.23
338.274	29.82
338.487	31.4
338.7	27.92
338.913	24.31
339.125	21.32
339.338	-10.03
339.551	-21.94
339.763	-22.55
339.976	-17.82
340.189	-15.21
340.402	-7.32
340.614	-5.08
340.827	6.3
341.039	-11.19
341.252	-18.58
341.465	-25.47
341.677	-27.53
341.89	-33.97
342.102	11.45
342.315	28.42
342.527	26.01
342.74	33.76
342.952	22.27
343.165	17.15
343.377	11.98
343.59	10.95
343.802	16.7
344.015	24.76
344.227	23.63
344.44	4.04
344.652	18.03
344.864	5.03
345.077	20.55
345.289	12.46
345.502	29.77
345.714	31.21
345.926	17.78
346.139	14.49
346.351	20.87
346.563	8.5
346.775	1.32
346.988	6.49
347.2	4.68
347.412	22.35
347.624	30.02
347.837	24.69
348.049	27.54
348.261	23.21
348.473	13.43
348.685	19.83
348.897	20.16
349.11	26.11
349.322	23.36
349.534	20.13
349.746	9.16
349.958	18.06
350.17	15.66
350.382	13.5
350.594	7.75
350.806	20.21
351.018	17.35
351.23	14.56
351.442	26.98
351.654	41.71
351.866	22.87
352.078	35.32
352.29	30.33
352.502	27.41
352.714	16.62
352.926	30.72
353.138	22.96
353.35	19.87
353.561	7.78
353.773	8.09
353.985	-6.96
354.197	2.03
354.409	8.54
354.621	15.04
354.832	23.53
355.044	20.24
355.256	20.07
355.468	24.11
355.679	19.06
355.891	25.42
356.103	46.04
356.314	47.85
356.526	47.33
356.738	67.28
356.949	49.55
357.161	45.85
357.373	38.44
357.584	31.81
357.796	30.11
358.008	38.91
358.219	33.18
358.431	37.15
358.642	39.54
358.854	38.84
359.065	27.26
359.277	26.64
359.488	25.9
359.7	29.95
359.911	23.58
360.123	32.8
360.334	26.28
360.546	25.99
360.757	28.77
360.969	35.81
361.18	33.87
361.391	37.08
361.603	27.96
361.814	26.93
362.025	31.42
362.237	30.27
362.448	31.64
362.659	24.41
362.871	17.97
363.082	1.65
363.293	-3.83
363.504	-24.37
363.716	-14.97
363.927	-23.87
364.138	-12.98
364.349	-0.07
364.56	6.72
364.772	11.07
364.983	9.07
365.194	11.55
365.405	3.33
365.616	3.35
365.827	13.28
366.038	12.68
366.25	14.2
366.461	16.09
366.672	19.34
366.883	21.03
367.094	27.34
367.305	18.5
367.516	26.39
367.727	36.64
367.938	26.08
368.149	13.75
368.36	12.24
368.571	-5.04
368.781	-9.21
368.992	-12.31
369.203	-7.27
369.414	-5.82
369.625	-1.69
369.836	-12.31
370.047	-3.33
370.258	-1.76
370.468	-2.8
370.679	-12.62
370.89	-0.72
371.101	-15.18
371.312	-0.76
371.522	-6.65
371.733	13.79
371.944	15.52
372.155	27.45
372.365	21.01
372.576	25.78
372.787	27.9
372.997	29.91
373.208	22.63
373.419	22.94
373.629	30.59
373.84	24.97
374.05	16.56
374.261	20.05
374.472	24.79
374.682	21.2
374.893	26.47
375.103	29.15
375.314	34.51
375.524	38.68
375.735	26.63
375.945	22.15
376.156	20.25
376.366	21.67
376.577	17.68
376.787	11.6
376.997	6.48
377.208	8.45
377.418	5.29
377.629	3.23
377.839	27.06
378.049	35.9
378.26	38.56
378.47	43.95
378.68	44.74
378.89	25.6
379.101	12.81
379.311	4.11
379.521	-7.02
379.732	-12.16
379.942	2.2
380.152	2.11
380.362	10.02
380.572	3.11
380.783	6.49
380.993	-0.05
381.203	-3.64
381.413	-10.64
381.623	-10.11
381.833	-8.21
382.043	-1.66
382.253	5.89
382.463	8.16
382.674	21.29
382.884	11.23
383.094	6.3
383.304	6.27
383.514	10.03
383.724	-4.81
383.934	5.68
384.144	-1.06
384.353	-0.87
384.563	0.04
384.773	0.97
384.983	-10.5
385.193	-4.26
385.403	-2.91
385.613	-0.75
385.823	5.52
386.033	11.95
386.242	10.63
386.452	9.7
386.662	10.95
386.872	13.62
387.082	14.31
387.291	11.55
387.501	12.14
387.711	7.72
387.921	10.13
388.13	11.58
388.34	14.4
388.55	13.6
388.759	14.54
388.969	11.48
389.179	12.94
389.388	14.53
389.598	14.26
389.807	14.88
390.017	13.14
390.227	11.8
390.436	9.32
390.646	8.51
390.855	6.75
391.065	6.45
391.274	4.2
391.484	2.98
391.693	2.61
391.903	2.44
392.112	1.9
392.322	0.76
392.531	1.13
392.74	2.44
392.95	3.85
393.159	3.77
393.369	5.63
393.578	7.44
393.787	7.14
393.997	6.54
394.206	8.71
394.415	8.16
394.625	7.09
394.834	6.49
395.043	7.11
395.252	6.32
395.462	7.06
395.671	6.66
395.88	7.68
396.089	7.38
396.298	6.4
396.508	5.69
396.717	6.49
396.926	5.53
397.135	4.93
397.344	5.78
397.553	5.88
397.762	5.62
397.971	5.8
398.181	6.06
398.39	5.81
398.599	6.02
398.808	5.74
399.017	6.04
399.226	5.58
399.435	5.77
399.644	5.55
399.853	6.01
400.062	6.1
400.27	6.31
400.479	5.94
400.688	5.96
400.897	5.71
401.106	5.75
401.315	5.94
401.524	5.97
401.733	5.94
401.941	6.04
402.15	5.82
402.359	5.53
402.568	5.51
402.777	5.51
402.985	5.31
403.194	5.48
403.403	5.86
403.612	5.96
403.82	5.8
404.029	5.8
404.238	5.74
404.446	5.54
404.655	5.49
404.864	5.63
405.072	5.73
405.281	5.6
405.489	5.5
405.698	5.48
405.906	5.53
406.115	5.29
406.324	5.17
406.532	5.19
406.741	5.26
406.949	5.09
407.158	5.11
407.366	5.09
407.574	5.13
407.783	4.95
407.991	4.96
408.2	5.03
408.408	5.07
408.617	5.09
408.825	5.07
409.033	5.08
409.242	5
409.45	4.94
409.658	4.83
409.867	4.83
410.075	4.76
410.283	4.83
410.491	4.8
410.7	4.75
410.908	4.76
411.116	4.69
411.324	4.65
411.533	4.69
411.741	4.66
411.949	4.64
412.157	4.77
412.365	4.84
412.573	4.74
412.781	4.72
412.99	4.67
413.198	4.75
413.406	4.73
413.614	4.99
413.822	5.09
414.03	5.16
414.238	5.02
414.446	5.05
414.654	5.01
414.862	4.99
415.07	4.92
415.278	5.02
415.486	4.93
415.694	4.75
415.902	4.69
416.109	4.74
416.317	4.61
416.525	4.5
416.733	4.39
416.941	4.46
417.149	4.34
417.357	4.39
417.564	4.33
417.772	4.43
417.98	4.46
418.188	4.71
418.395	4.65
418.603	4.71
418.811	4.86
419.019	4.74
419.226	4.58
419.434	4.64
419.642	4.79
419.849	4.72
420.057	4.55
420.265	4.56
420.472	4.41
420.68	4.28
420.887	4.28
421.095	4.38
421.302	4.45
421.51	4.36
421.717	4.4
421.925	4.27
422.132	4.34
422.34	4.21
422.547	4.27
422.755	4.38
422.962	4.39
423.17	4.56
423.377	4.54
423.585	4.65
423.792	4.49
423.999	4.5
424.207	4.19
424.414	4.19
424.621	4.11
424.829	4.17
425.036	4.23
425.243	4.35
425.451	4.27
425.658	4.34
425.865	4.28
426.072	4.25
426.28	4.22
426.487	4.33
426.694	4.22
426.901	4.14
427.108	4.16
427.315	4.16
427.523	4.06
427.73	4
427.937	3.87
428.144	3.85
428.351	3.83
428.558	4.01
428.765	4.13
428.972	4.35
429.179	4.36
429.386	4.37
429.593	4.1
429.8	3.92
430.007	3.82
430.214	3.78
430.421	3.89
430.628	4.12
430.835	4.49
431.042	4.53
431.249	4.5
431.456	4.42
431.662	4.53
431.869	4.37
432.076	4.42
432.283	4.47
432.49	4.31
432.697	4.21
432.903	4.31
433.11	4.49
433.317	4.46
433.524	4.49
433.73	4.42
433.937	4.32
434.144	4.12
434.35	4.12
434.557	4.16
434.764	4.17
434.97	4.17
435.177	4.1
435.384	4.08
435.59	4.07
435.797	4.07
436.003	4.17
436.21	4.18
436.416	4.15
436.623	4.11
436.829	4.02
437.036	3.9
437.242	3.93
437.449	3.87
437.655	3.94
437.862	4.04
438.068	3.94
438.275	3.96
438.481	3.92
438.687	4.06
438.894	4.07
439.1	4.13
439.307	3.97
439.513	4.06
439.719	4.04
439.926	3.85
440.132	4
440.338	4.1
440.544	4.04
440.751	3.91
440.957	4.04
441.163	3.88
441.369	3.89
441.575	3.93
441.782	4.06
441.988	3.93
442.194	3.95
442.4	4.09
442.606	4.17
442.812	4.11
443.018	4.2
443.224	4.19
443.431	3.99
443.637	3.93
443.843	3.83
444.049	3.89
444.255	3.88
444.461	3.93
444.667	3.92
444.873	3.97
445.079	3.89
445.284	3.85
445.49	3.87
445.696	3.81
445.902	3.9
446.108	3.94
446.314	3.97
446.52	4
446.726	4.13
446.931	4.09
447.137	4.13
447.343	4.12
447.549	4
447.755	3.83
447.96	3.81
448.166	3.79
448.372	3.89
448.578	3.91
448.783	4.05
448.989	4.06
449.195	4.02
449.4	4.03
449.606	4.07
449.812	3.97
450.017	4.01
450.223	3.99
450.428	3.88
450.634	3.88
450.84	3.99
451.045	4.01
451.251	4.09
451.456	4.16
451.662	4.15
451.867	4.13
452.073	4.06
452.278	3.99
452.483	4.03
452.689	4.08
452.894	4.04
453.1	4.02
453.305	4.05
453.51	4.04
453.716	3.94
453.921	4.04
454.127	4.08
454.332	4.02
454.537	4.01
454.742	3.95
454.948	3.79
455.153	3.91
455.358	3.93
455.563	3.91
455.769	4.01
455.974	3.97
456.179	3.78
456.384	3.74
456.589	3.75
456.795	3.71
457	3.77
457.205	3.78
457.41	3.78
457.615	3.7
457.82	3.64
458.025	3.61
458.23	3.66
458.435	3.67
458.64	3.65
458.845	3.83
459.05	3.77
459.255	3.77
459.46	3.8
459.665	3.81
459.87	3.74
460.075	3.93
460.28	3.97
460.485	3.98
460.69	4.02
460.895	3.99
461.099	3.89
461.304	3.82
461.509	3.81
461.714	3.87
461.919	3.9
462.123	3.92
462.328	3.92
462.533	3.85
462.738	3.76
462.942	3.75
463.147	3.71
463.352	3.7
463.556	3.83
463.761	3.85
463.966	3.81
464.17	3.91
464.375	3.99
464.58	3.91
464.784	3.88
464.989	4.02
465.193	3.93
465.398	3.9
465.602	3.97
465.807	3.94
466.011	3.8
466.216	3.8
466.42	3.85
466.625	3.73
466.829	3.71
467.034	3.86
467.238	3.9
467.443	3.86
467.647	3.92
467.851	4.02
468.056	3.94
468.26	3.95
468.464	3.93
468.669	3.92
468.873	3.87
469.077	3.82
469.282	3.81
469.486	3.85
469.69	3.78
469.894	3.85
470.099	3.84
470.303	3.84
470.507	3.76
470.711	3.93
470.915	3.9
471.119	3.96
471.324	3.88
471.528	3.92
471.732	3.84
471.936	3.82
472.14	3.81
472.344	3.9
472.548	3.88
472.752	3.86
472.956	3.9
473.16	3.95
473.364	3.96
473.568	4.1
473.772	4.17
473.976	4.1
474.18	4.03
474.384	4.02
474.588	3.9
474.792	3.86
474.995	3.85
475.199	3.91
475.403	3.89
475.607	3.94
475.811	3.94
476.015	3.98
476.218	3.98
476.422	3.95
476.626	3.9
476.83	3.94
477.033	3.95
477.237	3.93
477.441	3.99
477.644	3.99
477.848	3.94
478.052	3.91
478.255	3.97
478.459	3.97
478.663	3.99
478.866	4.02
479.07	4.13
479.273	4.11
479.477	4.09
479.681	4.19
479.884	4.16
480.088	4.07
480.291	4.11
480.495	4.08
480.698	4.01
480.901	4.06
481.105	4.07
481.308	4.06
481.512	4.06
481.715	4.02
481.919	3.96
482.122	3.95
482.325	3.93
482.529	3.89
482.732	3.86
482.935	3.88
483.138	3.92
483.342	3.91
483.545	4.04
483.748	4.09
483.952	4.11
484.155	4.04
484.358	4.1
484.561	4.08
484.764	4.04
484.967	4.12
485.171	4.23
485.374	4.15
485.577	4.17
485.78	4.25
485.983	4.21
486.186	4.15
486.389	4.22
486.592	4.19
486.795	4.26
486.998	4.27
487.201	4.31
487.404	4.34
487.607	4.37
487.81	4.3
488.013	4.32
488.216	4.37
488.419	4.38
488.622	4.4
488.825	4.39
489.028	4.51
489.231	4.51
489.433	4.53
489.636	4.66
489.839	4.79
490.042	4.79
490.245	4.87
490.447	4.94
490.65	4.97
490.853	4.93
491.056	4.97
491.258	4.97
491.461	5.05
491.664	5.01
491.866	5.21
492.069	5.29
492.272	5.36
492.474	5.45
492.677	5.57
492.879	5.53
493.082	5.49
493.285	5.61
493.487	5.65
493.69	5.68
493.892	5.77
494.095	5.97
494.297	6.02
494.5	6.11
494.702	6.23
494.905	6.33
495.107	6.4
495.309	6.49
495.512	6.52
495.714	6.61
495.917	6.72
496.119	6.84
496.321	6.92
496.524	7.05
496.726	7.2
496.928	7.27
497.13	7.39
497.333	7.51
497.535	7.62
497.737	7.65
497.939	7.76
498.142	7.74
498.344	7.82
498.546	7.86
498.748	7.96
498.95	8.02
499.152	8.11
499.355	8.15
499.557	8.25
499.759	8.3
499.961	8.38
500.163	8.45
500.365	8.49
500.567	8.58
500.769	8.64
500.971	8.66
501.173	8.73
501.375	8.86
501.577	8.87
501.779	8.92
501.981	9.01
502.183	9.04
502.385	8.98
502.587	8.9
502.788	8.88
502.99	8.81
503.192	8.77
503.394	8.78
503.596	8.87
503.798	8.93
503.999	8.98
504.201	9
504.403	9
504.605	9
504.806	8.98
505.008	8.95
505.21	8.82
505.411	8.7
505.613	8.64
505.815	8.55
506.016	8.44
506.218	8.49
506.42	8.53
506.621	8.48
506.823	8.44
507.024	8.41
507.226	8.39
507.427	8.38
507.629	8.27
507.83	8.25
508.032	8.19
508.233	8.09
508.435	7.99
508.636	8.02
508.838	7.96
509.039	7.96
509.24	7.93
509.442	7.91
509.643	7.82
509.845	7.74
510.046	7.69
510.247	7.66
510.448	7.66
510.65	7.65
510.851	7.65
511.052	7.65
511.254	7.62
511.455	7.54
511.656	7.51
511.857	7.42
512.058	7.35
512.26	7.29
512.461	7.26
512.662	7.15
512.863	7.13
513.064	7.09
513.265	7
513.466	6.96
513.667	6.98
513.868	6.97
514.069	6.93
514.27	6.87
514.471	6.83
514.672	6.83
514.873	6.86
515.074	6.85
515.275	6.9
515.476	6.81
515.677	6.72
515.878	6.56
516.079	6.58
516.28	6.53
516.481	6.51
516.682	6.54
516.882	6.53
517.083	6.43
517.284	6.46
517.485	6.39
517.686	6.34
517.886	6.32
518.087	6.32
518.288	6.24
518.488	6.29
518.689	6.29
518.89	6.31
519.091	6.36
519.291	6.31
519.492	6.34
519.692	6.3
519.893	6.27
520.094	6.11
520.294	6.1
520.495	6.08
520.695	6.09
520.896	6.09
521.096	6.11
521.297	6.13
521.497	6.05
521.698	6.04
521.898	6.01
522.099	6.03
522.299	6.01
522.499	6.02
522.7	5.96
522.9	5.99
523.101	5.97
523.301	5.97
523.501	6
523.702	6.03
523.902	6
524.102	6
524.302	6
524.503	5.96
524.703	5.95
524.903	5.92
525.103	5.87
525.304	5.82
525.504	5.81
525.704	5.77
525.904	5.81
526.104	5.76
526.304	5.78
526.504	5.75
526.705	5.77
526.905	5.73
527.105	5.76
527.305	5.77
527.505	5.78
527.705	5.79
527.905	5.72
528.105	5.76
528.305	5.74
528.505	5.69
528.705	5.7
528.905	5.73
529.105	5.73
529.304	5.7
529.504	5.74
529.704	5.71
529.904	5.74
530.104	5.71
530.304	5.69
530.503	5.71
530.703	5.71
530.903	5.72
531.103	5.74
531.303	5.79
531.502	5.78
531.702	5.77
531.902	5.71
532.101	5.69
532.301	5.69
532.501	5.67
532.7	5.72
532.9	5.78
533.1	5.75
533.299	5.77
533.499	5.8
533.698	5.73
533.898	5.69
534.097	5.77
534.297	5.76
534.496	5.73
534.696	5.77
534.895	5.77
535.095	5.71
535.294	5.68
535.494	5.73
535.693	5.75
535.892	5.74
536.092	5.82
536.291	5.81
536.491	5.81
536.69	5.8
536.889	5.81
537.088	5.76
537.288	5.77
537.487	5.76
537.686	5.8
537.886	5.86
538.085	5.83
538.284	5.86
538.483	5.88
538.682	5.85
538.882	5.8
539.081	5.85
539.28	5.85
539.479	5.84
539.678	5.87
539.877	5.87
540.076	5.86
540.275	5.84
540.474	5.85
540.673	5.82
540.872	5.88
541.071	5.91
541.27	5.94
541.469	5.94
541.668	5.93
541.867	5.9
542.066	5.94
542.265	6
542.464	6.02
542.663	6.02
542.862	6.02
543.06	6
543.259	6
543.458	6.02
543.657	6.06
543.856	6.1
544.054	6.14
544.253	6.07
544.452	6.11
544.651	6.1
544.849	6.11
545.048	6.12
545.247	6.18
545.445	6.17
545.644	6.19
545.843	6.15
546.041	6.15
546.24	6.09
546.438	6.13
546.637	6.19
546.836	6.16
547.034	6.18
547.233	6.3
547.431	6.3
547.63	6.37
547.828	6.46
548.027	6.48
548.225	6.44
548.423	6.44
548.622	6.36
548.82	6.39
549.019	6.41
549.217	6.37
549.415	6.39
549.614	6.46
549.812	6.44
550.01	6.42
550.209	6.49
550.407	6.51
550.605	6.46
550.803	6.48
551.002	6.5
551.2	6.52
551.398	6.53
551.596	6.59
551.794	6.65
551.993	6.7
552.191	6.74
552.389	6.75
552.587	6.77
552.785	6.8
552.983	6.78
553.181	6.75
553.379	6.79
553.577	6.86
553.775	6.87
553.973	6.95
554.171	6.98
554.369	7.04
554.567	7.06
554.765	7.04
554.963	7.08
555.161	7.12
555.359	7.09
555.557	7.12
555.755	7.21
555.952	7.15
556.15	7.15
556.348	7.22
556.546	7.2
556.744	7.23
556.941	7.29
557.139	7.36
557.337	7.4
557.535	7.41
557.732	7.38
557.93	7.4
558.128	7.44
558.325	7.46
558.523	7.49
558.721	7.52
558.918	7.57
559.116	7.65
559.313	7.66
559.511	7.76
559.708	7.87
559.906	7.91
560.104	7.86
560.301	7.89
560.498	7.89
560.696	7.82
560.893	7.87
561.091	7.9
561.288	7.99
561.486	7.95
561.683	8.01
561.88	7.98
562.078	7.97
562.275	7.9
562.473	7.99
562.67	8.01
562.867	8.05
563.064	8.12
563.262	8.17
563.459	8.22
563.656	8.25
563.853	8.31
564.051	8.3
564.248	8.32
564.445	8.34
564.642	8.32
564.839	8.35
565.036	8.4
565.234	8.38
565.431	8.4
565.628	8.5
565.825	8.4
566.022	8.45
566.219	8.49
566.416	8.46
566.613	8.49
566.81	8.65
567.007	8.6
567.204	8.68
567.401	8.72
567.598	8.77
567.795	8.76
567.991	8.82
568.188	8.9
568.385	8.97
568.582	8.95
568.779	9
568.976	9.11
569.172	9.12
569.369	9.1
569.566	9.16
569.763	9.06
569.96	9.14
570.156	9.18
570.353	9.26
570.55	9.27
570.746	9.39
570.943	9.37
571.14	9.39
571.336	9.44
571.533	9.45
571.729	9.55
571.926	9.59
572.123	9.71
572.319	9.8
572.516	9.93
572.712	9.95
572.909	10
573.105	10.01
573.302	10.06
573.498	10.06
573.695	10.17
573.891	10.25
574.087	10.16
574.284	10.17
574.48	10.25
574.677	10.25
574.873	10.34
575.069	10.47
575.266	10.49
575.462	10.48
575.658	10.49
575.854	10.53
576.051	10.6
576.247	10.65
576.443	10.73
576.639	10.82
576.835	10.74
577.032	10.69
577.228	10.77
577.424	10.9
577.62	10.94
577.816	11.04
578.012	11.17
578.208	11.21
578.404	11.11
578.6	11.18
578.796	11.17
578.993	11.19
579.189	11.22
579.384	11.3
579.58	11.3
579.776	11.35
579.972	11.33
580.168	11.37
580.364	11.35
580.56	11.39
580.756	11.44
580.952	11.41
581.148	11.38
581.343	11.47
581.539	11.49
581.735	11.48
581.931	11.64
582.127	11.7
582.322	11.72
582.518	11.67
582.714	11.75
582.909	11.71
583.105	11.7
583.301	11.69
583.496	11.67
583.692	11.67
583.888	11.69
584.083	11.72
584.279	11.71
584.474	11.78
584.67	11.73
584.866	11.71
585.061	11.66
585.257	11.71
585.452	11.73
585.648	11.78
585.843	11.79
586.039	11.86
586.234	11.86
586.429	11.9
586.625	11.9
586.82	11.94
587.015	11.95
587.211	11.93
587.406	11.99
587.601	11.97
587.797	11.96
587.992	12.01
588.187	12.04
588.383	11.93
588.578	11.91
588.773	11.96
588.968	11.99
589.163	12.04
589.359	12.11
589.554	12.22
589.749	12.23
589.944	12.23
590.139	12.3
590.334	12.3
590.529	12.39
590.724	12.45
590.919	12.49
591.114	12.44
591.309	12.51
591.504	12.47
591.699	12.47
591.894	12.39
592.089	12.42
592.284	12.48
592.479	12.43
592.674	12.46
592.869	12.5
593.064	12.6
593.259	12.66
593.454	12.77
593.648	12.76
593.843	12.86
594.038	12.9
594.233	12.92
594.428	13.03
594.622	13.16
594.817	13.1
595.012	13.06
595.206	13
595.401	13.07
595.596	13.11
595.79	13.25
595.985	13.37
596.18	13.46
596.374	13.47
596.569	13.47
596.763	13.55
596.958	13.63
597.153	13.62
597.347	13.62
597.542	13.65
597.736	13.6
597.931	13.54
598.125	13.75
598.319	13.77
598.514	13.81
598.708	13.91
598.903	14.01
599.097	14.02
599.291	14.05
599.486	14.05
599.68	14.1
599.874	14.09
600.069	14.07
600.263	14.13
600.457	14.21
600.651	14.26
600.846	14.32
601.04	14.28
601.234	14.3
601.428	14.3
601.622	14.28
601.817	14.22
602.011	14.3
602.205	14.23
602.399	14.28
602.593	14.31
602.787	14.34
602.981	14.34
603.175	14.44
603.369	14.39
603.563	14.4
603.757	14.38
603.951	14.34
604.145	14.24
604.339	14.23
604.533	14.11
604.727	14.1
604.921	14.13
605.115	14.18
605.309	14.1
605.502	14.15
605.696	14.11
605.89	14.02
606.084	13.94
606.278	13.92
606.471	13.86
606.665	13.85
606.859	13.84
607.053	13.84
607.246	13.81
607.44	13.78
607.634	13.71
607.827	13.58
608.021	13.5
608.214	13.42
608.408	13.36
608.602	13.34
608.795	13.31
608.989	13.26
609.182	13.29
609.376	13.23
609.569	13.14
609.763	13.1
609.956	13.03
610.15	12.97
610.343	12.93
610.537	12.86
610.73	12.78
610.923	12.81
611.117	12.72
611.31	12.65
611.504	12.67
611.697	12.73
611.89	12.57
612.083	12.47
612.277	12.37
612.47	12.3
612.663	12.14
612.856	11.98
613.05	11.93
613.243	11.88
613.436	11.72
613.629	11.66
613.822	11.7
614.015	11.66
614.209	11.59
614.402	11.59
614.595	11.54
614.788	11.53
614.981	11.5
615.174	11.47
615.367	11.43
615.56	11.38
615.753	11.24
615.946	11.21
616.139	11.18
616.332	11.12
616.525	11.06
616.718	11.08
616.911	11.02
617.103	10.99
617.296	10.93
617.489	10.98
617.682	10.93
617.875	10.85
618.067	10.75
618.26	10.72
618.453	10.61
618.646	10.59
618.838	10.56
619.031	10.57
619.224	10.56
619.417	10.63
619.609	10.62
619.802	10.62
619.994	10.54
620.187	10.5
620.38	10.37
620.572	10.28
620.765	10.22
620.957	10.27
621.15	10.22
621.342	10.19
621.535	10.2
621.727	10.16
621.92	10.09
622.112	10.13
622.305	10.12
622.497	10.07
622.69	10.01
622.882	10.04
623.074	9.99
623.267	9.95
623.459	9.91
623.651	9.89
623.844	9.89
624.036	9.85
624.228	9.86
624.42	9.9
624.613	9.94
624.805	9.95
624.997	9.93
625.189	9.84
625.381	9.84
625.574	9.8
625.766	9.7
625.958	9.66
626.15	9.71
626.342	9.63
626.534	9.66
626.726	9.67
626.918	9.7
627.11	9.71
627.302	9.75
627.494	9.7
627.686	9.69
627.878	9.68
628.07	9.66
628.262	9.61
628.454	9.56
628.646	9.51
628.838	9.55
629.029	9.52
629.221	9.49
629.413	9.5
629.605	9.53
629.797	9.53
629.989	9.57
630.18	9.51
630.372	9.5
630.564	9.45
630.755	9.37
630.947	9.33
631.139	9.3
631.33	9.33
631.522	9.3
631.714	9.26
631.905	9.18
632.097	9.19
632.289	9.09
632.48	9.05
632.672	8.99
632.863	9.07
633.055	9.03
633.246	9.08
633.438	9.16
633.629	9.19
633.821	9.02
634.012	9.09
634.203	9.07
634.395	9.08
634.586	9.15
634.777	9.19
634.969	9.26
635.16	9.27
635.351	9.17
635.543	9.12
635.734	9.18
635.925	9.11
636.117	9.11
636.308	9.09
636.499	9
636.69	8.92
636.881	8.93
637.073	8.96
637.264	9.11
637.455	9.19
637.646	9.26
637.837	9.2
638.028	9.06
638.219	9.01
638.41	9.01
638.601	8.95
638.792	8.99
638.983	9.09
639.174	9.06
639.365	9.07
639.556	9.1
639.747	9.16
639.938	9.23
640.129	9.29
640.32	9.34
640.511	9.42
640.701	9.35
640.892	9.31
641.083	9.22
641.274	9.14
641.465	9.07
641.655	9.13
641.846	9.07
642.037	9.08
642.228	9.07
642.418	9.03
642.609	9.05
642.8	9.04
642.99	9.04
643.181	9.01
643.372	9.07
643.562	8.93
643.753	8.93
643.943	8.94
644.134	8.96
644.324	8.89
644.515	8.95
644.705	8.95
644.896	8.9
645.086	8.86
645.277	8.87
645.467	8.8
645.658	8.73
645.848	8.78
646.038	8.79
646.229	8.79
646.419	8.82
646.61	8.87
646.8	8.82
646.99	8.88
647.18	8.84
647.371	8.83
647.561	8.79
647.751	8.83
647.941	8.75
648.132	8.82
648.322	8.74
648.512	8.74
648.702	8.69
648.892	8.61
649.082	8.58
649.272	8.62
649.462	8.63
649.653	8.54
649.843	8.55
650.033	8.48
650.223	8.44
650.413	8.37
650.603	8.44
650.793	8.44
650.983	8.42
651.172	8.41
651.362	8.39
651.552	8.33
651.742	8.31
651.932	8.32
652.122	8.35
652.312	8.34
652.502	8.26
652.691	8.19
652.881	8.18
653.071	8.05
653.261	8.05
653.45	8
653.64	8.07
653.83	7.92
654.019	7.84
654.209	7.75
654.399	7.71
654.588	7.5
654.778	7.47
654.968	7.39
655.157	7.26
655.347	7.2
655.536	7.16
655.726	6.99
655.915	6.99
656.105	6.94
656.294	6.9
656.484	6.78
656.673	6.79
656.863	6.73
657.052	6.67
657.241	6.54
657.431	6.52
657.62	6.41
657.809	6.21
657.999	6.13
658.188	6.09
658.377	6.03
658.567	5.97
658.756	5.93
658.945	5.9
659.134	5.74
659.324	5.67
659.513	5.6
659.702	5.57
659.891	5.36
660.08	5.21
660.269	5.1
660.458	5.09
660.648	5.06
660.837	5.12
661.026	5.27
661.215	5.2
661.404	5.04
661.593	4.87
661.782	4.74
661.971	4.61
662.16	4.53
662.349	4.54
662.538	4.54
662.726	4.5
662.915	4.43
663.104	4.46
663.293	4.34
663.482	4.31
663.671	4.26
663.86	4.22
664.048	4.16
664.237	4.2
664.426	4.14
664.615	4.13
664.803	4.07
664.992	4.01
665.181	4.02
665.369	3.98
665.558	3.96
665.747	4.05
665.935	4.09
666.124	4.14
666.312	4.15
666.501	4.12
666.69	4.02
666.878	4.03
667.067	3.95
667.255	3.97
667.444	4.04
667.632	4.16
667.82	4.15
668.009	4.19
668.197	4.17
668.386	4.19
668.574	4.16
668.762	4.09
668.951	4.09
669.139	4.19
669.327	4.15
669.516	4.28
669.704	4.34
669.892	4.41
670.08	4.42
670.269	4.45
670.457	4.33
670.645	4.31
670.833	4.26
671.021	4.31
671.21	4.22
671.398	4.28
671.586	4.35
671.774	4.41
671.962	4.35
672.15	4.57
672.338	4.63
672.526	4.74
672.714	4.77
672.902	4.86
673.09	4.88
673.278	4.85
673.466	4.85
673.654	4.98
673.842	5.09
674.03	5.08
674.218	5.24
674.405	5.33
674.593	5.3
674.781	5.28
674.969	5.24
675.157	5.06
675.344	4.99
675.532	5
675.72	5
675.908	5.05
676.095	5.17
676.283	5.33
676.471	5.4
676.658	5.44
676.846	5.45
677.033	5.61
677.221	5.65
677.409	5.64
677.596	5.79
677.784	5.92
677.971	5.9
678.159	5.86
678.346	5.91
678.534	5.86
678.721	5.96
678.909	6.11
679.096	6.16
679.283	6.28
679.471	6.31
679.658	6.27
679.846	6.26
680.033	6.35
680.22	6.32
680.408	6.35
680.595	6.44
680.782	6.43
680.969	6.38
681.157	6.45
681.344	6.43
681.531	6.54
681.718	6.63
681.905	6.67
682.093	6.75
682.28	6.87
682.467	6.95
682.654	6.97
682.841	7.08
683.028	7.04
683.215	7.09
683.402	6.93
683.589	7.05
683.776	7.16
683.963	7.17
684.15	7.22
684.337	7.42
684.524	7.51
684.711	7.58
684.898	7.69
685.085	7.74
685.271	8.03
685.458	7.89
685.645	7.88
685.832	8
686.019	8.2
686.205	8.09
686.392	8.39
686.579	8.56
686.766	8.73
686.952	8.86
687.139	8.87
687.326	8.92
687.512	8.95
687.699	8.88
687.886	9.03
688.072	9.16
688.259	9.31
688.445	9.49
688.632	9.88
688.818	9.9
689.005	10.08
689.191	10.31
689.378	10.52
689.564	10.64
689.751	11.12
689.937	11.48
690.124	11.71
690.31	12.06
690.496	12.49
690.683	12.51
690.869	12.75
691.055	12.93
691.242	13.08
691.428	13.34
691.614	13.7
691.8	14.02
691.987	14.67
692.173	15.11
692.359	15.34
692.545	15.68
692.731	16.05
692.918	16.33
693.104	16.73
693.29	17.15
693.476	17.61
693.662	18.16
693.848	18.66
694.034	19.02
694.22	19.44
694.406	19.8
694.592	19.94
694.778	20.29
694.964	20.74
695.15	21.13
695.336	21.73
695.522	22.59
695.708	23.03
695.894	23.69
696.08	24.2
696.265	24.81
696.451	25.23
696.637	25.64
696.823	26.14
697.009	26.85
697.194	27.33
697.38	27.93
697.566	28.72
697.751	29.51
697.937	30.06
698.123	30.67
698.308	31.15
698.494	31.67
698.68	32.01
698.865	32.72
699.051	33.03
699.236	33.54
699.422	34.31
699.607	35.26
699.793	35.82
699.978	36.68
700.164	37.46
700.349	37.73
700.535	37.97
700.72	38.49
700.906	39
701.091	39.63
701.276	40.42
701.462	41.01
701.647	41.61
701.832	42.52
702.018	43.19
702.203	43.82
702.388	44.6
702.573	45.22
702.759	45.59
702.944	45.99
703.129	46.81
703.314	47.25
703.499	47.7
703.684	48.5
703.87	49.28
704.055	49.65
704.24	50.15
704.425	50.59
704.61	50.77
704.795	50.95
704.98	51.35
705.165	51.95
705.35	52.74
705.535	53.8
705.72	54.46
705.905	55.28
706.09	56.06
706.275	56.71
706.459	57.08
706.644	57.49
706.829	57.95
707.014	58.79
707.199	58.9
707.384	59.53
707.568	60.45
707.753	60.77
707.938	60.48
708.123	61.15
708.307	61.37
708.492	61.91
708.677	62.33
708.861	63.65
709.046	64.25
709.231	64.59
709.415	64.63
709.6	64.98
709.784	64.86
709.969	64.84
710.153	65.02
710.338	65.45
710.522	66.01
710.707	66.17
710.891	67.04
711.076	67.41
711.26	67.91
711.445	68.15
711.629	68.47
711.813	68.88
711.998	69.49
712.182	69.72
712.366	70.39
712.551	70.5
712.735	70.33
712.919	70.59
713.103	70.35
713.288	70.03
713.472	70.52
713.656	71
713.84	71.18
714.024	71.83
714.208	72.28
714.393	73.09
714.577	73.31
714.761	73.91
714.945	74.14
715.129	74.63
715.313	74.41
715.497	74.5
715.681	74.91
715.865	75.49
716.049	75.55
716.233	76.14
716.417	76.75
716.601	76.72
716.785	76.66
716.968	76.8
717.152	77.03
717.336	77.47
717.52	77.6
717.704	77.9
717.888	78.72
718.071	78.87
718.255	79.33
718.439	79.41
718.622	79.35
718.806	79.19
718.99	79.82
719.174	79.18
719.357	79.79
719.541	80.54
719.724	80.55
719.908	80.08
720.092	80.54
720.275	80.43
720.459	80.38
720.642	80.63
720.826	81.36
721.009	81.37
721.193	82.08
721.376	82.55
721.559	82.99
721.743	82.51
721.926	83.09
722.11	82.87
722.293	82.8
722.476	83.14
722.66	84.11
722.843	84.19
723.026	84.57
723.21	85.11
723.393	84.42
723.576	83.98
723.759	83.76
723.942	83.39
724.126	83.24
724.309	84.21
724.492	84.2
724.675	84.98
724.858	85.62
725.041	86.16
725.224	86.41
725.407	86.85
725.59	86.82
725.774	87.25
725.957	87.73
726.14	87.87
726.322	88.03
726.505	88.29
726.688	87.78
726.871	87.04
727.054	87.56
727.237	87.72
727.42	87.6
727.603	88.4
727.786	88.7
727.968	88.36
728.151	87.91
728.334	87.86
728.517	87.6
728.699	87.77
728.882	87.78
729.065	87.88
729.248	88.35
729.43	88.09
729.613	88.5
729.796	88.36
729.978	89.37
730.161	89.28
730.343	89.02
730.526	89.73
730.708	89.7
730.891	89.98
731.073	90.19
731.256	91.41
731.438	90.66
731.621	91.58
731.803	91.29
731.986	91.38
732.168	90.66
732.35	91.06
732.533	90.35
732.715	90.62
732.898	90.78
733.08	91.63
733.262	91.75
733.444	92.01
733.627	92.1
733.809	91.82
733.991	91.68
734.173	91.67
734.355	92.04
734.538	92.1
734.72	93.44
734.902	94.38
735.084	94.32
735.266	94.08
735.448	93.73
735.63	92.59
735.812	91.99
735.994	91.24
736.176	91.73
736.358	93.1
736.54	93.01
736.722	93.57
736.904	95.09
737.086	94.85
737.268	93.85
737.45	94.45
737.632	94.11
737.814	93.48
737.995	93.95
738.177	94.09
738.359	94.04
738.541	93.56
738.723	94.28
738.904	94.07
739.086	94.93
739.268	95.83
739.449	96.08
739.631	95.24
739.813	95.18
739.994	94.89
740.176	94.25
740.358	95.09
740.539	95.99
740.721	96.18
740.902	95.71
741.084	96
741.265	94.85
741.447	94.49
741.628	94.35
741.81	94.06
741.991	93.63
742.172	95.28
742.354	95.2
742.535	95.38
742.717	95.41
742.898	96.33
743.079	95.58
743.261	95.12
743.442	95.11
743.623	95.08
743.804	94.06
743.986	94.56
744.167	95.25
744.348	95.21
744.529	95.49
744.71	95.56
744.891	95.96
745.073	96.65
745.254	98.2
745.435	98.53
745.616	97.66
745.797	95.33
745.978	93.37
746.159	93.06
746.34	93.09
746.521	93.96
746.702	94.78
746.883	96.39
747.064	95.14
747.245	95.38
747.426	94.78
747.606	94.15
747.787	93.83
747.968	93.4
748.149	93.14
748.33	93.81
748.51	95.79
748.691	95.05
748.872	95.22
749.053	95.26
749.233	95.96
749.414	94.68
749.595	95.55
749.775	96.44
749.956	96.84
750.137	96.46
750.317	96.16
750.498	96.75
750.678	98.12
750.859	96.6
751.04	96.95
751.22	96.55
751.4	96.19
751.581	94.26
751.761	95.4
751.942	94.85
752.122	96.42
752.303	96.22
752.483	96.31
752.663	96.12
752.844	95.66
753.024	93.74
753.204	93.49
753.385	93.33
753.565	94.23
753.745	95.58
753.925	96.14
754.106	96.14
754.286	96.87
754.466	96.22
754.646	95.81
754.826	96.66
755.006	98.7
755.187	99.03
755.367	98.55
755.547	98.37
755.727	97.4
755.907	94.81
756.087	94.1
756.267	94.27
756.447	94.66
756.627	95.02
756.807	95.59
756.987	94.17
757.167	93.9
757.346	93.86
757.526	93.25
757.706	92.48
757.886	93.53
758.066	94.12
758.246	93.3
758.425	94.95
758.605	95.51
758.785	96.79
758.965	97.77
759.144	100.08
759.324	99.1
759.504	99.8
759.683	98.32
759.863	96.78
760.043	94.48
760.222	93.29
760.402	92.46
760.581	93.76
760.761	91.8
760.94	91.58
761.12	93.79
761.299	93.28
761.479	92.06
761.658	93.28
761.838	94.23
762.017	93.67
762.197	93.17
762.376	93.05
762.555	93.06
762.735	92.02
762.914	90.44
763.093	91.33
763.273	91.22
763.452	91.11
763.631	90.63
763.81	91.18
763.99	91.87
764.169	93.96
764.348	95.62
764.527	96.62
764.706	95.56
764.885	93.94
765.064	92.94
765.243	91.57
765.423	92.34
765.602	93.08
765.781	95.35
765.96	94.17
766.139	93.08
766.318	91.4
766.497	92.37
766.676	91.23
766.854	91.68
767.033	93.3
767.212	93.61
767.391	92.24
767.57	93.22
767.749	91.11
767.928	89.81
768.106	92.62
768.285	91.95
768.464	90.14
768.643	93.62
768.821	95.3
769	93.67
769.179	95.8
769.357	94.06
769.536	91.11
769.715	90.56
769.893	90.59
770.072	89.06
770.25	91.8
770.429	93.35
770.607	93.02
770.786	92.23
770.964	93.19
771.143	91.29
771.321	89.1
771.5	90.8
771.678	90.66
771.857	89.73
772.035	92.57
772.213	94.94
772.392	91.42
772.57	91.83
772.748	91.69
772.927	91.18
773.105	91.06
773.283	92
773.461	91.65
773.64	92.1
773.818	91.46
773.996	90.03
774.174	91.27
774.352	89.73
774.531	90.18
774.709	90.94
774.887	94
775.065	92.64
775.243	91.46
775.421	91.03
775.599	88.57
775.777	85.44
775.955	84.82
776.133	89.08
776.311	89.46
776.489	90.92
776.667	93.89
776.844	96.05
777.022	94.21
777.2	95.09
777.378	94.37
777.556	93.16
777.734	89.99
777.911	89.8
778.089	89.4
778.267	88.09
778.445	86.23
778.622	88.11
778.8	89.91
778.978	89.75
779.155	90.91
779.333	88.96
779.511	87.2
779.688	83.28
779.866	81.19
780.043	82.47
780.221	84.33
780.398	85.01
780.576	88.03
780.753	91.4
780.931	91.03
781.108	91.02
781.286	90.55
781.463	88.74
781.64	87.1
781.818	85.85
781.995	86.27
782.172	87.23
782.35	88.57
782.527	89.39
782.704	90.27
782.882	89.94
783.059	89.52
783.236	87.36
783.413	87.06
783.59	83.48
783.768	83.21
783.945	84.56
784.122	85.68
784.299	85.28
784.476	87.63
784.653	89.4
784.83	88.06
785.007	88.72
785.184	87.18
785.361	86.76
785.538	84.52
785.715	82
785.892	80
786.069	81.7
786.246	82.14
786.423	83.76
786.6	89.31
786.776	90.84
786.953	88.52
787.13	87.99
787.307	86.61
787.484	86.07
787.66	88.41
787.837	91.23
788.014	94.37
788.191	94.78
788.367	93.09
788.544	92.54
788.721	85.97
788.897	81.71
789.074	81.24
789.25	79.68
789.427	75.26
789.603	77.72
789.78	77.82
789.956	75.56
790.133	74.13
790.309	78.79
790.486	78.24
790.662	83.67
790.839	87.12
791.015	87.81
791.192	85.16
791.368	91.05
791.544	83.49
791.721	81.15
791.897	80.9
792.073	80.05
792.249	75.28
792.426	79
792.602	80.91
792.778	82.32
792.954	83.44
793.13	85.71
793.307	84.53
793.483	81.66
793.659	86.37
793.835	84.16
794.011	86.48
794.187	85.98
794.363	88.87
794.539	80.69
794.715	84.72
794.891	82.05
795.067	81.17
795.243	79.72
795.419	84.1
795.595	81.8
795.771	85.36
795.947	86.27
796.122	86.89
796.298	84.95
796.474	85.43
796.65	83.12
796.826	84.51
797.001	86.43
797.177	83.08
797.353	75.87
797.529	73.22
797.704	74.29
797.88	74.04
798.056	78.22
798.231	94.21
798.407	95.07
798.582	93.1
798.758	91.1
798.934	91.4
799.109	81.33
799.285	80.64
799.46	82.68
799.636	83.43
799.811	80.74
799.986	78.28
800.162	82.11
800.337	79.08
800.513	78.67
800.688	76.95
800.863	81.15
801.039	82.76
801.214	85.22
801.389	83.35
801.565	85.68
801.74	89.53
801.915	86.6
802.09	87.57
802.265	91.78
802.441	93.45
802.616	82.27
802.791	77.32
802.966	77.69
803.141	75.79
803.316	69.92
803.491	78.17
803.666	77.05
803.841	75.89
804.016	71.27
804.191	75.98
804.366	81.76
804.541	83.87
804.716	82.4
804.891	88.34
805.066	99.35
805.241	88.54
805.416	82.91
805.591	76.2
805.765	72.18
805.94	59.84
806.115	57.1
806.29	62.88
806.464	72.82
806.639	72.71
806.814	76.07
806.989	81.68
807.163	75.92
807.338	66.87
807.512	68.31
807.687	70.63
807.862	67.51
808.036	73.27
808.211	76.64
808.385	80.28
808.56	74.44
808.734	75.82
808.909	77.22
809.083	77.5
809.258	75.29
809.432	79.89
809.606	76.58
809.781	70.09
809.955	76.54
810.13	77.14
810.304	75.21
810.478	75.36
810.652	78.43
810.827	73.71
811.001	74.05
811.175	78.21
811.349	80.9
811.524	74.06
811.698	73.31
811.872	76.59
812.046	77.99
812.22	72.33
812.394	74.49
812.568	75.57
812.742	70.03
812.916	73.18
813.09	78.91
813.264	83.88
813.438	86.85
813.612	87.21
813.786	76.98
813.96	81.87
814.134	80.2
814.308	77.33
814.482	78.04
814.656	85.02
814.83	77.29
815.003	78.74
815.177	72.07
815.351	74.18
815.525	66.8
815.698	70.58
815.872	80.41
816.046	90.27
816.219	85.23
816.393	92.7
816.567	95.05
816.74	83.36
816.914	73.79
817.088	68.79
817.261	63.58
817.435	66.56
817.608	67.3
817.782	69.81
817.955	82.2
818.129	100.49
818.302	88.08
818.475	81.75
818.649	77.45
818.822	69.14
818.996	57.71
819.169	71.63
819.342	73.36
819.516	71.02
819.689	72.06
819.862	76.33
820.035	62.55
820.209	67.9
820.382	80.55
820.555	85.21
820.728	86.36
820.901	78.43
821.075	75.07
821.248	80.31
821.421	77.18
821.594	66.63
821.767	85.68
821.94	91.05
822.113	80.91
822.286	83.56
822.459	87.69
822.632	85.66
822.805	85.7
822.978	78.99
823.151	73.53
823.324	73.88
823.496	80.73
823.669	79.31
823.842	74.62
824.015	82.97
824.188	79.42
824.361	70.39
824.533	69.02
824.706	75.94
824.879	68.02
825.051	71.86
825.224	73.69
825.397	58.79
825.569	65.36
825.742	62.02
825.915	60.91
826.087	57.41
826.26	78.98
826.432	87.13
826.605	80.37
826.777	75.99
826.95	64.84
827.122	53.75
827.295	28.36
827.467	40.47
827.64	31.33
827.812	38.52
827.984	46.33
828.157	63.34
828.329	55.3
828.501	74.87
828.674	82.11
828.846	76.85
829.018	77.2
829.19	78.43
829.363	69.95
829.535	63.2
829.707	68.71
829.879	71.37
830.051	64.92
830.223	54.19
830.395	49.8
830.568	43.66
830.74	52.57
830.912	51.8
831.084	66.17
831.256	56.99
831.428	60.07
831.6	63.81
831.772	77.21
831.943	69.93
832.115	76.39
832.287	85.36
832.459	75.99
832.631	65.03
832.803	72.3
832.975	89.38
833.146	82.3
833.318	90.67
833.49	89.42
833.662	100.62
833.833	72.53
834.005	64.11
834.177	53.41
834.348	81.82
834.52	64.15
834.692	74.58
834.863	85.74
835.035	88.82
835.206	73.07
835.378	65.39
835.549	62.66
835.721	52.74
835.892	53.8
836.064	46.12
836.235	64.13
836.407	68.48
836.578	67.39
836.749	63.39
836.921	63.24
837.092	58.72
837.264	63.57
837.435	70.98
837.606	70.08
837.777	78.91
837.949	70.33
838.12	65.44
838.291	76.46
838.462	97.58
838.633	124.84
838.805	116.95
838.976	109.98
839.147	104.17
839.318	86.28
839.489	65.96
839.66	78.98
839.831	84.87
840.002	50.89
840.173	69.93
840.344	106.93
840.515	104.15
840.686	104.42
840.857	103.76
841.028	94.33
841.199	87.69
841.369	87.77
841.54	101.85
841.711	112.33
841.882	100.48
842.053	81.95
842.223	98.91
842.394	94.95
842.565	95.33
842.736	111.51
842.906	200
843.077	141.42
843.248	131.64
843.418	119.73
843.589	82.7
843.759	62.3
843.93	47.59
844.101	46.39
844.271	38.15
844.442	33.24
844.612	41.91
844.783	40.46
844.953	28.36
845.123	22.56
845.294	18.06
845.464	28.72
845.635	44.75
845.805	60.24
845.975	75.4
846.146	105.14
846.316	101.25
846.486	124.27
846.656	95.52
846.827	89.29
846.997	85.06
847.167	61.73
847.337	43.66
847.507	65.53
847.677	59.34
847.848	64.25
848.018	94.62
848.188	81.9
848.358	84.79
848.528	93.49
848.698	115.24
848.868	97.66
849.038	115.38
849.208	70.77
849.378	54.68
849.548	26.11
849.718	41.73
849.887	33.23
850.057	48.84
850.227	74.51
850.397	68.94
850.567	50.88
850.737	66.45
850.906	38.81
851.076	24.86
851.246	40.28
851.415	42.34
851.585	46.08
851.755	69.5
851.924	84.03
852.094	81.81
852.264	74.52
852.433	65.36
852.603	68.35
852.772	50.07
852.942	36.22
853.111	59.95
853.281	63.04
853.45	42.91
853.62	23.93
853.789	14.08
853.959	8.33
854.128	40.05
854.297	48.35
854.467	105.16
854.636	129.7
854.805	98.27
854.975	78.16
855.144	56.16
855.313	51.87
855.482	59.69
855.652	63.79
855.821	56.23
855.99	50.36
856.159	49.57
856.328	43.41
856.497	40.53
856.667	58.92
856.836	123.43
857.005	121.11
857.174	89.04
857.343	93.44
857.512	87.92
857.681	18.88
857.85	61.45
858.019	35.92
858.188	23.26
858.356	18.73
858.525	25.63
858.694	25.8
858.863	40.14
859.032	49.47
859.201	46.03
859.369	51.68
859.538	31.25
859.707	31.16
859.876	31.08
860.044	48.97
860.213	49.38
860.382	60.75
860.55	80.59
860.719	88.95
860.888	109.54
861.056	94.23
861.225	90.86
861.393	96.17
861.562	92.85
861.73	73.92
861.899	68.37
862.067	76.28
862.236	57.41
862.404	55.62
862.572	54.82
862.741	62.49
862.909	42.98
863.078	46.73
863.246	51.72
863.414	47.55
863.582	69.67
863.751	70.46
863.919	59.81
864.087	78.42
864.255	80.31
864.424	50.26
864.592	62.27
864.76	86.23
864.928	75.17
865.096	58.24
865.264	60.79
865.432	56.26
865.6	40.09
865.768	39.07
865.936	61.95
866.104	57.12
866.272	44.37
866.44	53.94
866.608	48.8
866.776	27.45
866.944	67.84
867.112	86.89
867.28	80.42
867.448	82.98
867.615	77.28
867.783	81.33
867.951	54.76
868.119	72.62
868.286	72.15
868.454	70.42
868.622	61.56
868.789	89.1
868.957	88.13
869.125	75.23
869.292	71.09
869.46	67.82
869.627	68.17
869.795	56.97
869.963	79.8
870.13	71.73
870.298	65.86
870.465	63.24
870.632	62.12
870.8	25.12
870.967	60.55
871.135	61.53
871.302	31.24
871.469	67.29
871.637	117.9
871.804	98.59
871.971	116.81
872.139	127.2
872.306	94.15
872.473	92.01
872.64	97.31
872.807	79.8
872.975	60.74
873.142	55.38
873.309	30.5
873.476	27.95
873.643	19.67
873.81	39.05
873.977	41.82
874.144	48.27
874.311	34.2
874.478	42.99
874.645	40.42
874.812	48.01
874.979	16.38
875.146	21.12
875.313	3.26
875.48	7.74
875.647	32.54
875.813	71.69
875.98	75.13
876.147	75.94
876.314	41.92
876.481	13.47
876.647	16.04
876.814	28.18
876.981	37.18
877.147	47.84
877.314	45.35
877.481	35.63
877.647	9.12
877.814	6.5
877.98	-12.91
878.147	-67.89
878.314	-90.99
878.48	-9.44
878.647	13.64
878.813	21.41
878.979	64.28
879.146	67.96
879.312	56.47
879.479	30.82
879.645	75.03
879.811	12.1
879.978	10.32
880.144	35.81
880.31	13.22
880.477	11.85
880.643	46.58
880.809	32.59
880.975	18.66
881.142	0.32
881.308	-6.91
881.474	-53.06
881.64	80.31
881.806	13.88
881.972	99.42
882.138	103.07
882.304	63.69
882.47	0.82
882.636	4.32
882.802	11.04
882.968	10.7
883.134	4.13
883.3	45.69
883.466	33.61
883.632	37.86
883.798	40.44
883.964	56.18
884.129	25.83
884.295	110.3
884.461	84.83
884.627	77.01
884.793	90.09
884.958	71.74
885.124	61.9
885.29	46.74
885.455	50.18
885.621	32.32
885.787	38.94
885.952	41.5
886.118	41.17
886.283	41.04
886.449	39.5
886.614	27.13
886.78	55.74
886.945	70.31
887.111	60.84
887.276	65.56
887.442	86.53
887.607	81.83
887.773	52.19
887.938	41.08
888.103	1.62
888.269	34.57
888.434	36.6
888.599	33.73
888.764	24.77
888.93	50.22
889.095	34.02
889.26	39.17
889.425	73.33
889.59	76
889.756	50.33
889.921	27.03
890.086	30.76
890.251	19.78
890.416	35.83
890.581	51.01
890.746	73.49
890.911	79.51
891.076	94.42
891.241	59.85
891.406	72.97
891.571	42.46
891.736	3.43
891.901	-16.54
892.065	45.7
892.23	52.86
892.395	92.23
892.56	116.82
892.725	123.54
892.889	58.43
893.054	46.99
893.219	21.04
893.384	36.71
893.548	32.65
893.713	24.06
893.878	-9
