Data from Ofav_PP_Phys_366_Reflection_1.txt Node
Date: Tue Jul 27 19:04:12 EDT 2021
User: USUARIO
Spectrometer: FLMT01687
Trigger mode: 0
Integration Time (sec): 8.500000E-1
Scans to average: 2
Electric dark correction enabled: true
Nonlinearity correction enabled: false
Boxcar width: 2
XAxis mode: Wavelengths
Number of Pixels in Spectrum: 3648
>>>>>Begin Spectral Data<<<<<
179.494	-1031.11
179.716	-321.77
179.937	-218.39
180.158	-176.73
180.38	-142.01
180.601	-126.69
180.823	73.27
181.044	50.54
181.265	57.05
181.486	-55.97
181.708	-37.27
181.929	78.52
182.15	51.12
182.372	-6.22
182.593	-38.38
182.814	36.33
183.035	55.89
183.257	28.87
183.478	52.04
183.699	47.32
183.92	57.84
184.141	62.77
184.363	89.31
184.584	97.79
184.805	98.22
185.026	82.4
185.247	91.16
185.468	57.5
185.689	23.85
185.91	13.41
186.132	-6.55
186.353	-2.79
186.574	10.62
186.795	27.36
187.016	37.94
187.237	52.3
187.458	72.11
187.679	56.76
187.9	42.74
188.121	50.63
188.342	53.01
188.563	51.97
188.784	80.64
189.005	94.04
189.226	76.05
189.447	63.89
189.667	64.57
189.888	59.89
190.109	43.48
190.33	68.59
190.551	68.91
190.772	37.71
190.993	30.11
191.214	45.83
191.434	36.44
191.655	51.84
191.876	61.98
192.097	44.77
192.318	46.21
192.538	48.65
192.759	38.44
192.98	22.62
193.201	44.1
193.421	27.66
193.642	23.49
193.863	20.94
194.083	50.63
194.304	48.19
194.525	29.63
194.745	1.62
194.966	-15.6
195.187	-53.22
195.407	-41.52
195.628	-13.56
195.848	21.84
196.069	34.5
196.29	54.66
196.51	70.91
196.731	84.38
196.951	89.25
197.172	82.78
197.392	64.33
197.613	58.56
197.833	23.75
198.054	42.79
198.274	49.19
198.495	52.75
198.715	75.44
198.936	85.96
199.156	71.34
199.377	94.1
199.597	114.55
199.817	60.7
200.038	113.73
200.258	72.51
200.479	46.61
200.699	41.52
200.919	45.03
201.14	40.16
201.36	26.22
201.58	20.72
201.801	11.49
202.021	8.9
202.241	6.56
202.461	4.59
202.682	-17.78
202.902	-52.57
203.122	-21.96
203.342	-13.6
203.563	39.9
203.783	52.97
204.003	67.08
204.223	57.42
204.443	54.84
204.663	11.57
204.884	19.02
205.104	16.53
205.324	9.06
205.544	3.87
205.764	2.51
205.984	-2.44
206.204	-9.48
206.424	-17.52
206.644	32.98
206.864	38.33
207.084	29.04
207.304	15.03
207.525	22.27
207.745	14.28
207.964	14.99
208.184	25.43
208.404	38.3
208.624	34.35
208.844	46.72
209.064	48.5
209.284	40.24
209.504	42.3
209.724	47.89
209.944	-13.12
210.164	12.48
210.384	60.61
210.604	52.55
210.823	66.62
211.043	63.57
211.263	73.49
211.483	74.54
211.703	75.76
211.922	81.18
212.142	135.79
212.362	54.03
212.582	34.22
212.801	39.46
213.021	20.51
213.241	5.51
213.461	20.8
213.68	27.53
213.9	16.33
214.12	34.83
214.339	34.36
214.559	33.57
214.779	20.03
214.998	23.6
215.218	5.26
215.438	15.38
215.657	30.78
215.877	46.41
216.096	49.74
216.316	64.68
216.535	50.8
216.755	51.06
216.974	61.77
217.194	71.27
217.413	73.19
217.633	80.65
217.852	65.54
218.072	46.45
218.291	34.22
218.511	13.49
218.73	19.43
218.95	18.96
219.169	28.38
219.389	17.61
219.608	38.83
219.827	36.16
220.047	30.91
220.266	58.98
220.485	77.23
220.705	65.46
220.924	48.59
221.143	35.88
221.363	10.23
221.582	-13.9
221.801	-17.35
222.021	16.42
222.24	31.01
222.459	31.06
222.678	49.34
222.897	55.68
223.117	62.83
223.336	84.14
223.555	59.34
223.774	41.2
223.993	50.18
224.213	27.85
224.432	14.31
224.651	35.9
224.87	30.34
225.089	11.88
225.308	14.95
225.527	27.42
225.746	-5.89
225.965	12.24
226.184	15.16
226.404	19.39
226.623	-5.03
226.842	19.03
227.061	3.56
227.28	21.75
227.499	31.54
227.718	28.41
227.936	40.31
228.155	40.4
228.374	35.71
228.593	31.17
228.812	35.45
229.031	18.02
229.25	24.26
229.469	13.05
229.688	26.42
229.907	11.72
230.125	37.3
230.344	26.98
230.563	51.79
230.782	52.29
231.001	65.8
231.22	63.14
231.438	62.7
231.657	43.2
231.876	19.52
232.095	20.31
232.313	21.2
232.532	27.91
232.751	25.89
232.969	54.07
233.188	57.2
233.407	49.87
233.625	55.67
233.844	43.9
234.063	23.14
234.281	13.28
234.5	10.33
234.719	19.12
234.937	29.04
235.156	35.34
235.374	27.7
235.593	44.81
235.811	29.23
236.03	38.46
236.249	51.73
236.467	75.23
236.686	57.89
236.904	67.27
237.123	60.01
237.341	55.71
237.559	50.13
237.778	52.77
237.996	45.2
238.215	57.27
238.433	59.46
238.652	55.34
238.87	66.39
239.088	67.13
239.307	54.47
239.525	37.27
239.743	30.25
239.962	15.76
240.18	22.09
240.398	17.99
240.617	23.36
240.835	39.91
241.053	44.77
241.271	42.62
241.49	46.15
241.708	59.68
241.926	39.3
242.144	24.11
242.363	18.37
242.581	28.03
242.799	2.47
243.017	-1.42
243.235	4.8
243.453	25.52
243.672	24.99
243.89	39.42
244.108	43.24
244.326	39.26
244.544	14.58
244.762	26.76
244.98	30.22
245.198	21.85
245.416	26.11
245.634	49.87
245.852	37.78
246.07	24.98
246.288	34.3
246.506	36.48
246.724	46.15
246.942	39.36
247.16	49.76
247.378	43.68
247.596	36.23
247.814	25.18
248.032	27.87
248.25	19.92
248.468	33.94
248.685	39.85
248.903	49.48
249.121	51.68
249.339	47.82
249.557	45.15
249.775	19.92
249.992	2.81
250.21	-0.94
250.428	-0.68
250.646	-20.75
250.863	10.43
251.081	25.69
251.299	22.26
251.517	29.54
251.734	66.4
251.952	54.46
252.17	53.91
252.387	41.74
252.605	54.73
252.823	35.98
253.04	39.92
253.258	42.74
253.475	45.95
253.693	42.44
253.911	41.68
254.128	35.07
254.346	22.91
254.563	28.24
254.781	22.9
254.998	28.8
255.216	16.17
255.433	16.49
255.651	32.69
255.868	24.05
256.086	12.01
256.303	21.49
256.521	26.76
256.738	26.01
256.956	34.02
257.173	39.51
257.39	41.74
257.608	54.71
257.825	43.4
258.043	45.07
258.26	43.55
258.477	39.15
258.695	28.49
258.912	27.59
259.129	12.02
259.346	18.51
259.564	28.31
259.781	52.95
259.998	48.95
260.216	61.76
260.433	56.25
260.65	69.98
260.867	57.28
261.084	74.71
261.302	73.91
261.519	86.34
261.736	50.81
261.953	52.13
262.17	40.71
262.387	30.51
262.604	17.79
262.822	15.91
263.039	12.86
263.256	12.45
263.473	29.56
263.69	29.64
263.907	28.5
264.124	45.14
264.341	50.37
264.558	48.45
264.775	55.71
264.992	61.97
265.209	55.48
265.426	53.87
265.643	53.22
265.86	36.4
266.077	33.75
266.294	28.11
266.51	38.42
266.727	35.36
266.944	32.48
267.161	24.15
267.378	20.91
267.595	4.51
267.812	15.88
268.028	34.72
268.245	25.63
268.462	24.49
268.679	14.85
268.896	17.92
269.112	14.61
269.329	23.9
269.546	39.68
269.763	40.18
269.979	34.83
270.196	32.11
270.413	31.95
270.629	31.79
270.846	46.05
271.063	36.96
271.279	31.21
271.496	30.79
271.712	13.18
271.929	4.81
272.146	0.3
272.362	32.83
272.579	41.43
272.795	47.34
273.012	39.96
273.228	40.82
273.445	27.79
273.661	31.33
273.878	17.35
274.094	4.13
274.311	20.42
274.527	27.96
274.744	10.72
274.96	6.8
275.177	18.08
275.393	12.74
275.609	13.33
275.826	24.28
276.042	40.16
276.259	61.96
276.475	49.09
276.691	29.11
276.908	38.27
277.124	35.99
277.34	34.19
277.557	44.84
277.773	68.62
277.989	55.88
278.205	49.01
278.422	41.75
278.638	42.7
278.854	51.13
279.07	53.78
279.286	55.37
279.503	53.41
279.719	49.25
279.935	41.5
280.151	44
280.367	52.57
280.583	56.64
280.799	71
281.016	68.31
281.232	71.5
281.448	62.22
281.664	55.86
281.88	34.41
282.096	38.99
282.312	23.39
282.528	18.14
282.744	17.35
282.96	17.72
283.176	3.69
283.392	12.55
283.608	34.48
283.824	32.62
284.04	11.3
284.256	28.46
284.471	22.64
284.687	17.41
284.903	21.87
285.119	32.8
285.335	33.48
285.551	36.66
285.767	44.18
285.982	42.34
286.198	53.28
286.414	40.54
286.63	39.03
286.846	26.22
287.061	14.98
287.277	7.03
287.493	8.1
287.709	11.98
287.924	21.89
288.14	35.76
288.356	52.74
288.571	57.94
288.787	58.12
289.003	45.37
289.218	55.51
289.434	51.88
289.65	48.99
289.865	32.34
290.081	43.29
290.296	32.34
290.512	31.24
290.727	28.03
290.943	34.49
291.159	19.19
291.374	30.69
291.59	29.41
291.805	32.97
292.021	25.94
292.236	38.48
292.451	38.81
292.667	47.28
292.882	39.86
293.098	43.38
293.313	51.01
293.529	45.44
293.744	36.04
293.959	48.02
294.175	53.19
294.39	45
294.605	43.88
294.821	46.9
295.036	33.21
295.251	34.66
295.467	19.68
295.682	-9.18
295.897	-3.74
296.112	14.99
296.328	14
296.543	26.38
296.758	48.34
296.973	51.8
297.188	51.26
297.404	45.55
297.619	43.65
297.834	37.21
298.049	37.57
298.264	34.69
298.479	38.04
298.694	32.86
298.909	32.91
299.125	41
299.34	37.16
299.555	52.54
299.77	53.5
299.985	60.45
300.2	42.27
300.415	34.09
300.63	13.67
300.845	14.52
301.06	-2.15
301.275	27.69
301.49	35.92
301.704	33.19
301.919	37.99
302.134	42.43
302.349	38.87
302.564	33.85
302.779	24.42
302.994	19.88
303.209	23.83
303.423	19.34
303.638	19.68
303.853	34.42
304.068	51.03
304.283	46.04
304.497	34.23
304.712	44.18
304.927	30.94
305.142	25.2
305.356	30.74
305.571	56.24
305.786	62.33
306	66.64
306.215	54.9
306.43	52.42
306.644	55.61
306.859	45.52
307.074	56.95
307.288	58.44
307.503	66.3
307.717	52.72
307.932	45.26
308.147	48.58
308.361	43.58
308.576	28.65
308.79	23.88
309.005	30.28
309.219	16.66
309.434	22.36
309.648	28.63
309.863	31.94
310.077	30.43
310.292	26.56
310.506	18.08
310.72	11.61
310.935	3
311.149	-3.35
311.364	-6.83
311.578	12.04
311.792	25.28
312.007	31.13
312.221	37.5
312.435	36.43
312.649	38.68
312.864	38.97
313.078	46.48
313.292	39.45
313.507	24.6
313.721	33.92
313.935	23.68
314.149	20.88
314.363	23.03
314.578	28.1
314.792	20.07
315.006	32.37
315.22	39.84
315.434	42.71
315.648	54.54
315.862	50.95
316.077	52.7
316.291	46.19
316.505	19.76
316.719	21.96
316.933	26.42
317.147	8.21
317.361	15.14
317.575	45.12
317.789	34.76
318.003	38.67
318.217	36.73
318.431	24.35
318.645	22.08
318.859	28.12
319.073	28.38
319.287	29.97
319.5	26.97
319.714	18.59
319.928	22.74
320.142	12.42
320.356	21.04
320.57	37.77
320.784	41.92
320.997	48
321.211	62.95
321.425	53.17
321.639	37.65
321.853	30
322.066	25.51
322.28	14.95
322.494	25.62
322.707	31.84
322.921	35.11
323.135	30.73
323.349	28.33
323.562	34.5
323.776	37.17
323.989	26.12
324.203	21.05
324.417	12.17
324.63	31.75
324.844	35.3
325.057	44.21
325.271	41.43
325.485	48.18
325.698	33.37
325.912	42.59
326.125	47.83
326.339	47.47
326.552	44.28
326.766	39.7
326.979	20.48
327.193	21.59
327.406	12.99
327.619	14.15
327.833	11.85
328.046	32.29
328.26	19.19
328.473	20.08
328.686	27.13
328.9	26.49
329.113	20.2
329.326	14.08
329.54	26.4
329.753	34.55
329.966	28.63
330.179	29.14
330.393	44.02
330.606	34.63
330.819	24.99
331.032	30.81
331.246	33.23
331.459	28.68
331.672	32.66
331.885	38.35
332.098	54.15
332.311	60.03
332.525	64.06
332.738	45.89
332.951	41.66
333.164	20.53
333.377	-1.1
333.59	12.32
333.803	27.48
334.016	20.02
334.229	26.42
334.442	40.3
334.655	40.71
334.868	47.44
335.081	54.15
335.294	52.91
335.507	60.37
335.72	59.63
335.933	45.3
336.146	44.43
336.359	52.04
336.572	48.39
336.785	34.53
336.997	36.24
337.21	54.59
337.423	57.8
337.636	47.3
337.849	39.32
338.062	45.48
338.274	28.69
338.487	38.53
338.7	41.85
338.913	52.17
339.125	42.8
339.338	44.67
339.551	-6.19
339.763	-19.67
339.976	-11.29
340.189	8.2
340.402	9.21
340.614	35.15
340.827	47.17
341.039	45.73
341.252	39.42
341.465	12.36
341.677	15.7
341.89	14.38
342.102	22.57
342.315	25.85
342.527	53.24
342.74	52.81
342.952	33.5
343.165	38.85
343.377	37.06
343.59	22.89
343.802	27.9
344.015	41.95
344.227	31.27
344.44	24.53
344.652	22.99
344.864	6.93
345.077	15.73
345.289	7.74
345.502	14.3
345.714	12.56
345.926	12.44
346.139	20.16
346.351	30.85
346.563	29.4
346.775	38.73
346.988	41.98
347.2	24.13
347.412	11.13
347.624	16.94
347.837	-5.86
348.049	-10.69
348.261	0.15
348.473	14.97
348.685	24.47
348.897	37.03
349.11	41.68
349.322	29.14
349.534	23.82
349.746	12.72
349.958	21.28
350.17	21.46
350.382	27.4
350.594	15.98
350.806	25.78
351.018	18.05
351.23	16.52
351.442	16.88
351.654	47.89
351.866	25.11
352.078	32.97
352.29	35.09
352.502	33.47
352.714	30.5
352.926	40.67
353.138	41.31
353.35	36.22
353.561	39.29
353.773	24.7
353.985	15.11
354.197	20.9
354.409	23.68
354.621	24.55
354.832	34.26
355.044	35.76
355.256	35.67
355.468	42.97
355.679	46.27
355.891	49.49
356.103	66.32
356.314	58.66
356.526	53.48
356.738	63.22
356.949	49.77
357.161	42.62
357.373	35
357.584	35.2
357.796	30.6
358.008	32.24
358.219	36.01
358.431	47.38
358.642	44.79
358.854	48.42
359.065	41.48
359.277	35.91
359.488	31.24
359.7	30.56
359.911	32.84
360.123	46.78
360.334	41.21
360.546	44.68
360.757	55.99
360.969	46.36
361.18	45.15
361.391	41.83
361.603	36.55
361.814	30.74
362.025	33.92
362.237	27.17
362.448	23.14
362.659	25.51
362.871	22.36
363.082	17.59
363.293	16.51
363.504	24.78
363.716	22.28
363.927	4.49
364.138	15.8
364.349	20.41
364.56	21.44
364.772	28.85
364.983	39.76
365.194	27.86
365.405	29.75
365.616	34.42
365.827	35.84
366.038	43.06
366.25	55.79
366.461	55.37
366.672	55.67
366.883	51.56
367.094	39.59
367.305	33.76
367.516	29.19
367.727	31.77
367.938	25.47
368.149	34.41
368.36	23.56
368.571	24.28
368.781	25.48
368.992	28.7
369.203	14.15
369.414	27.4
369.625	37.34
369.836	26.39
370.047	23.36
370.258	33.97
370.468	23.05
370.679	16.91
370.89	23.98
371.101	13.87
371.312	23.45
371.522	25.72
371.733	28.18
371.944	31.16
372.155	39.15
372.365	19.28
372.576	20.06
372.787	17.39
372.997	18.52
373.208	20.18
373.419	35.17
373.629	34.59
373.84	40.03
374.05	31.35
374.261	23.26
374.472	25.55
374.682	26.1
374.893	30.2
375.103	34.92
375.314	40.22
375.524	30.23
375.735	30.3
375.945	17.4
376.156	22.98
376.366	20.9
376.577	25.97
376.787	20.95
376.997	30.38
377.208	31.4
377.418	33.71
377.629	36.5
377.839	52.23
378.049	42.42
378.26	36.93
378.47	38.03
378.68	32.33
378.89	25.98
379.101	15.7
379.311	16.43
379.521	12.36
379.732	19.05
379.942	27
380.152	37.03
380.362	44.79
380.572	37.94
380.783	31.57
380.993	20.02
381.203	14.28
381.413	1.9
381.623	10.24
381.833	11.79
382.043	19.81
382.253	22.13
382.463	22.13
382.674	25.15
382.884	25.78
383.094	13.35
383.304	21.61
383.514	25.53
383.724	15.26
383.934	15.47
384.144	15.4
384.353	11.94
384.563	20.72
384.773	25.35
384.983	19.55
385.193	24.23
385.403	23.44
385.613	16.15
385.823	15.73
386.033	15.91
386.242	20.06
386.452	19.67
386.662	21.72
386.872	22.14
387.082	18.18
387.291	10.71
387.501	7.8
387.711	6.66
387.921	6.6
388.13	13.95
388.34	16.11
388.55	21.42
388.759	19.11
388.969	19.88
389.179	20.33
389.388	22.73
389.598	17.66
389.807	17.18
390.017	18.42
390.227	17.52
390.436	17.26
390.646	18.93
390.855	17.04
391.065	15.14
391.274	12.78
391.484	9.77
391.693	11.44
391.903	13.1
392.112	12.26
392.322	12.56
392.531	12.51
392.74	10.56
392.95	11.05
393.159	11.92
393.369	12.39
393.578	14.03
393.787	13.09
393.997	12.17
394.206	11.65
394.415	11.48
394.625	10.33
394.834	10.81
395.043	11.17
395.252	11.54
395.462	11.64
395.671	11.17
395.88	12.51
396.089	12.62
396.298	12.1
396.508	11.64
396.717	12.23
396.926	11.05
397.135	10.25
397.344	10.04
397.553	9.97
397.762	9.51
397.971	9.53
398.181	10.09
398.39	10.11
398.599	9.97
398.808	10.05
399.017	10.65
399.226	10.45
399.435	10.56
399.644	10.7
399.853	10.78
400.062	10.53
400.27	10.32
400.479	9.89
400.688	9.75
400.897	9.61
401.106	9.39
401.315	9.63
401.524	9.71
401.733	9.82
401.941	9.81
402.15	9.94
402.359	9.75
402.568	9.79
402.777	9.52
402.985	9.44
403.194	9.45
403.403	9.42
403.612	9.26
403.82	9.24
404.029	9.23
404.238	9.04
404.446	9.15
404.655	9.44
404.864	9.62
405.072	9.58
405.281	9.72
405.489	9.49
405.698	9.39
405.906	9.38
406.115	9.29
406.324	9.1
406.532	9.02
406.741	8.85
406.949	8.76
407.158	8.7
407.366	8.59
407.574	8.8
407.783	8.81
407.991	8.78
408.2	8.84
408.408	8.9
408.617	8.74
408.825	8.85
409.033	8.83
409.242	8.83
409.45	8.79
409.658	8.77
409.867	8.52
410.075	8.33
410.283	8.2
410.491	8.14
410.7	8.14
410.908	8.2
411.116	8.33
411.324	8.42
411.533	8.4
411.741	8.15
411.949	8.19
412.157	8.21
412.365	8.32
412.573	8.25
412.781	8.43
412.99	8.36
413.198	8.38
413.406	8.3
413.614	8.44
413.822	8.42
414.03	8.49
414.238	8.35
414.446	8.23
414.654	8.17
414.862	8.21
415.07	8.05
415.278	7.96
415.486	7.97
415.694	7.9
415.902	7.77
416.109	7.84
416.317	8.07
416.525	8.04
416.733	8.03
416.941	8.09
417.149	7.95
417.357	7.91
417.564	7.8
417.772	7.81
417.98	7.9
418.188	8.31
418.395	8.1
418.603	8.08
418.811	8.31
419.019	8.1
419.226	7.88
419.434	8.07
419.642	8.32
419.849	8.09
420.057	8.07
420.265	8.1
420.472	7.87
420.68	7.75
420.887	7.77
421.095	7.85
421.302	7.74
421.51	7.89
421.717	7.79
421.925	7.67
422.132	7.66
422.34	7.64
422.547	7.62
422.755	7.69
422.962	7.6
423.17	7.68
423.377	7.72
423.585	7.77
423.792	7.69
423.999	7.69
424.207	7.58
424.414	7.57
424.621	7.4
424.829	7.29
425.036	7.34
425.243	7.45
425.451	7.26
425.658	7.23
425.865	7.44
426.072	7.39
426.28	7.13
426.487	7.3
426.694	7.36
426.901	7.27
427.108	7.33
427.315	7.39
427.523	7.23
427.73	7.05
427.937	7.05
428.144	7.16
428.351	7.08
428.558	7.29
428.765	7.46
428.972	7.47
429.179	7.31
429.386	7.45
429.593	7.26
429.8	7.18
430.007	7.12
430.214	7.1
430.421	7.11
430.628	7.02
430.835	7.12
431.042	7.07
431.249	7.25
431.456	7.19
431.662	7.51
431.869	7.56
432.076	7.53
432.283	7.4
432.49	7.47
432.697	7.28
432.903	7.36
433.11	7.57
433.317	7.55
433.524	7.48
433.73	7.56
433.937	7.3
434.144	7.15
434.35	7.2
434.557	7.2
434.764	7.13
434.97	7.18
435.177	7.2
435.384	7.06
435.59	7.1
435.797	7.12
436.003	7.23
436.21	7.14
436.416	7.26
436.623	7.25
436.829	7.21
437.036	7.21
437.242	7.36
437.449	7.33
437.655	7.34
437.862	7.34
438.068	7.22
438.275	7.2
438.481	7.13
438.687	7.18
438.894	7.28
439.1	7.4
439.307	7.33
439.513	7.41
439.719	7.44
439.926	7.25
440.132	7.3
440.338	7.34
440.544	7.34
440.751	7.2
440.957	7.31
441.163	7.08
441.369	7.1
441.575	7.02
441.782	7.14
441.988	7.09
442.194	7.17
442.4	7.15
442.606	7.1
442.812	7.12
443.018	7.06
443.224	7.12
443.431	7.06
443.637	7.17
443.843	6.99
444.049	7.17
444.255	7.05
444.461	7.11
444.667	7.02
444.873	7.09
445.079	7.13
445.284	7.2
445.49	7.21
445.696	7.3
445.902	7.33
446.108	7.26
446.314	7.22
446.52	7.31
446.726	7.28
446.931	7.35
447.137	7.26
447.343	7.22
447.549	7.04
447.755	7.04
447.96	6.97
448.166	7.06
448.372	7.17
448.578	7.25
448.783	7.3
448.989	7.31
449.195	7.22
449.4	7.22
449.606	7.21
449.812	7.13
450.017	7.1
450.223	7.14
450.428	7.08
450.634	7.08
450.84	7.11
451.045	7.22
451.251	7.35
451.456	7.37
451.662	7.37
451.867	7.41
452.073	7.21
452.278	7.14
452.483	7.07
452.689	7.13
452.894	7.09
453.1	7.21
453.305	7.27
453.51	7.36
453.716	7.27
453.921	7.34
454.127	7.33
454.332	7.13
454.537	7.06
454.742	7.07
454.948	6.98
455.153	7.02
455.358	7.11
455.563	7.15
455.769	7.14
455.974	7.17
456.179	7.08
456.384	7.01
456.589	7.11
456.795	7.16
457	7.16
457.205	7.17
457.41	7.22
457.615	7.07
457.82	7.02
458.025	6.93
458.23	6.99
458.435	6.94
458.64	6.97
458.845	7
459.05	6.98
459.255	7
459.46	7.06
459.665	7.07
459.87	7.05
460.075	7.19
460.28	7.16
460.485	7.21
460.69	7.22
460.895	7.27
461.099	7.23
461.304	7.19
461.509	7.13
461.714	7.24
461.919	7.21
462.123	7.28
462.328	7.31
462.533	7.22
462.738	7.08
462.942	7.05
463.147	6.97
463.352	6.92
463.556	7.09
463.761	7.04
463.966	7.05
464.17	7.08
464.375	7.12
464.58	7.13
464.784	7.24
464.989	7.34
465.193	7.32
465.398	7.39
465.602	7.31
465.807	7.27
466.011	7.19
466.216	7.11
466.42	7.16
466.625	7.21
466.829	7.1
467.034	7.25
467.238	7.34
467.443	7.33
467.647	7.28
467.851	7.4
468.056	7.28
468.26	7.3
468.464	7.2
468.669	7.23
468.873	7.25
469.077	7.27
469.282	7.21
469.486	7.25
469.69	7.21
469.894	7.24
470.099	7.3
470.303	7.39
470.507	7.41
470.711	7.55
470.915	7.58
471.119	7.55
471.324	7.54
471.528	7.52
471.732	7.46
471.936	7.37
472.14	7.38
472.344	7.38
472.548	7.29
472.752	7.22
472.956	7.23
473.16	7.25
473.364	7.24
473.568	7.41
473.772	7.47
473.976	7.45
474.18	7.41
474.384	7.34
474.588	7.28
474.792	7.36
474.995	7.32
475.199	7.28
475.403	7.33
475.607	7.26
475.811	7.18
476.015	7.22
476.218	7.24
476.422	7.2
476.626	7.26
476.83	7.3
477.033	7.38
477.237	7.4
477.441	7.38
477.644	7.35
477.848	7.42
478.052	7.36
478.255	7.41
478.459	7.5
478.663	7.54
478.866	7.42
479.07	7.51
479.273	7.46
479.477	7.4
479.681	7.51
479.884	7.53
480.088	7.49
480.291	7.5
480.495	7.48
480.698	7.38
480.901	7.39
481.105	7.4
481.308	7.34
481.512	7.33
481.715	7.33
481.919	7.34
482.122	7.32
482.325	7.41
482.529	7.43
482.732	7.41
482.935	7.36
483.138	7.43
483.342	7.38
483.545	7.45
483.748	7.52
483.952	7.57
484.155	7.47
484.358	7.51
484.561	7.51
484.764	7.4
484.967	7.39
485.171	7.42
485.374	7.35
485.577	7.29
485.78	7.34
485.983	7.3
486.186	7.33
486.389	7.37
486.592	7.35
486.795	7.41
486.998	7.44
487.201	7.38
487.404	7.36
487.607	7.4
487.81	7.39
488.013	7.36
488.216	7.44
488.419	7.49
488.622	7.48
488.825	7.45
489.028	7.48
489.231	7.44
489.433	7.41
489.636	7.41
489.839	7.46
490.042	7.44
490.245	7.43
490.447	7.46
490.65	7.45
490.853	7.34
491.056	7.43
491.258	7.47
491.461	7.4
491.664	7.38
491.866	7.47
492.069	7.43
492.272	7.46
492.474	7.54
492.677	7.64
492.879	7.63
493.082	7.56
493.285	7.55
493.487	7.56
493.69	7.48
493.892	7.49
494.095	7.61
494.297	7.58
494.5	7.57
494.702	7.63
494.905	7.6
495.107	7.59
495.309	7.62
495.512	7.6
495.714	7.61
495.917	7.66
496.119	7.64
496.321	7.68
496.524	7.74
496.726	7.74
496.928	7.76
497.13	7.85
497.333	7.89
497.535	7.93
497.737	7.94
497.939	7.99
498.142	7.98
498.344	7.95
498.546	7.93
498.748	8.02
498.95	7.97
499.152	7.96
499.355	7.92
499.557	7.97
499.759	7.96
499.961	8.01
500.163	8.03
500.365	8.12
500.567	8.11
500.769	8.05
500.971	8.06
501.173	8.1
501.375	8.19
501.577	8.25
501.779	8.32
501.981	8.36
502.183	8.39
502.385	8.27
502.587	8.19
502.788	8.21
502.99	8.26
503.192	8.19
503.394	8.25
503.596	8.38
503.798	8.44
503.999	8.41
504.201	8.45
504.403	8.44
504.605	8.5
504.806	8.49
505.008	8.52
505.21	8.54
505.411	8.56
505.613	8.45
505.815	8.45
506.016	8.47
506.218	8.53
506.42	8.54
506.621	8.57
506.823	8.57
507.024	8.61
507.226	8.55
507.427	8.53
507.629	8.52
507.83	8.49
508.032	8.43
508.233	8.46
508.435	8.53
508.636	8.61
508.838	8.67
509.039	8.7
509.24	8.68
509.442	8.71
509.643	8.65
509.845	8.6
510.046	8.62
510.247	8.67
510.448	8.66
510.65	8.7
510.851	8.73
511.052	8.77
511.254	8.79
511.455	8.77
511.656	8.79
511.857	8.79
512.058	8.75
512.26	8.71
512.461	8.74
512.662	8.72
512.863	8.75
513.064	8.78
513.265	8.77
513.466	8.8
513.667	8.78
513.868	8.81
514.069	8.81
514.27	8.8
514.471	8.81
514.672	8.88
514.873	8.95
515.074	8.95
515.275	9.08
515.476	9.05
515.677	8.99
515.878	8.91
516.079	8.92
516.28	8.84
516.481	8.89
516.682	8.92
516.882	8.92
517.083	8.9
517.284	9
517.485	8.99
517.686	9.03
517.886	9.08
518.087	9.05
518.288	9.01
518.488	9.01
518.689	8.98
518.89	8.92
519.091	9.02
519.291	9.02
519.492	9
519.692	9.07
519.893	9.18
520.094	9.12
520.294	9.11
520.495	9.19
520.695	9.19
520.896	9.17
521.096	9.2
521.297	9.3
521.497	9.31
521.698	9.27
521.898	9.31
522.099	9.34
522.299	9.29
522.499	9.24
522.7	9.27
522.9	9.29
523.101	9.27
523.301	9.33
523.501	9.39
523.702	9.43
523.902	9.42
524.102	9.51
524.302	9.49
524.503	9.52
524.703	9.56
524.903	9.58
525.103	9.53
525.304	9.48
525.504	9.49
525.704	9.48
525.904	9.51
526.104	9.5
526.304	9.64
526.504	9.66
526.705	9.65
526.905	9.65
527.105	9.74
527.305	9.66
527.505	9.65
527.705	9.65
527.905	9.66
528.105	9.61
528.305	9.7
528.505	9.71
528.705	9.76
528.905	9.78
529.105	9.87
529.304	9.85
529.504	9.93
529.704	9.89
529.904	9.91
530.104	9.81
530.304	9.78
530.503	9.83
530.703	9.81
530.903	9.87
531.103	10
531.303	10.02
531.502	10
531.702	10.07
531.902	10
532.101	9.96
532.301	10.06
532.501	10
532.7	10.06
532.9	10.09
533.1	10.13
533.299	10.13
533.499	10.25
533.698	10.21
533.898	10.2
534.097	10.24
534.297	10.22
534.496	10.15
534.696	10.2
534.895	10.25
535.095	10.27
535.294	10.32
535.494	10.33
535.693	10.39
535.892	10.41
536.092	10.45
536.291	10.46
536.491	10.52
536.69	10.53
536.889	10.57
537.088	10.54
537.288	10.6
537.487	10.61
537.686	10.66
537.886	10.78
538.085	10.83
538.284	10.83
538.483	10.9
538.682	10.95
538.882	10.92
539.081	10.96
539.28	11.01
539.479	11.04
539.678	11.06
539.877	11.06
540.076	11.09
540.275	11.09
540.474	11.07
540.673	11.06
540.872	11.14
541.071	11.19
541.27	11.31
541.469	11.35
541.668	11.35
541.867	11.37
542.066	11.34
542.265	11.38
542.464	11.47
542.663	11.6
542.862	11.67
543.06	11.72
543.259	11.71
543.458	11.76
543.657	11.77
543.856	11.86
544.054	11.93
544.253	11.95
544.452	12.03
544.651	12.09
544.849	12.04
545.048	12.05
545.247	12.2
545.445	12.18
545.644	12.19
545.843	12.25
546.041	12.38
546.24	12.36
546.438	12.47
546.637	12.59
546.836	12.68
547.034	12.71
547.233	12.81
547.431	12.76
547.63	12.83
547.828	12.91
548.027	12.92
548.225	12.98
548.423	13.12
548.622	13.14
548.82	13.16
549.019	13.24
549.217	13.21
549.415	13.28
549.614	13.38
549.812	13.4
550.01	13.53
550.209	13.65
550.407	13.75
550.605	13.82
550.803	13.92
551.002	14.01
551.2	14.1
551.398	14.12
551.596	14.14
551.794	14.24
551.993	14.24
552.191	14.31
552.389	14.42
552.587	14.51
552.785	14.58
552.983	14.71
553.181	14.84
553.379	14.92
553.577	15.06
553.775	15.13
553.973	15.19
554.171	15.2
554.369	15.28
554.567	15.36
554.765	15.5
554.963	15.59
555.161	15.74
555.359	15.85
555.557	15.93
555.755	16.01
555.952	16.08
556.15	16.14
556.348	16.19
556.546	16.24
556.744	16.33
556.941	16.39
557.139	16.49
557.337	16.63
557.535	16.72
557.732	16.77
557.93	16.94
558.128	17.05
558.325	17.2
558.523	17.37
558.721	17.51
558.918	17.55
559.116	17.7
559.313	17.73
559.511	17.81
559.708	17.98
559.906	18.15
560.104	18.23
560.301	18.34
560.498	18.41
560.696	18.39
560.893	18.52
561.091	18.62
561.288	18.77
561.486	18.86
561.683	19.04
561.88	19.06
562.078	19.13
562.275	19.14
562.473	19.31
562.67	19.38
562.867	19.54
563.064	19.6
563.262	19.73
563.459	19.83
563.656	19.89
563.853	20.03
564.051	20.14
564.248	20.29
564.445	20.4
564.642	20.53
564.839	20.67
565.036	20.88
565.234	20.91
565.431	20.94
565.628	21.04
565.825	20.96
566.022	21.03
566.219	21.19
566.416	21.24
566.613	21.34
566.81	21.58
567.007	21.59
567.204	21.67
567.401	21.79
567.598	21.93
567.795	21.95
567.991	22.13
568.188	22.26
568.385	22.29
568.582	22.36
568.779	22.44
568.976	22.48
569.172	22.64
569.369	22.73
569.566	22.79
569.763	22.8
569.96	22.87
570.156	22.79
570.353	22.87
570.55	22.98
570.746	23.15
570.943	23.23
571.14	23.26
571.336	23.29
571.533	23.25
571.729	23.26
571.926	23.26
572.123	23.41
572.319	23.46
572.516	23.49
572.712	23.51
572.909	23.56
573.105	23.48
573.302	23.58
573.498	23.62
573.695	23.74
573.891	23.77
574.087	23.85
574.284	23.9
574.48	24.09
574.677	24.09
574.873	24.19
575.069	24.28
575.266	24.28
575.462	24.28
575.658	24.34
575.854	24.42
576.051	24.4
576.247	24.51
576.443	24.52
576.639	24.54
576.835	24.51
577.032	24.51
577.228	24.5
577.424	24.46
577.62	24.5
577.816	24.43
578.012	24.5
578.208	24.43
578.404	24.41
578.6	24.41
578.796	24.43
578.993	24.51
579.189	24.56
579.384	24.58
579.58	24.62
579.776	24.65
579.972	24.53
580.168	24.5
580.364	24.49
580.56	24.5
580.756	24.55
580.952	24.56
581.148	24.59
581.343	24.7
581.539	24.64
581.735	24.64
581.931	24.74
582.127	24.76
582.322	24.76
582.518	24.66
582.714	24.68
582.909	24.69
583.105	24.61
583.301	24.55
583.496	24.67
583.692	24.58
583.888	24.5
584.083	24.5
584.279	24.5
584.474	24.47
584.67	24.35
584.866	24.33
585.061	24.39
585.257	24.36
585.452	24.4
585.648	24.48
585.843	24.42
586.039	24.43
586.234	24.37
586.429	24.24
586.625	24.26
586.82	24.32
587.015	24.23
587.211	24.21
587.406	24.35
587.601	24.3
587.797	24.3
587.992	24.36
588.187	24.38
588.383	24.26
588.578	24.29
588.773	24.28
588.968	24.28
589.163	24.3
589.359	24.34
589.554	24.38
589.749	24.36
589.944	24.33
590.139	24.39
590.334	24.43
590.529	24.46
590.724	24.49
590.919	24.61
591.114	24.49
591.309	24.55
591.504	24.56
591.699	24.6
591.894	24.46
592.089	24.54
592.284	24.51
592.479	24.52
592.674	24.54
592.869	24.74
593.064	24.9
593.259	24.92
593.454	24.94
593.648	24.86
593.843	24.78
594.038	24.82
594.233	24.87
594.428	24.98
594.622	25.11
594.817	25.31
595.012	25.28
595.206	25.34
595.401	25.44
595.596	25.52
595.79	25.48
595.985	25.6
596.18	25.65
596.374	25.71
596.569	25.74
596.763	25.87
596.958	25.99
597.153	25.99
597.347	26.02
597.542	26.16
597.736	26.3
597.931	26.27
598.125	26.49
598.319	26.46
598.514	26.52
598.708	26.51
598.903	26.61
599.097	26.65
599.291	26.76
599.486	26.84
599.68	26.9
599.874	26.84
600.069	26.92
600.263	26.9
600.457	26.84
600.651	26.8
600.846	26.91
601.04	26.9
601.234	26.95
601.428	27.09
601.622	27.13
601.817	27.08
602.011	27.12
602.205	27.22
602.399	27.29
602.593	27.44
602.787	27.49
602.981	27.41
603.175	27.39
603.369	27.33
603.563	27.25
603.757	27.32
603.951	27.31
604.145	27.19
604.339	27.13
604.533	27.08
604.727	27
604.921	27.02
605.115	27.06
605.309	27.03
605.502	27.04
605.696	27.04
605.89	26.94
606.084	26.91
606.278	26.93
606.471	26.78
606.665	26.71
606.859	26.67
607.053	26.56
607.246	26.41
607.44	26.4
607.634	26.45
607.827	26.36
608.021	26.34
608.214	26.25
608.408	26.18
608.602	26.03
608.795	26.04
608.989	25.98
609.182	26
609.376	25.97
609.569	25.89
609.763	25.75
609.956	25.68
610.15	25.66
610.343	25.57
610.537	25.47
610.73	25.33
610.923	25.36
611.117	25.26
611.31	25.08
611.504	25.08
611.697	25.18
611.89	24.96
612.083	24.81
612.277	24.72
612.47	24.6
612.663	24.47
612.856	24.34
613.05	24.25
613.243	24.29
613.436	24.15
613.629	24.05
613.822	24.04
614.015	24.06
614.209	23.9
614.402	23.82
614.595	23.76
614.788	23.63
614.981	23.57
615.174	23.58
615.367	23.63
615.56	23.48
615.753	23.48
615.946	23.31
616.139	23.21
616.332	22.93
616.525	22.93
616.718	22.75
616.911	22.78
617.103	22.66
617.296	22.71
617.489	22.58
617.682	22.61
617.875	22.51
618.067	22.41
618.26	22.35
618.453	22.31
618.646	22.3
618.838	22.22
619.031	22.24
619.224	22.25
619.417	22.35
619.609	22.28
619.802	22.24
619.994	22.2
620.187	22.09
620.38	21.95
620.572	21.9
620.765	21.83
620.957	21.84
621.15	21.9
621.342	21.95
621.535	21.94
621.727	21.96
621.92	21.89
622.112	21.82
622.305	21.72
622.497	21.63
622.69	21.52
622.882	21.53
623.074	21.54
623.267	21.57
623.459	21.51
623.651	21.52
623.844	21.48
624.036	21.34
624.228	21.29
624.42	21.33
624.613	21.32
624.805	21.3
624.997	21.27
625.189	21.23
625.381	21.24
625.574	21.18
625.766	21.11
625.958	21.13
626.15	20.98
626.342	20.89
626.534	20.89
626.726	20.93
626.918	20.91
627.11	20.93
627.302	20.93
627.494	20.94
627.686	20.94
627.878	20.84
628.07	20.83
628.262	20.76
628.454	20.61
628.646	20.44
628.838	20.46
629.029	20.5
629.221	20.45
629.413	20.47
629.605	20.51
629.797	20.41
629.989	20.37
630.18	20.42
630.372	20.41
630.564	20.39
630.755	20.47
630.947	20.35
631.139	20.23
631.33	20.17
631.522	20.08
631.714	19.94
631.905	19.9
632.097	19.87
632.289	19.79
632.48	19.71
632.672	19.72
632.863	19.72
633.055	19.69
633.246	19.7
633.438	19.78
633.629	19.67
633.821	19.58
634.012	19.56
634.203	19.55
634.395	19.46
634.586	19.59
634.777	19.59
634.969	19.52
635.16	19.45
635.351	19.38
635.543	19.29
635.734	19.33
635.925	19.25
636.117	19.29
636.308	19.35
636.499	19.31
636.69	19.15
636.881	19.17
637.073	19.11
637.264	18.97
637.455	18.92
637.646	19.02
637.837	18.99
638.028	18.92
638.219	18.94
638.41	18.87
638.601	18.71
638.792	18.6
638.983	18.6
639.174	18.56
639.365	18.48
639.556	18.51
639.747	18.51
639.938	18.54
640.129	18.52
640.32	18.57
640.511	18.55
640.701	18.53
640.892	18.34
641.083	18.26
641.274	18.17
641.465	18.06
641.655	18.02
641.846	18.04
642.037	18.01
642.228	18.05
642.418	18.04
642.609	17.89
642.8	17.81
642.99	17.75
643.181	17.62
643.372	17.61
643.562	17.6
643.753	17.63
643.943	17.62
644.134	17.58
644.324	17.54
644.515	17.53
644.705	17.4
644.896	17.34
645.086	17.23
645.277	17.2
645.467	17.16
645.658	17.15
645.848	17.15
646.038	17.2
646.229	17.16
646.419	17.15
646.61	17.14
646.8	17.09
646.99	17.07
647.18	17.03
647.371	16.91
647.561	16.8
647.751	16.72
647.941	16.64
648.132	16.6
648.322	16.63
648.512	16.68
648.702	16.78
648.892	16.65
649.082	16.62
649.272	16.56
649.462	16.48
649.653	16.33
649.843	16.41
650.033	16.27
650.223	16.25
650.413	16.34
650.603	16.34
650.793	16.39
650.983	16.52
651.172	16.55
651.362	16.44
651.552	16.47
651.742	16.33
651.932	16.22
652.122	16.24
652.312	16.24
652.502	16.06
652.691	16.06
652.881	16.12
653.071	16.15
653.261	16.11
653.45	16.08
653.64	16.08
653.83	15.93
654.019	15.68
654.209	15.6
654.399	15.6
654.588	15.41
654.778	15.28
654.968	15.18
655.157	14.98
655.347	14.85
655.536	14.86
655.726	14.72
655.915	14.81
656.105	14.81
656.294	14.68
656.484	14.47
656.673	14.41
656.863	14.1
657.052	13.91
657.241	13.82
657.431	13.74
657.62	13.59
657.809	13.44
657.999	13.36
658.188	13.24
658.377	13.12
658.567	12.97
658.756	12.9
658.945	12.78
659.134	12.53
659.324	12.39
659.513	12.25
659.702	12.1
659.891	11.87
660.08	11.73
660.269	11.54
660.458	11.41
660.648	11.41
660.837	11.37
661.026	11.33
661.215	11.23
661.404	11.1
661.593	10.79
661.782	10.66
661.971	10.54
662.16	10.42
662.349	10.32
662.538	10.22
662.726	10.15
662.915	10.04
663.104	9.98
663.293	9.9
663.482	9.79
663.671	9.61
663.86	9.44
664.048	9.26
664.237	9.01
664.426	8.92
664.615	8.76
664.803	8.65
664.992	8.57
665.181	8.65
665.369	8.65
665.558	8.7
665.747	8.73
665.935	8.63
666.124	8.61
666.312	8.53
666.501	8.45
666.69	8.28
666.878	8.32
667.067	8.08
667.255	8.13
667.444	8.1
667.632	8.18
667.82	8.14
668.009	8.35
668.197	8.24
668.386	8.25
668.574	8.14
668.762	8.05
668.951	8.01
669.139	8.11
669.327	8.11
669.516	8.27
669.704	8.37
669.892	8.37
670.08	8.25
670.269	8.27
670.457	8.25
670.645	8.24
670.833	8.26
671.021	8.27
671.21	8.17
671.398	8.14
671.586	8.1
671.774	8.1
671.962	8.12
672.15	8.26
672.338	8.36
672.526	8.57
672.714	8.62
672.902	8.66
673.09	8.74
673.278	8.77
673.466	8.67
673.654	8.77
673.842	8.92
674.03	9
674.218	9.06
674.405	9.15
674.593	9.12
674.781	9.16
674.969	9.13
675.157	9.06
675.344	9.04
675.532	9.21
675.72	9.21
675.908	9.27
676.095	9.34
676.283	9.5
676.471	9.51
676.658	9.68
676.846	9.68
677.033	9.92
677.221	10.09
677.409	10.28
677.596	10.24
677.784	10.48
677.971	10.43
678.159	10.42
678.346	10.28
678.534	10.36
678.721	10.44
678.909	10.71
679.096	10.79
679.283	11.15
679.471	11.2
679.658	11.16
679.846	11.19
680.033	11.49
680.22	11.48
680.408	11.63
680.595	11.98
680.782	11.97
680.969	11.88
681.157	11.91
681.344	12.04
681.531	12
681.718	12.37
681.905	12.42
682.093	12.55
682.28	12.72
682.467	13.04
682.654	13.09
682.841	13.33
683.028	13.46
683.215	13.54
683.402	13.69
683.589	13.87
683.776	14.23
683.963	14.53
684.15	14.86
684.337	15.02
684.524	15.27
684.711	15.39
684.898	15.58
685.085	15.78
685.271	16.02
685.458	16.26
685.645	16.55
685.832	16.82
686.019	17.17
686.205	17.53
686.392	17.79
686.579	18.16
686.766	18.56
686.952	19.04
687.139	19.32
687.326	19.84
687.512	20.24
687.699	20.54
687.886	20.95
688.072	21.39
688.259	21.73
688.445	22.22
688.632	22.86
688.818	23.36
689.005	23.99
689.191	24.55
689.378	25.2
689.564	25.9
689.751	26.36
689.937	27.02
690.124	27.65
690.31	28.29
690.496	28.93
690.683	29.63
690.869	30.2
691.055	30.89
691.242	31.48
691.428	32.38
691.614	33.06
691.8	33.82
691.987	34.82
692.173	35.58
692.359	36.09
692.545	37.11
692.731	38
692.918	38.64
693.104	39.65
693.29	40.46
693.476	41.1
693.662	41.82
693.848	42.75
694.034	43.34
694.22	44.41
694.406	45.21
694.592	46.04
694.778	46.64
694.964	47.44
695.15	47.95
695.336	48.76
695.522	49.82
695.708	50.92
695.894	51.75
696.08	52.62
696.265	53.48
696.451	54.14
696.637	54.7
696.823	55.41
697.009	56.22
697.194	57.19
697.38	58.16
697.566	58.94
697.751	60
697.937	60.85
698.123	61.45
698.308	61.79
698.494	62.74
698.68	63.29
698.865	63.73
699.051	64.38
699.236	65.02
699.422	65.6
699.607	66.39
699.793	67.13
699.978	67.74
700.164	68.47
700.349	69.07
700.535	69.41
700.72	70.13
700.906	70.82
701.091	71.23
701.276	71.84
701.462	72.75
701.647	73.16
701.832	73.75
702.018	74.63
702.203	75.06
702.388	75.43
702.573	76.06
702.759	76.7
702.944	77.35
703.129	78.17
703.314	78.64
703.499	78.99
703.684	79.33
703.87	79.52
704.055	79.23
704.24	79.55
704.425	80.12
704.61	80.65
704.795	80.96
704.98	81.96
705.165	82.83
705.35	83.35
705.535	83.65
705.72	84.55
705.905	84.93
706.09	85.07
706.275	85.3
706.459	86.29
706.644	86.26
706.829	86.64
707.014	87.58
707.199	87.9
707.384	87.42
707.568	87.93
707.753	88.08
707.938	87.38
708.123	87.88
708.307	88.25
708.492	88.83
708.677	89.12
708.861	90.17
709.046	90.64
709.231	91.09
709.415	91.08
709.6	91.36
709.784	91.4
709.969	91.14
710.153	91.07
710.338	91.24
710.522	91.75
710.707	91.33
710.891	91.98
711.076	92.87
711.26	93.45
711.445	93.8
711.629	94.5
711.813	94.67
711.998	94.78
712.182	94.46
712.366	94.54
712.551	94.63
712.735	95.05
712.919	94.71
713.103	94.5
713.288	93.83
713.472	94.18
713.656	93.92
713.84	94.73
714.024	95.78
714.208	96.82
714.393	97.25
714.577	97.57
714.761	97.52
714.945	97.33
715.129	97.06
715.313	96.81
715.497	97.27
715.681	97.32
715.865	97.82
716.049	98.37
716.233	99.39
716.417	99.17
716.601	99.08
716.785	98.88
716.968	98.88
717.152	98.54
717.336	99.38
717.52	99.71
717.704	99.6
717.888	100.02
718.071	100.17
718.255	99.86
718.439	99.61
718.622	99.59
718.806	99.55
718.99	99.64
719.174	99.53
719.357	99.79
719.541	100.25
719.724	100.3
719.908	100.2
720.092	99.84
720.275	100.19
720.459	100.26
720.642	100.15
720.826	100.7
721.009	101.42
721.193	101.6
721.376	102.34
721.559	102.91
721.743	102.54
721.926	102.44
722.11	102.42
722.293	101.68
722.476	101.71
722.66	102.02
722.843	102.27
723.026	102.39
723.21	103.48
723.393	102.79
723.576	103.2
723.759	103.21
723.942	103.48
724.126	103.09
724.309	104.13
724.492	103.78
724.675	104.47
724.858	104.41
725.041	104.19
725.224	104.26
725.407	104.1
725.59	104.24
725.774	104.95
725.957	105.59
726.14	106.07
726.322	106.1
726.505	106.02
726.688	105.73
726.871	105.78
727.054	105.59
727.237	106.12
727.42	105.87
727.603	105.84
727.786	105.73
727.968	104.92
728.151	104.77
728.334	104.51
728.517	105.17
728.699	105.51
728.882	105.89
729.065	106.35
729.248	106.93
729.43	106.76
729.613	106.96
729.796	106.93
729.978	108.18
730.161	107.63
730.343	107.53
730.526	108.22
730.708	108.7
730.891	108.32
731.073	108.8
731.256	109.95
731.438	109.21
731.621	109.5
731.803	109.16
731.986	110.28
732.168	109.72
732.35	109.13
732.533	108.9
732.715	108.64
732.898	107.72
733.08	107.78
733.262	108.13
733.444	108.05
733.627	108.67
733.809	109.41
733.991	109.73
734.173	110.24
734.355	110.95
734.538	110.28
734.72	110.07
734.902	110.73
735.084	111.3
735.266	110.96
735.448	111.43
735.63	111.68
735.812	111.09
735.994	110.43
736.176	110.66
736.358	111.57
736.54	111.56
736.722	111.99
736.904	113.05
737.086	112.57
737.268	111.71
737.45	111.43
737.632	110.33
737.814	109.4
737.995	110.19
738.177	109.93
738.359	110.22
738.541	110.35
738.723	110.32
738.904	110.66
739.086	110.75
739.268	111.16
739.449	111.22
739.631	111.11
739.813	111.28
739.994	111.3
740.176	110.5
740.358	110.75
740.539	112.01
740.721	111.7
740.902	111.41
741.084	111.06
741.265	111.49
741.447	110.36
741.628	110.21
741.81	110.22
741.991	111.28
742.172	111.14
742.354	112.73
742.535	112.86
742.717	113.83
742.898	113.8
743.079	112.52
743.261	111.05
743.442	110.74
743.623	109.71
743.804	109.03
743.986	109.78
744.167	109.23
744.348	108.98
744.529	109.81
744.71	110.57
744.891	110.79
745.073	111.91
745.254	113.21
745.435	113.22
745.616	112.09
745.797	112.18
745.978	111.53
746.159	111.48
746.34	111.19
746.521	112.23
746.702	111.85
746.883	112.83
747.064	111.06
747.245	112.11
747.426	111.91
747.606	111.65
747.787	111.71
747.968	112.85
748.149	112.44
748.33	112.26
748.51	113.23
748.691	112.16
748.872	110.81
749.053	110.48
749.233	110.84
749.414	109.22
749.595	109.78
749.775	112.04
749.956	112.25
750.137	111.38
750.317	112.14
750.498	113.46
750.678	113.66
750.859	112.24
751.04	113.1
751.22	113.02
751.4	112.12
751.581	110.84
751.761	112.28
751.942	112.42
752.122	113.15
752.303	112.15
752.483	111.58
752.663	110.64
752.844	109.69
753.024	109.26
753.204	109.28
753.385	109.58
753.565	111.13
753.745	112.33
753.925	110.73
754.106	112.07
754.286	111.48
754.466	110.07
754.646	109.9
754.826	111.73
755.006	111.65
755.187	112.59
755.367	112.09
755.547	111.36
755.727	110.83
755.907	108.74
756.087	108.28
756.267	108.91
756.447	109.17
756.627	109.31
756.807	108.88
756.987	107.2
757.167	107.34
757.346	106.96
757.526	106.03
757.706	106.45
757.886	107.52
758.066	107.44
758.246	108.12
758.425	108.65
758.605	111.66
758.785	112.21
758.965	113.1
759.144	112.96
759.324	112.46
759.504	109.67
759.683	109.73
759.863	109.07
760.043	108.29
760.222	109.7
760.402	109.33
760.581	110.2
760.761	109
760.94	110.21
761.12	109.78
761.299	109.71
761.479	109.36
761.658	108.68
761.838	108.08
762.017	109.38
762.197	110.49
762.376	109.55
762.555	108.85
762.735	109.06
762.914	106.02
763.093	104.99
763.273	104.8
763.452	105.26
763.631	101.98
763.81	102.59
763.99	104.64
764.169	105.14
764.348	106.99
764.527	109.11
764.706	107.7
764.885	106.04
765.064	106.39
765.243	105.47
765.423	106.91
765.602	109.11
765.781	111.41
765.96	110.32
766.139	109.87
766.318	108.09
766.497	107.65
766.676	106.12
766.854	106.52
767.033	106.94
767.212	107.73
767.391	106.96
767.57	107.6
767.749	105.77
767.928	106.57
768.106	107.72
768.285	108.02
768.464	105.92
768.643	108.31
768.821	107.41
769	106.18
769.179	107.79
769.357	109.67
769.536	108.6
769.715	108.94
769.893	110.34
770.072	106.88
770.25	106.39
770.429	107.27
770.607	106.92
770.786	104.73
770.964	105.76
771.143	104.28
771.321	103.27
771.5	105.47
771.678	106.12
771.857	108.38
772.035	110.4
772.213	111.24
772.392	108.63
772.57	106.4
772.748	105.3
772.927	105.62
773.105	104.08
773.283	104.06
773.461	106.27
773.64	106
773.818	105.42
773.996	103.77
774.174	103.46
774.352	102.09
774.531	103.54
774.709	102.29
774.887	106.29
775.065	106.26
775.243	106.7
775.421	105.17
775.599	104.08
775.777	102.9
775.955	102.43
776.133	104.18
776.311	103.66
776.489	103.03
776.667	101.59
776.844	101.48
777.022	100.67
777.2	99.56
777.378	100.16
777.556	100.95
777.734	98.84
777.911	98.82
778.089	100.68
778.267	99.39
778.445	97.44
778.622	99.4
778.8	100.99
778.978	99.97
779.155	101.6
779.333	102.1
779.511	101.71
779.688	99.4
779.866	96.49
780.043	97.15
780.221	98.12
780.398	97.91
780.576	99.72
780.753	102.21
780.931	99.7
781.108	100.7
781.286	101.07
781.463	99.61
781.64	102.02
781.818	104.75
781.995	103.07
782.172	103.41
782.35	105.39
782.527	104.53
782.704	102.51
782.882	104.21
783.059	103.96
783.236	100.48
783.413	99.3
783.59	100.28
783.768	99.23
783.945	102.48
784.122	103.91
784.299	106.96
784.476	105.18
784.653	104.42
784.83	101.69
785.007	100.02
785.184	95.92
785.361	97.59
785.538	96.8
785.715	96.15
785.892	94.92
786.069	95.4
786.246	94.19
786.423	97.08
786.6	98.44
786.776	102.2
786.953	101.87
787.13	103.75
787.307	99.43
787.484	101.82
787.66	100.16
787.837	98.45
788.014	99.63
788.191	100.35
788.367	100.54
788.544	102.19
788.721	103.66
788.897	100.12
789.074	101.8
789.25	97.85
789.427	94.18
789.603	93.13
789.78	92.22
789.956	89.53
790.133	89.09
790.309	92.58
790.486	89.53
790.662	92.17
790.839	94.73
791.015	93.8
791.192	93.14
791.368	100.73
791.544	99.08
791.721	99.92
791.897	101.15
792.073	102.28
792.249	95.98
792.426	96.97
792.602	96
792.778	93.81
792.954	89.85
793.13	93.03
793.307	95.38
793.483	92.23
793.659	96.01
793.835	94.21
794.011	96.89
794.187	94.85
794.363	96.96
794.539	89.71
794.715	93.23
794.891	97.1
795.067	93.44
795.243	90.79
795.419	95.35
795.595	93.11
795.771	89.63
795.947	90.72
796.122	92.12
796.298	93.48
796.474	96.05
796.65	92.06
796.826	94.77
797.001	99.84
797.177	97.38
797.353	93.29
797.529	97.87
797.704	96.23
797.88	89
798.056	90.04
798.231	94.14
798.407	87.23
798.582	86.65
798.758	87.72
798.934	87.09
799.109	84.8
799.285	87.75
799.46	88.22
799.636	90.56
799.811	87.58
799.986	83.35
800.162	78.47
800.337	79.53
800.513	78.8
800.688	80.58
800.863	84.97
801.039	89.29
801.214	89.16
801.389	90.72
801.565	87.7
801.74	91.89
801.915	95.34
802.09	94.83
802.265	93.26
802.441	91.76
802.616	86.88
802.791	86.46
802.966	89.36
803.141	85.96
803.316	91.34
803.491	91.65
803.666	84.03
803.841	78.84
804.016	81.01
804.191	81.94
804.366	89.66
804.541	90.33
804.716	93.47
804.891	100.44
805.066	106.22
805.241	98.75
805.416	98.43
805.591	91.78
805.765	85.54
805.94	77.34
806.115	74.49
806.29	80.06
806.464	90.17
806.639	89.98
806.814	81.34
806.989	81.85
807.163	79.22
807.338	71.54
807.512	69.16
807.687	74.58
807.862	68.77
808.036	66.87
808.211	66.29
808.385	64.61
808.56	67.44
808.734	69.39
808.909	72.14
809.083	73.63
809.258	78.27
809.432	80.15
809.606	80.31
809.781	68.42
809.955	71.75
810.13	74.69
810.304	72.53
810.478	78.71
810.652	91.18
810.827	95.38
811.001	97.17
811.175	101.15
811.349	103.56
811.524	91.94
811.698	84.81
811.872	82.1
812.046	74.87
812.22	67.53
812.394	78.98
812.568	85.51
812.742	86.08
812.916	88.01
813.09	89.92
813.264	88.87
813.438	90.89
813.612	93.36
813.786	84.47
813.96	87.83
814.134	84.93
814.308	79.25
814.482	75.67
814.656	84.33
814.83	81.3
815.003	79.41
815.177	79.26
815.351	80.93
815.525	81.17
815.698	81.52
815.872	81.13
816.046	91.66
816.219	91.38
816.393	96.75
816.567	96.62
816.74	92.06
816.914	80.43
817.088	80.94
817.261	82.81
817.435	89.43
817.608	92.69
817.782	93.14
817.955	100.08
818.129	92.51
818.302	84.62
818.475	89.61
818.649	95.25
818.822	83.83
818.996	75.53
819.169	79.88
819.342	75.66
819.516	65.55
819.689	70.49
819.862	79.06
820.035	68.43
820.209	64.98
820.382	71.01
820.555	70.94
820.728	69.07
820.901	63.19
821.075	67.95
821.248	82.37
821.421	80
821.594	77.82
821.767	91.93
821.94	94.29
822.113	73.96
822.286	74.78
822.459	85.61
822.632	88.25
822.805	90.73
822.978	92.41
823.151	96.72
823.324	85.7
823.496	78.88
823.669	70.6
823.842	71
824.015	65.13
824.188	51.64
824.361	59.16
824.533	61.16
824.706	53.63
824.879	65.21
825.051	80.68
825.224	82.32
825.397	84.64
825.569	92.39
825.742	90.27
825.915	78.59
826.087	72.53
826.26	58.7
826.432	69.88
826.605	60.6
826.777	71.25
826.95	70.38
827.122	77.01
827.295	60.91
827.467	59.35
827.64	48.16
827.812	46.81
827.984	47.39
828.157	50.85
828.329	61.11
828.501	84.25
828.674	77.22
828.846	71.52
829.018	79.31
829.19	69.45
829.363	56.66
829.535	59.54
829.707	63.69
829.879	52.73
830.051	56.93
830.223	74.56
830.395	73.07
830.568	65.92
830.74	78.9
830.912	76.28
831.084	68.09
831.256	57.61
831.428	67.4
831.6	69.38
831.772	77.28
831.943	74.84
832.115	84.96
832.287	85.02
832.459	75.48
832.631	71.01
832.803	82.58
832.975	95.98
833.146	88.01
833.318	103.67
833.49	106.53
833.662	94.84
833.833	76.42
834.005	86.33
834.177	80.82
834.348	63.91
834.52	59.92
834.692	49.38
834.863	38.82
835.035	40.08
835.206	64.76
835.378	54.72
835.549	69.07
835.721	73.31
835.892	79.05
836.064	92.08
836.235	109.11
836.407	101.36
836.578	87.14
836.749	68.88
836.921	47.21
837.092	47.05
837.264	47.33
837.435	58.96
837.606	60.53
837.777	64.35
837.949	70.69
838.12	80.35
838.291	85.34
838.462	100.33
838.633	141.97
838.805	113.86
838.976	112.04
839.147	97.66
839.318	81.54
839.489	45.11
839.66	56.5
839.831	60.51
840.002	42.34
840.173	37.22
840.344	102.13
840.515	119.93
840.686	89.02
840.857	103.66
841.028	108.1
841.199	80.87
841.369	41.61
841.54	49.98
841.711	31.83
841.882	27.85
842.053	37.46
842.223	73.24
842.394	78.98
842.565	89.14
842.736	106.25
842.906	151.6
843.077	75.87
843.248	135.65
843.418	138.87
843.589	101.46
843.759	97.2
843.93	106.18
844.101	91.38
844.271	76.75
844.442	76.06
844.612	82.23
844.783	64.39
844.953	69.1
845.123	65.3
845.294	62.69
845.464	64.82
845.635	82.13
845.805	112.23
845.975	137.92
846.146	166.65
846.316	144.54
846.486	150.04
846.656	97.55
846.827	86.55
846.997	64.59
847.167	40.07
847.337	44.53
847.507	35.26
847.677	23.74
847.848	39.93
848.018	80
848.188	79.41
848.358	86.11
848.528	125.31
848.698	148.18
848.868	124.31
849.038	106.67
849.208	70.61
849.378	61.19
849.548	36.44
849.718	56.15
849.887	62.27
850.057	77.28
850.227	58.19
850.397	54.99
850.567	48.97
850.737	55.28
850.906	51.81
851.076	59.8
851.246	63.07
851.415	61.76
851.585	69.08
851.755	69.42
851.924	80.55
852.094	90.18
852.264	88.62
852.433	75.7
852.603	80.41
852.772	72.78
852.942	85.12
853.111	85.76
853.281	94.42
853.45	79.38
853.62	51.17
853.789	25.97
853.959	51.96
854.128	46.7
854.297	69.33
854.467	138.25
854.636	186.64
854.805	120.13
854.975	117.17
855.144	78.46
855.313	69.17
855.482	61.82
855.652	51.3
855.821	66.72
855.99	66.8
856.159	68.45
856.328	56.39
856.497	66.98
856.667	68.42
856.836	128.41
857.005	134.79
857.174	119.85
857.343	137.77
857.512	155.13
857.681	86.02
857.85	56.89
858.019	34.43
858.188	18.03
858.356	21.41
858.525	57.25
858.694	60.92
858.863	59.69
859.032	61
859.201	53.82
859.369	47.6
859.538	58.17
859.707	82.99
859.876	105.45
860.044	66.9
860.213	69.68
860.382	64.44
860.55	59.71
860.719	49.57
860.888	103.91
861.056	93.31
861.225	104.16
861.393	86.08
861.562	101.1
861.73	96.9
861.899	79.32
862.067	61.39
862.236	66.03
862.404	55.36
862.572	41.34
862.741	40.51
862.909	54.09
863.078	54.16
863.246	47.49
863.414	63.92
863.582	93.46
863.751	75.71
863.919	82.08
864.087	117.25
864.255	99.11
864.424	88.49
864.592	90.72
864.76	103.77
864.928	87.91
865.096	69.09
865.264	61.07
865.432	61.57
865.6	32.79
865.768	35.57
865.936	29.17
866.104	51.59
866.272	64.66
866.44	82.42
866.608	56.81
866.776	56.97
866.944	46.93
867.112	49.23
867.28	49.4
867.448	80.05
867.615	76.06
867.783	104.62
867.951	79.86
868.119	97.04
868.286	89.33
868.454	93.23
868.622	77.52
868.789	99.17
868.957	74.52
869.125	70.63
869.292	60.16
869.46	51.89
869.627	59.26
869.795	75.1
869.963	73.9
870.13	65.16
870.298	58.45
870.465	42.58
870.632	7.41
870.8	-9.54
870.967	11.01
871.135	15.42
871.302	-13.84
871.469	52.92
871.637	81.52
871.804	62.71
871.971	65.36
872.139	76.83
872.306	25.35
872.473	40.02
872.64	65.87
872.807	52.82
872.975	27.98
873.142	56.35
873.309	38.92
873.476	44.05
873.643	51.69
873.81	88.78
873.977	66.49
874.144	68.85
874.311	59.03
874.478	74.21
874.645	67.32
874.812	75.53
874.979	76.37
875.146	72.05
875.313	42.79
875.48	35.23
875.647	61.92
875.813	53.39
875.98	61.23
876.147	48.31
876.314	66.2
876.481	65.46
876.647	64.78
876.814	92.31
876.981	112.2
877.147	95.35
877.314	63.94
877.481	53.27
877.647	9.49
877.814	7.76
877.98	26.07
878.147	13.54
878.314	32.84
878.48	54.94
878.647	27.28
878.813	-10.25
878.979	-1.56
879.146	26.28
879.312	8.74
879.479	65.47
879.645	98.22
879.811	104.29
879.978	52.58
880.144	59.31
880.31	37.69
880.477	39.41
880.643	43.18
880.809	73.28
880.975	69.01
881.142	75.85
881.308	50.39
881.474	127.89
881.64	-19.95
881.806	-124.08
881.972	59.57
882.138	92.85
882.304	42.23
882.47	48
882.636	57.35
882.802	54.22
882.968	44.97
883.134	49.77
883.3	69.56
883.466	90.62
883.632	105.05
883.798	121.55
883.964	177.08
884.129	216.22
884.295	77.8
884.461	90.32
884.627	89.7
884.793	105.23
884.958	90.58
885.124	92.36
885.29	75.34
885.455	75.94
885.621	64.16
885.787	45.98
885.952	53.3
886.118	63.59
886.283	66.23
886.449	65.79
886.614	76.86
886.78	79.59
886.945	93.83
887.111	72.45
887.276	76.86
887.442	65.81
887.607	77.59
887.773	29.34
887.938	37.88
888.103	-17.11
888.269	16.65
888.434	20.67
888.599	24.03
888.764	28.81
888.93	59.04
889.095	55.89
889.26	62.68
889.425	64.69
889.59	66.9
889.756	50.69
889.921	38.5
890.086	28.81
890.251	26.47
890.416	16.48
890.581	6.4
890.746	53.2
890.911	63.35
891.076	80.61
891.241	82.73
891.406	98.35
891.571	68.01
891.736	51.59
891.901	69.22
892.065	107.68
892.23	98.74
892.395	106.59
892.56	138.37
892.725	80.88
892.889	27.28
893.054	45.76
893.219	36.63
893.384	35.26
893.548	35.81
893.713	24.69
893.878	-13.84
