Data from Ofav_PP_Phys_360_Reflection_1.txt Node
Date: Tue Jul 27 19:08:42 EDT 2021
User: USUARIO
Spectrometer: FLMT01687
Trigger mode: 0
Integration Time (sec): 8.500000E-1
Scans to average: 2
Electric dark correction enabled: true
Nonlinearity correction enabled: false
Boxcar width: 2
XAxis mode: Wavelengths
Number of Pixels in Spectrum: 3648
>>>>>Begin Spectral Data<<<<<
179.494	-1374.07
179.716	-472.04
179.937	-365.5
180.158	-343.28
180.38	-482.29
180.601	-566.43
180.823	177.13
181.044	126.07
181.265	54.34
181.486	-23.18
181.708	-88.68
181.929	144.19
182.15	135.56
182.372	182.56
182.593	97.3
182.814	68.99
183.035	83.71
183.257	81.55
183.478	71.26
183.699	77.64
183.92	95.67
184.141	65.23
184.363	76.6
184.584	71.3
184.805	58.3
185.026	44.54
185.247	50.23
185.468	26.94
185.689	8.47
185.91	-4.61
186.132	-31.81
186.353	-25.86
186.574	-25.02
186.795	-19.92
187.016	5.34
187.237	17.45
187.458	24.82
187.679	46.59
187.9	28.07
188.121	27.32
188.342	46.37
188.563	67.09
188.784	73.24
189.005	74.98
189.226	62.49
189.447	54.46
189.667	57.57
189.888	51.52
190.109	65.81
190.33	81.81
190.551	59.32
190.772	60.67
190.993	48.48
191.214	34.77
191.434	43.12
191.655	57.71
191.876	42.29
192.097	43.49
192.318	53.43
192.538	51.7
192.759	53.46
192.98	63.81
193.201	70.19
193.421	95.31
193.642	62.88
193.863	48.11
194.083	45.91
194.304	17.75
194.525	-11.05
194.745	-43.04
194.966	-84.65
195.187	-105.19
195.407	-34.5
195.628	-9
195.848	48.33
196.069	68.31
196.29	113.83
196.51	76.82
196.731	69.71
196.951	36.79
197.172	29.29
197.392	36.12
197.613	51.01
197.833	32.47
198.054	44.22
198.274	23.6
198.495	24.22
198.715	-14.72
198.936	-1.9
199.156	-4.89
199.377	34.59
199.597	3.73
199.817	31.06
200.038	-18.5
200.258	38.68
200.479	10.09
200.699	3.07
200.919	-8.71
201.14	10.01
201.36	-9.87
201.58	12.11
201.801	13.26
202.021	16.05
202.241	17.94
202.461	20.82
202.682	6.49
202.902	30.07
203.122	63.03
203.342	55.01
203.563	65.93
203.783	71.2
204.003	38.51
204.223	18.24
204.443	-4.29
204.663	-72.48
204.884	-54.01
205.104	-9.75
205.324	6.94
205.544	31.16
205.764	35.01
205.984	32.67
206.204	17.98
206.424	-10.41
206.644	7.9
206.864	20.09
207.084	21.05
207.304	41.95
207.525	50.49
207.745	64.87
207.964	76.18
208.184	78.08
208.404	51.29
208.624	55.93
208.844	56.04
209.064	47.72
209.284	32.02
209.504	39.56
209.724	29.37
209.944	-52.45
210.164	-127.5
210.384	-118.3
210.604	-119.49
210.823	-21.61
211.043	12.81
211.263	21.39
211.483	20.22
211.703	23.35
211.922	-0.25
212.142	20.15
212.362	38.58
212.582	36.69
212.801	41.41
213.021	37.4
213.241	7.89
213.461	-36.22
213.68	-13.63
213.9	-28.48
214.12	8.86
214.339	21.58
214.559	41.13
214.779	36.98
214.998	24.61
215.218	0.02
215.438	12.1
215.657	9.32
215.877	4.56
216.096	9.68
216.316	31.55
216.535	6.39
216.755	10.45
216.974	35.02
217.194	49.56
217.413	43.89
217.633	63.95
217.852	49.64
218.072	22.23
218.291	1.18
218.511	-6.08
218.73	1.1
218.95	-2.11
219.169	15.38
219.389	5.14
219.608	16.8
219.827	0.59
220.047	6.82
220.266	38.5
220.485	54.52
220.705	42.69
220.924	51.87
221.143	43.27
221.363	17.71
221.582	12.89
221.801	25.25
222.021	41.35
222.24	41.84
222.459	49.65
222.678	67.43
222.897	55.3
223.117	48.51
223.336	51.02
223.555	33.21
223.774	4.94
223.993	-4.82
224.213	-34.57
224.432	-24.51
224.651	13.93
224.87	19.74
225.089	31.54
225.308	32.87
225.527	44.51
225.746	25.27
225.965	55.44
226.184	33.12
226.404	38.36
226.623	24.47
226.842	23.45
227.061	-12.55
227.28	7.41
227.499	16.8
227.718	8.43
227.936	0.64
228.155	24.49
228.374	32.07
228.593	31.91
228.812	25.67
229.031	25.91
229.25	15.23
229.469	-6.63
229.688	-25.53
229.907	-34.21
230.125	1.45
230.344	19.23
230.563	32.18
230.782	41.46
231.001	51.62
231.22	48.92
231.438	33.98
231.657	9.58
231.876	-9.75
232.095	-0.63
232.313	5.72
232.532	9.05
232.751	38.75
232.969	54.97
233.188	68.89
233.407	54.34
233.625	63.91
233.844	50.26
234.063	57.38
234.281	46.83
234.5	37.64
234.719	49.67
234.937	32.94
235.156	28.48
235.374	19.82
235.593	29.04
235.811	14.37
236.03	31.76
236.249	25.21
236.467	47.54
236.686	33.33
236.904	54.24
237.123	39.79
237.341	39.26
237.559	35.37
237.778	43.59
237.996	21.98
238.215	20.01
238.433	24.94
238.652	13.78
238.87	17.09
239.088	16.43
239.307	26.99
239.525	15.43
239.743	16.67
239.962	6.6
240.18	19.28
240.398	30.73
240.617	38.49
240.835	45.55
241.053	51.15
241.271	38.74
241.49	28.67
241.708	39.34
241.926	26.3
242.144	16.59
242.363	15.21
242.581	27.82
242.799	-2.04
243.017	-8.05
243.235	-3.88
243.453	-7.23
243.672	18.38
243.89	36.05
244.108	59.57
244.326	68.06
244.544	56.4
244.762	36.19
244.98	53.88
245.198	41.39
245.416	23.13
245.634	46.08
245.852	68.61
246.07	50.74
246.288	38.37
246.506	45.97
246.724	35.65
246.942	26.96
247.16	23.93
247.378	34.15
247.596	33.24
247.814	36.56
248.032	24.24
248.25	27.58
248.468	19.47
248.685	17.49
248.903	9.32
249.121	27.97
249.339	10.57
249.557	27.87
249.775	3.25
249.992	2
250.21	-2.96
250.428	5.65
250.646	-19.83
250.863	7.79
251.081	21.17
251.299	29.15
251.517	29.33
251.734	55.09
251.952	30.43
252.17	51.9
252.387	31.7
252.605	46.66
252.823	45.09
253.04	65.87
253.258	53.33
253.475	58.55
253.693	54.96
253.911	63.69
254.128	64.06
254.346	64.91
254.563	63.89
254.781	49.91
254.998	30.11
255.216	-4.34
255.433	-8.53
255.651	-6.37
255.868	-15.2
256.086	-12.52
256.303	-5.52
256.521	14.82
256.738	14.18
256.956	25.35
257.173	36.67
257.39	45.44
257.608	48.28
257.825	63.09
258.043	55.37
258.26	56.31
258.477	48.69
258.695	40.84
258.912	20.03
259.129	25.14
259.346	18.94
259.564	38.42
259.781	63.66
259.998	57.54
260.216	67.31
260.433	61.64
260.65	49.86
260.867	21.42
261.084	28.92
261.302	-0.4
261.519	10.58
261.736	-1.16
261.953	10.28
262.17	11.43
262.387	16.29
262.604	31.08
262.822	41.29
263.039	45.02
263.256	46.72
263.473	59.67
263.69	49.28
263.907	37.39
264.124	34.54
264.341	33.27
264.558	28.02
264.775	29.63
264.992	49.26
265.209	49.99
265.426	58.54
265.643	68.23
265.86	42.68
266.077	35.37
266.294	33.94
266.51	30.18
266.727	31.49
266.944	43.13
267.161	3.21
267.378	-18.59
267.595	-4.15
267.812	-6.37
268.028	-16.29
268.245	49.56
268.462	76.78
268.679	43.09
268.896	32.57
269.112	17.74
269.329	2.44
269.546	10.45
269.763	-2.47
269.979	-0.99
270.196	15.24
270.413	30.69
270.629	31.96
270.846	61.96
271.063	56.28
271.279	62.63
271.496	53.79
271.712	24.62
271.929	4.83
272.146	-11.38
272.362	-3.75
272.579	-5.86
272.795	17.09
273.012	23.79
273.228	27.76
273.445	33.86
273.661	40.3
273.878	29.82
274.094	20.51
274.311	33.66
274.527	36.08
274.744	41.24
274.96	48.8
275.177	42.95
275.393	35.34
275.609	27.04
275.826	18.41
276.042	28.18
276.259	45.2
276.475	35.12
276.691	36.05
276.908	38.14
277.124	24.71
277.34	28.61
277.557	23.82
277.773	36.33
277.989	37.61
278.205	44.89
278.422	48.29
278.638	48.83
278.854	38.68
279.07	35.23
279.286	33.01
279.503	18.63
279.719	35.78
279.935	44.96
280.151	49.29
280.367	49.48
280.583	60.54
280.799	59.55
281.016	58.08
281.232	53.19
281.448	56.22
281.664	47.89
281.88	44.98
282.096	34.43
282.312	45.56
282.528	43.97
282.744	44.61
282.96	40.83
283.176	70.06
283.392	71.34
283.608	76.2
283.824	66.38
284.04	39.56
284.256	23.11
284.471	14.68
284.687	6.23
284.903	10.7
285.119	28.33
285.335	30.23
285.551	25.66
285.767	35.42
285.982	20.55
286.198	28.68
286.414	14.4
286.63	33.04
286.846	20.51
287.061	29.83
287.277	17.28
287.493	14.47
287.709	4.74
287.924	16.24
288.14	24.61
288.356	55.6
288.571	68.3
288.787	68.97
289.003	56.47
289.218	47.23
289.434	28.14
289.65	33.21
289.865	13.61
290.081	21.81
290.296	5.47
290.512	16.1
290.727	20.78
290.943	40.78
291.159	87
291.374	100.5
291.59	63.11
291.805	59.29
292.021	31.91
292.236	22.16
292.451	19.35
292.667	25.07
292.882	23.08
293.098	18.43
293.313	23.06
293.529	40.67
293.744	33.33
293.959	30.27
294.175	50.47
294.39	33.59
294.605	31.46
294.821	32.24
295.036	27.5
295.251	10.01
295.467	12.05
295.682	-14.29
295.897	8.33
296.112	21.75
296.328	32.05
296.543	41.11
296.758	44.02
296.973	32.52
297.188	42.4
297.404	40.94
297.619	38.48
297.834	43.73
298.049	46.14
298.264	37.78
298.479	39.53
298.694	48.69
298.909	38.92
299.125	41.14
299.34	24.47
299.555	28.9
299.77	20.61
299.985	24.74
300.2	18.4
300.415	34.99
300.63	26.07
300.845	29.26
301.06	37.42
301.275	38.51
301.49	24.74
301.704	24.51
301.919	28.72
302.134	17.69
302.349	27.3
302.564	30.71
302.779	16.12
302.994	13.22
303.209	21.26
303.423	11.31
303.638	-1.37
303.853	19.77
304.068	30.91
304.283	40.46
304.497	29.94
304.712	46.42
304.927	41.43
305.142	30.97
305.356	9.85
305.571	28.86
305.786	9.47
306	27.2
306.215	19.08
306.43	24.23
306.644	41.69
306.859	59.14
307.074	56.42
307.288	59.85
307.503	54.49
307.717	34.71
307.932	18.38
308.147	35.71
308.361	33.87
308.576	32.84
308.79	31.63
309.005	37.13
309.219	-2.44
309.434	10.87
309.648	14.57
309.863	18.77
310.077	22.19
310.292	34.23
310.506	29.99
310.72	39.08
310.935	51.21
311.149	45.85
311.364	31.06
311.578	37.42
311.792	39.19
312.007	31.3
312.221	37.12
312.435	44.63
312.649	40.95
312.864	24.58
313.078	5.47
313.292	21.91
313.507	21.51
313.721	48.28
313.935	44.62
314.149	45.44
314.363	38.64
314.578	40.54
314.792	27.86
315.006	35.83
315.22	31.88
315.434	20.22
315.648	7.01
315.862	-2.74
316.077	-18.17
316.291	-4.76
316.505	-7.27
316.719	6.87
316.933	25
317.147	15.34
317.361	20.83
317.575	30.86
317.789	22.56
318.003	8.47
318.217	37.43
318.431	26.42
318.645	23.48
318.859	25.05
319.073	8.37
319.287	-6.46
319.5	-8.25
319.714	-2.33
319.928	5.86
320.142	18.75
320.356	24.35
320.57	38.34
320.784	40.22
320.997	51.86
321.211	56.86
321.425	55.27
321.639	32.75
321.853	34.02
322.066	28.12
322.28	12.56
322.494	24.5
322.707	32.44
322.921	34.23
323.135	27.57
323.349	31.79
323.562	28.54
323.776	27.36
323.989	5.57
324.203	3.33
324.417	0.42
324.63	19.39
324.844	30.98
325.057	36.4
325.271	38.27
325.485	48.71
325.698	44.57
325.912	36.17
326.125	52.98
326.339	50.21
326.552	39.08
326.766	22.03
326.979	30.73
327.193	14.03
327.406	21.61
327.619	23.95
327.833	29.63
328.046	25.85
328.26	31.82
328.473	22.36
328.686	28.03
328.9	30.16
329.113	33.56
329.326	22.07
329.54	43.15
329.753	42.55
329.966	32.63
330.179	22.33
330.393	45.45
330.606	21.66
330.819	25.18
331.032	16.14
331.246	31.8
331.459	23.73
331.672	17.97
331.885	21.03
332.098	53.14
332.311	57.02
332.525	64.64
332.738	59.05
332.951	64.79
333.164	43.36
333.377	20.83
333.59	17.26
333.803	26.32
334.016	15.48
334.229	13.22
334.442	26.08
334.655	30.01
334.868	36.89
335.081	41.96
335.294	61.35
335.507	71.77
335.72	77.37
335.933	56.64
336.146	50.59
336.359	29.16
336.572	30.48
336.785	19.88
336.997	22.62
337.21	35.56
337.423	36.26
337.636	9.52
337.849	3.13
338.062	16.25
338.274	14.03
338.487	27.02
338.7	29.59
338.913	40.13
339.125	29.67
339.338	15.02
339.551	-5.63
339.763	15.71
339.976	14.7
340.189	16.88
340.402	25.68
340.614	39.35
340.827	35.66
341.039	25.82
341.252	30.89
341.465	5.98
341.677	22.13
341.89	11.85
342.102	31.44
342.315	21.03
342.527	31.11
342.74	15.1
342.952	6.2
343.165	8.87
343.377	19.84
343.59	14.98
343.802	20.49
344.015	19.74
344.227	1.77
344.44	-34.68
344.652	-0.71
344.864	1.81
345.077	21.83
345.289	25.08
345.502	37.14
345.714	22.95
345.926	29.72
346.139	28.15
346.351	22.97
346.563	24.32
346.775	27.67
346.988	12.21
347.2	10.52
347.412	23.46
347.624	18.27
347.837	-0.96
348.049	8.56
348.261	10.75
348.473	2.07
348.685	14.61
348.897	28.1
349.11	20.93
349.322	17.92
349.534	26.34
349.746	14.86
349.958	34.63
350.17	47.35
350.382	43.55
350.594	33.77
350.806	49.08
351.018	31.48
351.23	19.26
351.442	9.84
351.654	39.89
351.866	24.66
352.078	26.45
352.29	34.94
352.502	50.84
352.714	39.11
352.926	50.14
353.138	52.07
353.35	44.52
353.561	34.28
353.773	33.56
353.985	21.83
354.197	18.32
354.409	21.39
354.621	20.38
354.832	20.27
355.044	18.3
355.256	26.4
355.468	33.33
355.679	39.31
355.891	53.93
356.103	72.84
356.314	79.13
356.526	72.66
356.738	74.87
356.949	52.06
357.161	38.43
357.373	22.41
357.584	14.04
357.796	16.81
358.008	19.44
358.219	25.06
358.431	28.04
358.642	40.54
358.854	45.28
359.065	44.85
359.277	47.33
359.488	45.93
359.7	44.29
359.911	34.52
360.123	37.76
360.334	28.34
360.546	10.9
360.757	11.18
360.969	3.23
361.18	5.15
361.391	-0.7
361.603	13.52
361.814	11.21
362.025	34.32
362.237	34.43
362.448	48.72
362.659	46
362.871	48.03
363.082	32.54
363.293	23.54
363.504	21.66
363.716	14.19
363.927	2.34
364.138	10.65
364.349	9.77
364.56	-6.78
364.772	18.29
364.983	30.63
365.194	21.91
365.405	24.19
365.616	20.91
365.827	13.11
366.038	19.06
366.25	23.49
366.461	26.64
366.672	36.63
366.883	29.71
367.094	20.95
367.305	18
367.516	13.47
367.727	20.48
367.938	30.72
368.149	26.13
368.36	28
368.571	23.44
368.781	33.59
368.992	17.96
369.203	8
369.414	12.48
369.625	21.65
369.836	10.89
370.047	18.48
370.258	28.13
370.468	21.01
370.679	20.9
370.89	15.13
371.101	15.76
371.312	15.64
371.522	17.37
371.733	25.06
371.944	25.71
372.155	23.7
372.365	8.08
372.576	13.99
372.787	12.81
372.997	27.99
373.208	29.87
373.419	42.29
373.629	44.06
373.84	33.54
374.05	23.44
374.261	20
374.472	22.93
374.682	18.32
374.893	32.72
375.103	29.73
375.314	39.3
375.524	52.09
375.735	48.06
375.945	33.47
376.156	43.64
376.366	44.18
376.577	23.1
376.787	24.78
376.997	32.68
377.208	31.72
377.418	31
377.629	45.39
377.839	54.36
378.049	50.65
378.26	43.44
378.47	39.16
378.68	36.97
378.89	32.68
379.101	23.45
379.311	20.17
379.521	26.89
379.732	18.95
379.942	21.92
380.152	24.84
380.362	43.94
380.572	36.64
380.783	40.86
380.993	37.84
381.203	32.07
381.413	8.8
381.623	14.59
381.833	6.36
382.043	12.67
382.253	14.51
382.463	17.35
382.674	19.26
382.884	19.76
383.094	11.18
383.304	19.66
383.514	23.83
383.724	9.89
383.934	18.51
384.144	13.45
384.353	12.63
384.563	17.98
384.773	23.67
384.983	14.16
385.193	18.98
385.403	15.97
385.613	9.6
385.823	7.08
386.033	8.53
386.242	13.45
386.452	11.23
386.662	13.58
386.872	17.23
387.082	14.24
387.291	4.83
387.501	5.05
387.711	1.27
387.921	4.7
388.13	12.01
388.34	17.41
388.55	20.04
388.759	22.93
388.969	19
389.179	16.85
389.388	17.84
389.598	15.38
389.807	12.21
390.017	10.9
390.227	11.22
390.436	10.56
390.646	12.07
390.855	9.75
391.065	8.52
391.274	7.15
391.484	5.23
391.693	5.06
391.903	9.14
392.112	10.08
392.322	8.96
392.531	9.28
392.74	8.66
392.95	6.02
393.159	7.18
393.369	7.63
393.578	8.93
393.787	8.36
393.997	9.61
394.206	9.71
394.415	11.01
394.625	9.64
394.834	9.94
395.043	10.53
395.252	10.15
395.462	10.71
395.671	10.54
395.88	11.17
396.089	11.61
396.298	11.3
396.508	10.25
396.717	10.69
396.926	10.21
397.135	9.1
397.344	8.36
397.553	8.35
397.762	7.97
397.971	7.97
398.181	8.49
398.39	8.82
398.599	9
398.808	9.19
399.017	9.24
399.226	9.23
399.435	9.51
399.644	9.47
399.853	9.42
400.062	9.85
400.27	9.5
400.479	8.95
400.688	9
400.897	8.97
401.106	8.93
401.315	9.24
401.524	9.37
401.733	9.15
401.941	9.15
402.15	8.71
402.359	8.56
402.568	8.55
402.777	8.37
402.985	8.13
403.194	8.27
403.403	8.29
403.612	8.21
403.82	8.28
404.029	8.44
404.238	8.46
404.446	8.49
404.655	8.51
404.864	8.57
405.072	8.44
405.281	8.22
405.489	7.9
405.698	8.01
405.906	7.96
406.115	7.92
406.324	7.88
406.532	8.08
406.741	8.01
406.949	8.01
407.158	7.91
407.366	7.83
407.574	7.83
407.783	7.66
407.991	7.66
408.2	7.76
408.408	8
408.617	7.88
408.825	7.96
409.033	7.81
409.242	7.69
409.45	7.51
409.658	7.54
409.867	7.51
410.075	7.47
410.283	7.53
410.491	7.45
410.7	7.39
410.908	7.28
411.116	7.41
411.324	7.36
411.533	7.49
411.741	7.33
411.949	7.35
412.157	7.41
412.365	7.54
412.573	7.31
412.781	7.45
412.99	7.53
413.198	7.41
413.406	7.38
413.614	7.61
413.822	7.58
414.03	7.57
414.238	7.61
414.446	7.52
414.654	7.38
414.862	7.44
415.07	7.36
415.278	7.3
415.486	7.15
415.694	7.12
415.902	7.06
416.109	7.07
416.317	7.15
416.525	7.24
416.733	7.22
416.941	7.34
417.149	7.24
417.357	7.09
417.564	6.88
417.772	6.95
417.98	6.9
418.188	7.06
418.395	6.97
418.603	7.1
418.811	7.24
419.019	7.16
419.226	7.16
419.434	7.38
419.642	7.52
419.849	7.27
420.057	7.18
420.265	7.1
420.472	6.98
420.68	6.95
420.887	7.08
421.095	7.08
421.302	7.01
421.51	6.97
421.717	6.85
421.925	6.74
422.132	6.8
422.34	6.85
422.547	6.88
422.755	6.99
422.962	7.02
423.17	7.05
423.377	7.08
423.585	7.09
423.792	7.04
423.999	6.96
424.207	6.75
424.414	6.55
424.621	6.54
424.829	6.44
425.036	6.54
425.243	6.65
425.451	6.65
425.658	6.75
425.865	6.83
426.072	6.79
426.28	6.75
426.487	6.97
426.694	6.73
426.901	6.64
427.108	6.56
427.315	6.48
427.523	6.2
427.73	6.1
427.937	6.03
428.144	6.14
428.351	6.18
428.558	6.4
428.765	6.51
428.972	6.57
429.179	6.38
429.386	6.42
429.593	6.42
429.8	6.49
430.007	6.39
430.214	6.42
430.421	6.43
430.628	6.4
430.835	6.41
431.042	6.54
431.249	6.65
431.456	6.72
431.662	6.7
431.869	6.86
432.076	6.78
432.283	6.77
432.49	6.62
432.697	6.62
432.903	6.48
433.11	6.7
433.317	6.65
433.524	6.65
433.73	6.59
433.937	6.45
434.144	6.25
434.35	6.36
434.557	6.37
434.764	6.27
434.97	6.28
435.177	6.3
435.384	6.12
435.59	6.09
435.797	6.23
436.003	6.3
436.21	6.23
436.416	6.26
436.623	6.24
436.829	6.18
437.036	6.22
437.242	6.34
437.449	6.34
437.655	6.56
437.862	6.64
438.068	6.41
438.275	6.49
438.481	6.46
438.687	6.42
438.894	6.5
439.1	6.61
439.307	6.46
439.513	6.57
439.719	6.58
439.926	6.36
440.132	6.66
440.338	6.66
440.544	6.54
440.751	6.45
440.957	6.52
441.163	6.3
441.369	6.28
441.575	6.31
441.782	6.39
441.988	6.43
442.194	6.45
442.4	6.54
442.606	6.61
442.812	6.59
443.018	6.43
443.224	6.31
443.431	6.13
443.637	6.17
443.843	6.04
444.049	6.14
444.255	6.17
444.461	6.24
444.667	6.05
444.873	6.08
445.079	6.04
445.284	6.11
445.49	6.12
445.696	6.21
445.902	6.32
446.108	6.38
446.314	6.34
446.52	6.43
446.726	6.48
446.931	6.41
447.137	6.37
447.343	6.24
447.549	6.15
447.755	6.08
447.96	6.03
448.166	6.03
448.372	6.17
448.578	6.21
448.783	6.39
448.989	6.42
449.195	6.35
449.4	6.43
449.606	6.34
449.812	6.2
450.017	6.2
450.223	6.31
450.428	6.15
450.634	6.14
450.84	6.07
451.045	6.03
451.251	6.09
451.456	6.13
451.662	6.2
451.867	6.24
452.073	6.27
452.278	6.19
452.483	6.2
452.689	6.22
452.894	6.23
453.1	6.22
453.305	6.14
453.51	6.2
453.716	6.09
453.921	6.09
454.127	6.13
454.332	6.14
454.537	6.15
454.742	6.12
454.948	6.07
455.153	6.1
455.358	6.14
455.563	6.06
455.769	6.13
455.974	6.17
456.179	6.08
456.384	5.95
456.589	6.09
456.795	6.03
457	6.04
457.205	5.93
457.41	6.04
457.615	5.91
457.82	5.9
458.025	5.77
458.23	5.93
458.435	5.9
458.64	5.86
458.845	5.96
459.05	6
459.255	6
459.46	6.05
459.665	6.13
459.87	6.12
460.075	6.27
460.28	6.3
460.485	6.35
460.69	6.35
460.895	6.31
461.099	6.23
461.304	6.13
461.509	6.05
461.714	6.08
461.919	6.13
462.123	6.16
462.328	6.18
462.533	6.26
462.738	6.26
462.942	6.19
463.147	6.23
463.352	6.22
463.556	6.19
463.761	6.1
463.966	6.05
464.17	6.11
464.375	6.12
464.58	6.06
464.784	6.17
464.989	6.24
465.193	6.17
465.398	6.18
465.602	6.29
465.807	6.21
466.011	6.27
466.216	6.17
466.42	6.26
466.625	6.17
466.829	6.2
467.034	6.29
467.238	6.37
467.443	6.34
467.647	6.3
467.851	6.34
468.056	6.2
468.26	6.19
468.464	6.19
468.669	6.22
468.873	6.26
469.077	6.25
469.282	6.22
469.486	6.21
469.69	6.19
469.894	6.15
470.099	6.22
470.303	6.24
470.507	6.23
470.711	6.36
470.915	6.42
471.119	6.46
471.324	6.5
471.528	6.49
471.732	6.42
471.936	6.32
472.14	6.25
472.344	6.26
472.548	6.25
472.752	6.22
472.956	6.23
473.16	6.32
473.364	6.29
473.568	6.3
473.772	6.36
473.976	6.34
474.18	6.26
474.384	6.23
474.588	6.3
474.792	6.23
474.995	6.23
475.199	6.21
475.403	6.28
475.607	6.23
475.811	6.32
476.015	6.45
476.218	6.43
476.422	6.37
476.626	6.43
476.83	6.43
477.033	6.37
477.237	6.43
477.441	6.47
477.644	6.39
477.848	6.32
478.052	6.18
478.255	6.18
478.459	6.17
478.663	6.17
478.866	6.18
479.07	6.3
479.273	6.32
479.477	6.32
479.681	6.44
479.884	6.5
480.088	6.43
480.291	6.49
480.495	6.48
480.698	6.45
480.901	6.42
481.105	6.47
481.308	6.44
481.512	6.43
481.715	6.32
481.919	6.31
482.122	6.29
482.325	6.28
482.529	6.32
482.732	6.43
482.935	6.36
483.138	6.43
483.342	6.36
483.545	6.39
483.748	6.26
483.952	6.33
484.155	6.34
484.358	6.48
484.561	6.41
484.764	6.43
484.967	6.46
485.171	6.47
485.374	6.35
485.577	6.39
485.78	6.45
485.983	6.37
486.186	6.39
486.389	6.42
486.592	6.43
486.795	6.42
486.998	6.47
487.201	6.47
487.404	6.45
487.607	6.4
487.81	6.43
488.013	6.43
488.216	6.41
488.419	6.43
488.622	6.36
488.825	6.33
489.028	6.37
489.231	6.3
489.433	6.23
489.636	6.21
489.839	6.18
490.042	6.12
490.245	6.11
490.447	6.23
490.65	6.38
490.853	6.38
491.056	6.45
491.258	6.5
491.461	6.42
491.664	6.27
491.866	6.3
492.069	6.27
492.272	6.3
492.474	6.39
492.677	6.42
492.879	6.29
493.082	6.19
493.285	6.14
493.487	6.07
493.69	6.07
493.892	6.18
494.095	6.28
494.297	6.29
494.5	6.34
494.702	6.32
494.905	6.38
495.107	6.37
495.309	6.38
495.512	6.29
495.714	6.34
495.917	6.31
496.119	6.28
496.321	6.22
496.524	6.28
496.726	6.27
496.928	6.23
497.13	6.29
497.333	6.37
497.535	6.42
497.737	6.39
497.939	6.39
498.142	6.31
498.344	6.29
498.546	6.23
498.748	6.29
498.95	6.28
499.152	6.36
499.355	6.31
499.557	6.28
499.759	6.3
499.961	6.39
500.163	6.39
500.365	6.42
500.567	6.46
500.769	6.41
500.971	6.36
501.173	6.34
501.375	6.41
501.577	6.46
501.779	6.48
501.981	6.54
502.183	6.55
502.385	6.47
502.587	6.43
502.788	6.46
502.99	6.44
503.192	6.42
503.394	6.47
503.596	6.49
503.798	6.52
503.999	6.47
504.201	6.53
504.403	6.52
504.605	6.6
504.806	6.58
505.008	6.64
505.21	6.6
505.411	6.6
505.613	6.51
505.815	6.53
506.016	6.51
506.218	6.58
506.42	6.58
506.621	6.62
506.823	6.64
507.024	6.62
507.226	6.67
507.427	6.62
507.629	6.59
507.83	6.54
508.032	6.55
508.233	6.42
508.435	6.51
508.636	6.6
508.838	6.6
509.039	6.64
509.24	6.7
509.442	6.62
509.643	6.52
509.845	6.53
510.046	6.55
510.247	6.54
510.448	6.58
510.65	6.68
510.851	6.68
511.052	6.74
511.254	6.79
511.455	6.84
511.656	6.79
511.857	6.83
512.058	6.78
512.26	6.74
512.461	6.76
512.662	6.8
512.863	6.8
513.064	6.75
513.265	6.73
513.466	6.78
513.667	6.74
513.868	6.73
514.069	6.76
514.27	6.79
514.471	6.73
514.672	6.77
514.873	6.75
515.074	6.82
515.275	6.85
515.476	6.82
515.677	6.79
515.878	6.77
516.079	6.74
516.28	6.72
516.481	6.71
516.682	6.79
516.882	6.83
517.083	6.83
517.284	6.89
517.485	6.92
517.686	6.9
517.886	6.88
518.087	6.9
518.288	6.92
518.488	6.89
518.689	6.88
518.89	6.9
519.091	7.01
519.291	6.92
519.492	6.98
519.692	7.01
519.893	7.08
520.094	6.93
520.294	6.96
520.495	6.99
520.695	7.01
520.896	6.98
521.096	7.02
521.297	7.13
521.497	7.09
521.698	7.05
521.898	7.09
522.099	7.16
522.299	7.07
522.499	7.1
522.7	7.09
522.9	7.12
523.101	7.09
523.301	7.16
523.501	7.17
523.702	7.26
523.902	7.19
524.102	7.24
524.302	7.23
524.503	7.21
524.703	7.2
524.903	7.26
525.103	7.27
525.304	7.23
525.504	7.25
525.704	7.23
525.904	7.23
526.104	7.18
526.304	7.24
526.504	7.25
526.705	7.21
526.905	7.26
527.105	7.23
527.305	7.19
527.505	7.18
527.705	7.26
527.905	7.23
528.105	7.26
528.305	7.33
528.505	7.35
528.705	7.36
528.905	7.28
529.105	7.28
529.304	7.26
529.504	7.33
529.704	7.29
529.904	7.42
530.104	7.48
530.304	7.47
530.503	7.45
530.703	7.45
530.903	7.45
531.103	7.43
531.303	7.45
531.502	7.46
531.702	7.46
531.902	7.37
532.101	7.35
532.301	7.38
532.501	7.32
532.7	7.39
532.9	7.48
533.1	7.55
533.299	7.56
533.499	7.62
533.698	7.63
533.898	7.59
534.097	7.62
534.297	7.63
534.496	7.61
534.696	7.62
534.895	7.66
535.095	7.67
535.294	7.65
535.494	7.64
535.693	7.69
535.892	7.68
536.092	7.69
536.291	7.72
536.491	7.82
536.69	7.84
536.889	7.83
537.088	7.77
537.288	7.81
537.487	7.8
537.686	7.79
537.886	7.96
538.085	7.98
538.284	8.03
538.483	8.03
538.682	8.1
538.882	8.06
539.081	8.13
539.28	8.15
539.479	8.18
539.678	8.13
539.877	8.13
540.076	8.13
540.275	8.15
540.474	8.17
540.673	8.16
540.872	8.15
541.071	8.13
541.27	8.13
541.469	8.12
541.668	8.14
541.867	8.2
542.066	8.24
542.265	8.37
542.464	8.46
542.663	8.55
542.862	8.59
543.06	8.65
543.259	8.62
543.458	8.62
543.657	8.67
543.856	8.74
544.054	8.76
544.253	8.74
544.452	8.78
544.651	8.72
544.849	8.65
545.048	8.71
545.247	8.77
545.445	8.77
545.644	8.78
545.843	8.85
546.041	8.87
546.24	8.91
546.438	9.03
546.637	9.18
546.836	9.21
547.034	9.25
547.233	9.33
547.431	9.35
547.63	9.44
547.828	9.51
548.027	9.6
548.225	9.59
548.423	9.65
548.622	9.63
548.82	9.66
549.019	9.68
549.217	9.69
549.415	9.71
549.614	9.77
549.812	9.79
550.01	9.79
550.209	9.89
550.407	9.94
550.605	9.93
550.803	10
551.002	10.04
551.2	10.13
551.398	10.21
551.596	10.28
551.794	10.35
551.993	10.45
552.191	10.5
552.389	10.51
552.587	10.65
552.785	10.73
552.983	10.81
553.181	10.9
553.379	10.99
553.577	11.07
553.775	11.12
553.973	11.15
554.171	11.19
554.369	11.26
554.567	11.34
554.765	11.48
554.963	11.6
555.161	11.71
555.359	11.8
555.557	11.85
555.755	11.9
555.952	12.03
556.15	12.07
556.348	12.17
556.546	12.27
556.744	12.33
556.941	12.36
557.139	12.46
557.337	12.53
557.535	12.54
557.732	12.57
557.93	12.62
558.128	12.71
558.325	12.81
558.523	12.86
558.721	12.96
558.918	13.09
559.116	13.21
559.313	13.24
559.511	13.42
559.708	13.51
559.906	13.71
560.104	13.83
560.301	14.03
560.498	14.13
560.696	14.23
560.893	14.2
561.091	14.27
561.288	14.43
561.486	14.48
561.683	14.61
561.88	14.75
562.078	14.82
562.275	14.74
562.473	14.9
562.67	15.01
562.867	15.09
563.064	15.22
563.262	15.35
563.459	15.52
563.656	15.52
563.853	15.65
564.051	15.7
564.248	15.8
564.445	15.78
564.642	15.96
564.839	16.14
565.036	16.34
565.234	16.5
565.431	16.62
565.628	16.72
565.825	16.69
566.022	16.8
566.219	16.83
566.416	16.94
566.613	17.07
566.81	17.25
567.007	17.25
567.204	17.32
567.401	17.41
567.598	17.52
567.795	17.57
567.991	17.68
568.188	17.93
568.385	17.99
568.582	18.03
568.779	18.07
568.976	18.22
569.172	18.22
569.369	18.26
569.566	18.4
569.763	18.45
569.96	18.51
570.156	18.55
570.353	18.75
570.55	18.75
570.746	18.81
570.943	18.85
571.14	18.94
571.336	18.89
571.533	18.88
571.729	19.01
571.926	19.06
572.123	19.13
572.319	19.31
572.516	19.52
572.712	19.56
572.909	19.62
573.105	19.65
573.302	19.65
573.498	19.61
573.695	19.67
573.891	19.67
574.087	19.69
574.284	19.75
574.48	19.87
574.677	19.85
574.873	19.96
575.069	20.02
575.266	20.04
575.462	20.03
575.658	20.06
575.854	20.09
576.051	20.12
576.247	20.16
576.443	20.13
576.639	20.3
576.835	20.25
577.032	20.22
577.228	20.23
577.424	20.3
577.62	20.19
577.816	20.19
578.012	20.25
578.208	20.27
578.404	20.23
578.6	20.25
578.796	20.32
578.993	20.32
579.189	20.29
579.384	20.34
579.58	20.37
579.776	20.28
579.972	20.24
580.168	20.26
580.364	20.31
580.56	20.35
580.756	20.37
580.952	20.4
581.148	20.35
581.343	20.29
581.539	20.29
581.735	20.41
581.931	20.38
582.127	20.42
582.322	20.37
582.518	20.24
582.714	20.13
582.909	20.19
583.105	20.14
583.301	20.1
583.496	20.16
583.692	20.19
583.888	20.23
584.083	20.17
584.279	20.24
584.474	20.22
584.67	20.13
584.866	19.96
585.061	20.01
585.257	19.98
585.452	20
585.648	19.99
585.843	20.07
586.039	20.09
586.234	20.02
586.429	20.01
586.625	20.05
586.82	20.03
587.015	19.98
587.211	19.97
587.406	20.08
587.601	20.09
587.797	20.12
587.992	20.12
588.187	20.14
588.383	20.1
588.578	20.04
588.773	20
588.968	20
589.163	20.08
589.359	20
589.554	20.06
589.749	20.1
589.944	20.13
590.139	20.16
590.334	20.27
590.529	20.39
590.724	20.4
590.919	20.45
591.114	20.43
591.309	20.34
591.504	20.22
591.699	20.19
591.894	20.13
592.089	20.13
592.284	20.26
592.479	20.24
592.674	20.32
592.869	20.5
593.064	20.63
593.259	20.76
593.454	20.89
593.648	20.93
593.843	20.9
594.038	20.96
594.233	20.91
594.428	21.06
594.622	21.2
594.817	21.33
595.012	21.35
595.206	21.41
595.401	21.53
595.596	21.56
595.79	21.54
595.985	21.64
596.18	21.72
596.374	21.68
596.569	21.74
596.763	21.95
596.958	22.03
597.153	22.02
597.347	22.04
597.542	22.14
597.736	22.14
597.931	22.14
598.125	22.25
598.319	22.33
598.514	22.46
598.708	22.55
598.903	22.6
599.097	22.69
599.291	22.79
599.486	22.75
599.68	22.81
599.874	22.84
600.069	22.86
600.263	22.92
600.457	22.88
600.651	22.97
600.846	23.14
601.04	23.2
601.234	23.17
601.428	23.29
601.622	23.26
601.817	23.13
602.011	23.19
602.205	23.24
602.399	23.33
602.593	23.43
602.787	23.48
602.981	23.51
603.175	23.55
603.369	23.4
603.563	23.37
603.757	23.39
603.951	23.32
604.145	23.24
604.339	23.26
604.533	23.2
604.727	23.18
604.921	23.22
605.115	23.26
605.309	23.28
605.502	23.31
605.696	23.26
605.89	23.21
606.084	23.18
606.278	23.08
606.471	22.84
606.665	22.8
606.859	22.74
607.053	22.62
607.246	22.58
607.44	22.58
607.634	22.53
607.827	22.31
608.021	22.3
608.214	22.2
608.408	22.15
608.602	22.03
608.795	22.09
608.989	22
609.182	21.92
609.376	21.82
609.569	21.68
609.763	21.46
609.956	21.32
610.15	21.3
610.343	21.21
610.537	21.22
610.73	21.22
610.923	21.23
611.117	21.14
611.31	21.08
611.504	21.04
611.697	20.99
611.89	20.85
612.083	20.71
612.277	20.7
612.47	20.63
612.663	20.55
612.856	20.44
613.05	20.37
613.243	20.3
613.436	20.17
613.629	20.08
613.822	20.1
614.015	19.99
614.209	19.81
614.402	19.7
614.595	19.66
614.788	19.45
614.981	19.4
615.174	19.39
615.367	19.35
615.56	19.21
615.753	19.2
615.946	19.17
616.139	19.14
616.332	19.05
616.525	18.94
616.718	18.91
616.911	18.98
617.103	18.92
617.296	18.85
617.489	18.86
617.682	18.81
617.875	18.63
618.067	18.43
618.26	18.34
618.453	18.3
618.646	18.18
618.838	18.14
619.031	18.11
619.224	18.21
619.417	18.24
619.609	18.27
619.802	18.18
619.994	18.12
620.187	17.94
620.38	17.8
620.572	17.73
620.765	17.67
620.957	17.66
621.15	17.62
621.342	17.68
621.535	17.64
621.727	17.64
621.92	17.67
622.112	17.66
622.305	17.53
622.497	17.54
622.69	17.45
622.882	17.4
623.074	17.48
623.267	17.44
623.459	17.34
623.651	17.32
623.844	17.32
624.036	17.26
624.228	17.3
624.42	17.21
624.613	17.3
624.805	17.25
624.997	17.21
625.189	17.17
625.381	17.24
625.574	17.15
625.766	17.11
625.958	17.08
626.15	17.01
626.342	16.98
626.534	16.91
626.726	16.97
626.918	16.85
627.11	16.9
627.302	16.86
627.494	16.88
627.686	16.82
627.878	16.8
628.07	16.69
628.262	16.67
628.454	16.56
628.646	16.44
628.838	16.45
629.029	16.54
629.221	16.44
629.413	16.41
629.605	16.44
629.797	16.43
629.989	16.39
630.18	16.29
630.372	16.36
630.564	16.27
630.755	16.27
630.947	16.18
631.139	16.23
631.33	16.17
631.522	16.08
631.714	15.93
631.905	15.9
632.097	15.86
632.289	15.81
632.48	15.82
632.672	15.86
632.863	15.8
633.055	15.83
633.246	15.79
633.438	15.86
633.629	15.79
633.821	15.73
634.012	15.69
634.203	15.64
634.395	15.55
634.586	15.69
634.777	15.75
634.969	15.7
635.16	15.72
635.351	15.71
635.543	15.64
635.734	15.63
635.925	15.7
636.117	15.72
636.308	15.73
636.499	15.69
636.69	15.61
636.881	15.61
637.073	15.58
637.264	15.63
637.455	15.55
637.646	15.61
637.837	15.52
638.028	15.37
638.219	15.35
638.41	15.42
638.601	15.38
638.792	15.39
638.983	15.54
639.174	15.45
639.365	15.51
639.556	15.49
639.747	15.6
639.938	15.66
640.129	15.73
640.32	15.68
640.511	15.68
640.701	15.6
640.892	15.6
641.083	15.52
641.274	15.47
641.465	15.44
641.655	15.47
641.846	15.36
642.037	15.34
642.228	15.37
642.418	15.37
642.609	15.24
642.8	15.21
642.99	15.19
643.181	15.11
643.372	15.1
643.562	15.08
643.753	15.05
643.943	15.03
644.134	14.89
644.324	14.92
644.515	14.98
644.705	14.9
644.896	14.83
645.086	14.91
645.277	14.86
645.467	14.74
645.658	14.79
645.848	14.85
646.038	14.9
646.229	14.88
646.419	14.9
646.61	14.92
646.8	14.89
646.99	14.85
647.18	14.8
647.371	14.77
647.561	14.7
647.751	14.75
647.941	14.64
648.132	14.69
648.322	14.62
648.512	14.58
648.702	14.5
648.892	14.45
649.082	14.48
649.272	14.46
649.462	14.5
649.653	14.49
649.843	14.48
650.033	14.37
650.223	14.39
650.413	14.29
650.603	14.26
650.793	14.2
650.983	14.13
651.172	14.05
651.362	14.09
651.552	14.01
651.742	13.94
651.932	13.88
652.122	13.86
652.312	13.79
652.502	13.72
652.691	13.71
652.881	13.77
653.071	13.75
653.261	13.63
653.45	13.58
653.64	13.68
653.83	13.59
654.019	13.38
654.209	13.3
654.399	13.19
654.588	12.84
654.778	12.63
654.968	12.57
655.157	12.51
655.347	12.49
655.536	12.43
655.726	12.27
655.915	12.2
656.105	12
656.294	11.77
656.484	11.64
656.673	11.56
656.863	11.47
657.052	11.35
657.241	11.2
657.431	11.12
657.62	10.97
657.809	10.7
657.999	10.63
658.188	10.51
658.377	10.41
658.567	10.32
658.756	10.25
658.945	10.15
659.134	10.1
659.324	9.91
659.513	9.71
659.702	9.58
659.891	9.39
660.08	9.13
660.269	9.02
660.458	8.91
660.648	8.84
660.837	8.8
661.026	8.71
661.215	8.67
661.404	8.59
661.593	8.45
661.782	8.24
661.971	8.17
662.16	8.12
662.349	8.03
662.538	7.98
662.726	8.01
662.915	8.06
663.104	7.95
663.293	7.89
663.482	7.75
663.671	7.6
663.86	7.47
664.048	7.41
664.237	7.36
664.426	7.35
664.615	7.24
664.803	7.01
664.992	6.99
665.181	7.03
665.369	6.96
665.558	7.01
665.747	7.07
665.935	6.97
666.124	7.03
666.312	7.02
666.501	7
666.69	7.06
666.878	7.1
667.067	6.91
667.255	7.02
667.444	7.13
667.632	7.21
667.82	7.3
668.009	7.33
668.197	7.33
668.386	7.27
668.574	7.19
668.762	7.11
668.951	7.25
669.139	7.26
669.327	7.23
669.516	7.37
669.704	7.35
669.892	7.28
670.08	7.26
670.269	7.31
670.457	7.29
670.645	7.34
670.833	7.46
671.021	7.57
671.21	7.54
671.398	7.53
671.586	7.57
671.774	7.58
671.962	7.52
672.15	7.7
672.338	7.87
672.526	8.06
672.714	8.14
672.902	8.17
673.09	8.25
673.278	8.29
673.466	8.33
673.654	8.5
673.842	8.76
674.03	8.79
674.218	8.96
674.405	9.01
674.593	8.92
674.781	9.01
674.969	9.05
675.157	8.9
675.344	8.95
675.532	9.07
675.72	9.07
675.908	9.21
676.095	9.31
676.283	9.5
676.471	9.61
676.658	9.76
676.846	9.63
677.033	9.86
677.221	10.02
677.409	10.16
677.596	10.19
677.784	10.57
677.971	10.57
678.159	10.59
678.346	10.6
678.534	10.72
678.721	10.72
678.909	10.93
679.096	10.92
679.283	11.08
679.471	11.13
679.658	11.18
679.846	11.17
680.033	11.3
680.22	11.26
680.408	11.35
680.595	11.45
680.782	11.5
680.969	11.55
681.157	11.69
681.344	11.7
681.531	11.83
681.718	12.08
681.905	12.16
682.093	12.25
682.28	12.35
682.467	12.63
682.654	12.53
682.841	12.67
683.028	12.77
683.215	13.04
683.402	12.91
683.589	13.2
683.776	13.48
683.963	13.62
684.15	13.76
684.337	14.03
684.524	14.13
684.711	14.26
684.898	14.38
685.085	14.54
685.271	14.82
685.458	15
685.645	15.12
685.832	15.51
686.019	15.84
686.205	16.09
686.392	16.46
686.579	16.96
686.766	17.2
686.952	17.46
687.139	17.68
687.326	17.85
687.512	17.92
687.699	18.2
687.886	18.44
688.072	18.76
688.259	19.19
688.445	19.5
688.632	19.92
688.818	20.35
689.005	20.66
689.191	21.09
689.378	21.57
689.564	22.05
689.751	22.6
689.937	23.25
690.124	23.73
690.31	24.18
690.496	24.72
690.683	25.09
690.869	25.58
691.055	26.12
691.242	26.94
691.428	27.5
691.614	28.1
691.8	28.66
691.987	29.35
692.173	29.86
692.359	30.49
692.545	31.33
692.731	31.98
692.918	32.55
693.104	33.31
693.29	34.1
693.476	34.8
693.662	35.71
693.848	36.43
694.034	36.98
694.22	37.59
694.406	38.15
694.592	38.55
694.778	39.07
694.964	39.85
695.15	40.45
695.336	41.14
695.522	42.05
695.708	43.07
695.894	43.84
696.08	44.47
696.265	45.03
696.451	45.59
696.637	46.07
696.823	46.44
697.009	47.31
697.194	48.06
697.38	48.65
697.566	49.4
697.751	50.39
697.937	50.78
698.123	51.47
698.308	51.95
698.494	52.55
698.68	53.07
698.865	53.7
699.051	54.02
699.236	54.62
699.422	55.39
699.607	55.8
699.793	56.54
699.978	57.32
700.164	58.12
700.349	58.5
700.535	58.79
700.72	58.97
700.906	59.2
701.091	59.5
701.276	59.86
701.462	60.83
701.647	61.48
701.832	62.41
702.018	62.88
702.203	63.36
702.388	63.3
702.573	63.64
702.759	63.67
702.944	63.82
703.129	64.44
703.314	64.9
703.499	65.19
703.684	65.97
703.87	66.66
704.055	66.64
704.24	67.16
704.425	67.54
704.61	67.51
704.795	67.79
704.98	68.13
705.165	68.3
705.35	69.08
705.535	69.49
705.72	69.76
705.905	70.2
706.09	70.59
706.275	70.62
706.459	71.23
706.644	71.4
706.829	71.91
707.014	72.55
707.199	72.56
707.384	72.48
707.568	72.93
707.753	73.02
707.938	72.71
708.123	73.16
708.307	73.38
708.492	73.51
708.677	73.33
708.861	74.15
709.046	74.5
709.231	74.67
709.415	74.9
709.6	75.15
709.784	75.22
709.969	75.11
710.153	75.36
710.338	75.6
710.522	76.21
710.707	75.72
710.891	75.92
711.076	76.04
711.26	76.51
711.445	76.87
711.629	77.42
711.813	77.78
711.998	78.45
712.182	78.13
712.366	78.21
712.551	77.99
712.735	77.96
712.919	77.94
713.103	77.88
713.288	77.44
713.472	78.07
713.656	77.82
713.84	77.19
714.024	77.65
714.208	78.02
714.393	78.19
714.577	78.6
714.761	79.27
714.945	79.28
715.129	79.17
715.313	78.85
715.497	79.19
715.681	79.1
715.865	79.36
716.049	79.68
716.233	80.24
716.417	80.43
716.601	80.5
716.785	80.45
716.968	80.54
717.152	80.8
717.336	80.97
717.52	81.18
717.704	81.6
717.888	82.09
718.071	82.25
718.255	82.21
718.439	82.32
718.622	82.33
718.806	82.54
718.99	82.65
719.174	82.58
719.357	82.32
719.541	82.52
719.724	82.28
719.908	82.09
720.092	81.98
720.275	82.95
720.459	83.29
720.642	83.42
720.826	83.96
721.009	84.91
721.193	84.69
721.376	84.7
721.559	84.72
721.743	84.48
721.926	84.09
722.11	84.18
722.293	84.06
722.476	83.96
722.66	84.35
722.843	84.73
723.026	85.23
723.21	85.73
723.393	85.76
723.576	85.68
723.759	85.63
723.942	85.86
724.126	85.21
724.309	85.86
724.492	85.98
724.675	86.12
724.858	86
725.041	86.64
725.224	87.07
725.407	87.64
725.59	88.04
725.774	88.05
725.957	88.71
726.14	88.76
726.322	88.3
726.505	88.67
726.688	89.29
726.871	88.53
727.054	88.81
727.237	89.24
727.42	89.47
727.603	88.89
727.786	88.89
727.968	88.6
728.151	88.47
728.334	87.85
728.517	87.78
728.699	88.99
728.882	89.04
729.065	89.26
729.248	89.57
729.43	90.39
729.613	90.25
729.796	90.27
729.978	91.41
730.161	91.56
730.343	91.81
730.526	92.35
730.708	92.9
730.891	92.89
731.073	93.25
731.256	93.83
731.438	93.06
731.621	92.9
731.803	92.42
731.986	92.56
732.168	92.09
732.35	92.02
732.533	92.4
732.715	92.2
732.898	92.66
733.08	93.02
733.262	93.33
733.444	93.05
733.627	93.38
733.809	93.13
733.991	93.37
734.173	93.61
734.355	94.56
734.538	94.85
734.72	95.64
734.902	95.88
735.084	96.44
735.266	95.82
735.448	96.75
735.63	95.88
735.812	95.53
735.994	94.74
736.176	94.67
736.358	94.63
736.54	95.14
736.722	96.1
736.904	96.81
737.086	97.41
737.268	97.09
737.45	96.77
737.632	95.87
737.814	95.63
737.995	96.33
738.177	95.58
738.359	95.86
738.541	95.56
738.723	96.29
738.904	95.54
739.086	96.18
739.268	96.48
739.449	96.77
739.631	96.41
739.813	97.27
739.994	97.33
740.176	97.18
740.358	97.87
740.539	98.32
740.721	97.72
740.902	96.84
741.084	97.22
741.265	97.34
741.447	96.88
741.628	96.78
741.81	97.49
741.991	97.11
742.172	97.19
742.354	97.97
742.535	98.75
742.717	98.15
742.898	99.51
743.079	98.9
743.261	97.87
743.442	97.5
743.623	97.77
743.804	95.48
743.986	95.22
744.167	96.34
744.348	94.99
744.529	95.64
744.71	96.71
744.891	98.04
745.073	97.87
745.254	99.29
745.435	98.22
745.616	98.65
745.797	96.89
745.978	96.63
746.159	97.48
746.34	98.93
746.521	98.56
746.702	99.62
746.883	98.58
747.064	96.97
747.245	96.85
747.426	98.21
747.606	96.7
747.787	97.33
747.968	96.87
748.149	97.86
748.33	96.92
748.51	99.19
748.691	99.64
748.872	101.14
749.053	99.38
749.233	98.36
749.414	96.12
749.595	96.71
749.775	96.91
749.956	97.89
750.137	98.55
750.317	98.35
750.498	98.25
750.678	97.24
750.859	97.62
751.04	97.04
751.22	98.24
751.4	97.65
751.581	98.1
751.761	97.59
751.942	97.8
752.122	97.56
752.303	97.34
752.483	96.83
752.663	96.24
752.844	96.15
753.024	96.74
753.204	97.03
753.385	96.75
753.565	97.81
753.745	99.2
753.925	98.75
754.106	99.63
754.286	100.77
754.466	100.73
754.646	99.89
754.826	99.33
755.006	98.88
755.187	99.69
755.367	97.05
755.547	96.86
755.727	96.92
755.907	94.44
756.087	93.66
756.267	94.35
756.447	96.06
756.627	96.62
756.807	98.53
756.987	96.83
757.167	98.53
757.346	97.2
757.526	96.64
757.706	95.76
757.886	96.33
758.066	94.67
758.246	94.03
758.425	94.79
758.605	96.03
758.785	97.7
758.965	100.51
759.144	102.24
759.324	101.97
759.504	101.86
759.683	100.21
759.863	98.93
760.043	97.61
760.222	96.81
760.402	96.45
760.581	97.21
760.761	93.26
760.94	91.78
761.12	93.3
761.299	93.13
761.479	93.06
761.658	95.43
761.838	96.81
762.017	95.92
762.197	96.16
762.376	96.2
762.555	95.4
762.735	96.2
762.914	93.91
763.093	92.91
763.273	92.33
763.452	93.95
763.631	91.4
763.81	93.34
763.99	93.84
764.169	94.97
764.348	94.53
764.527	95.18
764.706	93.95
764.885	95.64
765.064	95.11
765.243	95.65
765.423	95.79
765.602	96.94
765.781	96.28
765.96	94.98
766.139	94.83
766.318	94.23
766.497	95.52
766.676	96.33
766.854	98
767.033	98.71
767.212	99.33
767.391	97.82
767.57	97.06
767.749	94.59
767.928	94.44
768.106	93.98
768.285	91.87
768.464	90
768.643	91.8
768.821	92.1
769	93.29
769.179	97
769.357	97.2
769.536	96.19
769.715	95.39
769.893	96
770.072	94.15
770.25	94.75
770.429	94.61
770.607	92.72
770.786	93
770.964	92.48
771.143	92.96
771.321	92.83
771.5	96.3
771.678	95.23
771.857	94.18
772.035	95.63
772.213	96.33
772.392	94.49
772.57	96.18
772.748	97.33
772.927	97.61
773.105	96.9
773.283	97.12
773.461	95.78
773.64	97.19
773.818	93.89
773.996	92.68
774.174	92.41
774.352	90.38
774.531	90.58
774.709	92.69
774.887	95.24
775.065	94.97
775.243	96.87
775.421	96.24
775.599	94.36
775.777	92.4
775.955	90.35
776.133	93.18
776.311	94.45
776.489	94.69
776.667	95.97
776.844	98.51
777.022	96.55
777.2	96.18
777.378	97.45
777.556	97.14
777.734	94.73
777.911	93.11
778.089	92.33
778.267	90.47
778.445	88.21
778.622	89.95
778.8	91.22
778.978	89.15
779.155	89.3
779.333	89.44
779.511	86.12
779.688	82.61
779.866	82.75
780.043	83.2
780.221	86.34
780.398	87.42
780.576	90.86
780.753	93.76
780.931	93.27
781.108	92.31
781.286	94.48
781.463	92.04
781.64	92.52
781.818	93.06
781.995	90.44
782.172	90.36
782.35	91.08
782.527	88.68
782.704	88.51
782.882	91.7
783.059	90.59
783.236	89.75
783.413	88.94
783.59	87.68
783.768	86.13
783.945	87.4
784.122	88.5
784.299	89.07
784.476	89.74
784.653	90.29
784.83	88.77
785.007	89.77
785.184	92.35
785.361	92.66
785.538	92.03
785.715	88.07
785.892	85.7
786.069	86.2
786.246	83.72
786.423	86.66
786.6	91.25
786.776	93.83
786.953	90.29
787.13	94.35
787.307	90.84
787.484	92.96
787.66	90.67
787.837	90.52
788.014	89.05
788.191	90.72
788.367	87.37
788.544	94.23
788.721	94.76
788.897	95.8
789.074	96.25
789.25	93.39
789.427	84.73
789.603	82.86
789.78	79.71
789.956	78.09
790.133	79.88
790.309	84.98
790.486	81.37
790.662	86.41
790.839	85.54
791.015	85.24
791.192	83.74
791.368	91.97
791.544	82.31
791.721	87.24
791.897	87.7
792.073	86
792.249	78.06
792.426	85.7
792.602	80.15
792.778	84.58
792.954	87.46
793.13	87.61
793.307	85.13
793.483	81.38
793.659	80.87
793.835	75.22
794.011	78.86
794.187	79.6
794.363	82.07
794.539	74.17
794.715	79.53
794.891	82.6
795.067	79.73
795.243	82.21
795.419	85.79
795.595	85.27
795.771	89.08
795.947	91.65
796.122	91.9
796.298	94.1
796.474	93.79
796.65	85.34
796.826	84.35
797.001	84.2
797.177	79.31
797.353	74.79
797.529	79.08
797.704	79.35
797.88	74.61
798.056	78.38
798.231	83.59
798.407	79.07
798.582	77.75
798.758	79.96
798.934	83.17
799.109	78.2
799.285	79.44
799.46	88.13
799.636	87.16
799.811	80.82
799.986	84.06
800.162	82.63
800.337	77.07
800.513	78.75
800.688	80.79
800.863	80.98
801.039	80.64
801.214	79.37
801.389	82.2
801.565	81.28
801.74	85.57
801.915	89.83
802.09	93.4
802.265	90.9
802.441	92.57
802.616	84.29
802.791	84.65
802.966	85.99
803.141	86.36
803.316	80.51
803.491	83.6
803.666	81.58
803.841	79.58
804.016	82.1
804.191	92.86
804.366	97.29
804.541	94.16
804.716	91.51
804.891	83.94
805.066	82.81
805.241	74.22
805.416	73.98
805.591	71.45
805.765	82.92
805.94	79.4
806.115	81.05
806.29	81.55
806.464	84.79
806.639	74.35
806.814	67.42
806.989	72.3
807.163	74
807.338	72.66
807.512	75.72
807.687	86.12
807.862	75.56
808.036	73.89
808.211	74.45
808.385	69.27
808.56	69.11
808.734	69.9
808.909	74.42
809.083	74.43
809.258	75.03
809.432	76.44
809.606	67.81
809.781	59.86
809.955	58.88
810.13	63.67
810.304	56.58
810.478	67.27
810.652	74.82
810.827	77.17
811.001	80.8
811.175	85.93
811.349	88.3
811.524	81.09
811.698	74.8
811.872	71.81
812.046	75.35
812.22	66.64
812.394	75.42
812.568	84.4
812.742	91.09
812.916	80.71
813.09	85.67
813.264	84.82
813.438	88.05
813.612	79.64
813.786	73.4
813.96	76.45
814.134	71.4
814.308	64.23
814.482	67.34
814.656	66.06
814.83	63.73
815.003	67.17
815.177	69.49
815.351	72.49
815.525	91.7
815.698	89.74
815.872	85.13
816.046	87.46
816.219	84.46
816.393	79.99
816.567	84.74
816.74	77.43
816.914	65.57
817.088	60.61
817.261	64.59
817.435	70.05
817.608	77.37
817.782	77.25
817.955	78.94
818.129	71.75
818.302	53.22
818.475	44.24
818.649	70.44
818.822	67.47
818.996	65.62
819.169	78.59
819.342	76.48
819.516	55.51
819.689	64.88
819.862	71.58
820.035	65.18
820.209	66.84
820.382	80.09
820.555	78.45
820.728	71.6
820.901	59.57
821.075	61.69
821.248	60.92
821.421	58.26
821.594	58.38
821.767	73.87
821.94	84.19
822.113	70.66
822.286	76.15
822.459	82.69
822.632	89.35
822.805	86.21
822.978	84.58
823.151	87.97
823.324	83.28
823.496	71.05
823.669	55.74
823.842	55.55
824.015	42.19
824.188	36.37
824.361	44.41
824.533	58.14
824.706	66.55
824.879	69.14
825.051	50.06
825.224	54.28
825.397	44.55
825.569	47.81
825.742	46.06
825.915	53.77
826.087	55.92
826.26	61.3
826.432	70.25
826.605	72.81
826.777	66
826.95	56.93
827.122	49.65
827.295	35.22
827.467	35.24
827.64	33.11
827.812	30.35
827.984	37.75
828.157	38.55
828.329	42.12
828.501	64.66
828.674	71.1
828.846	77.68
829.018	85.27
829.19	84.97
829.363	68.1
829.535	57.5
829.707	43.08
829.879	38.63
830.051	32.44
830.223	45.41
830.395	32.92
830.568	35.02
830.74	44.81
830.912	49.12
831.084	53.59
831.256	63.56
831.428	66.82
831.6	66.45
831.772	69.6
831.943	65.6
832.115	67.27
832.287	69.67
832.459	63.47
832.631	53.6
832.803	56.61
832.975	63.1
833.146	66.24
833.318	66.55
833.49	91.04
833.662	109.43
833.833	89.43
834.005	84.82
834.177	100.71
834.348	97.87
834.52	60.24
834.692	57.48
834.863	65.08
835.035	48.84
835.206	45.42
835.378	44.55
835.549	52.76
835.721	65.5
835.892	70.21
836.064	74.75
836.235	97.09
836.407	82.96
836.578	49.99
836.749	53.2
836.921	48.03
837.092	48.08
837.264	58.08
837.435	74.1
837.606	77.02
837.777	72.22
837.949	58.85
838.12	38.59
838.291	47.64
838.462	52.74
838.633	65.97
838.805	64.05
838.976	107.46
839.147	80.29
839.318	59.56
839.489	55.67
839.66	82.76
839.831	84.1
840.002	92.59
840.173	106.99
840.344	111.76
840.515	76.12
840.686	75.13
840.857	55.46
841.028	75.89
841.199	45.81
841.369	44.44
841.54	48.55
841.711	60.51
841.882	47.65
842.053	55.16
842.223	79.21
842.394	68.97
842.565	70.84
842.736	102.96
842.906	180.26
843.077	131.61
843.248	197.11
843.418	143.64
843.589	92.42
843.759	76.36
843.93	73.03
844.101	65.2
844.271	64.63
844.442	77.59
844.612	97.67
844.783	85.36
844.953	69.48
845.123	64.75
845.294	53.34
845.464	53.24
845.635	72.96
845.805	105.47
845.975	113.96
846.146	138
846.316	121.43
846.486	133.26
846.656	96.85
846.827	93.15
846.997	85.21
847.167	77.54
847.337	68.08
847.507	65.19
847.677	85.47
847.848	85.2
848.018	108.94
848.188	130.43
848.358	136.22
848.528	133.91
848.698	153.16
848.868	119.78
849.038	70.79
849.208	16.35
849.378	21.18
849.548	-13.83
849.718	-3.45
849.887	16.22
850.057	31.19
850.227	40.77
850.397	62.03
850.567	55.03
850.737	65.69
850.906	60.2
851.076	54.15
851.246	66.71
851.415	71.2
851.585	72.37
851.755	73.35
851.924	81.11
852.094	71.43
852.264	69.69
852.433	49.18
852.603	62.13
852.772	68.23
852.942	70.09
853.111	69.85
853.281	93.75
853.45	90.41
853.62	57.24
853.789	31.88
853.959	30.6
854.128	32.51
854.297	32.48
854.467	44.71
854.636	92.12
854.805	84.62
854.975	86.51
855.144	79.65
855.313	68.38
855.482	72.57
855.652	86.48
855.821	87.42
855.99	64.23
856.159	73.72
856.328	97.44
856.497	80.29
856.667	76.93
856.836	88.61
857.005	74.17
857.174	21.79
857.343	23.34
857.512	6.53
857.681	8.64
857.85	8.72
858.019	11.09
858.188	-24.86
858.356	0.74
858.525	18.5
858.694	21.17
858.863	28.15
859.032	30.94
859.201	20.65
859.369	15.8
859.538	25.08
859.707	26.44
859.876	84
860.044	78.13
860.213	88.23
860.382	96.95
860.55	119.13
860.719	128.75
860.888	182.77
861.056	128.32
861.225	120.59
861.393	143.24
861.562	126.46
861.73	83.16
861.899	85.29
862.067	86.87
862.236	52.8
862.404	41.84
862.572	47.65
862.741	46.45
862.909	45.53
863.078	43.59
863.246	68.09
863.414	89.9
863.582	120.5
863.751	93.32
863.919	119.86
864.087	96.24
864.255	76.24
864.424	65.96
864.592	63.28
864.76	55.95
864.928	64.47
865.096	26.7
865.264	22.4
865.432	-6.7
865.6	-5.37
865.768	-0.41
865.936	-2.58
866.104	-4.84
866.272	24.94
866.44	18.16
866.608	-22.99
866.776	0.86
866.944	30.67
867.112	36.95
867.28	16.02
867.448	56.87
867.615	40.7
867.783	52.33
867.951	32.71
868.119	58.25
868.286	58.94
868.454	55.26
868.622	44.7
868.789	89.6
868.957	62.61
869.125	52.45
869.292	46.72
869.46	38.61
869.627	15.39
869.795	29.1
869.963	41.64
870.13	37.42
870.298	49.32
870.465	53.37
870.632	33.53
870.8	9.85
870.967	56.76
871.135	45.97
871.302	32.21
871.469	81.15
871.637	94.4
871.804	63.95
871.971	58.9
872.139	89.21
872.306	66.48
872.473	91.91
872.64	74.41
872.807	95.18
872.975	64.87
873.142	78.58
873.309	57.17
873.476	57
873.643	27.3
873.81	47.97
873.977	25.22
874.144	22.31
874.311	41.15
874.478	65.45
874.645	56.12
874.812	80.62
874.979	79.91
875.146	54.41
875.313	41.77
875.48	50.14
875.647	48.58
875.813	48.69
875.98	85.03
876.147	86.03
876.314	60.97
876.481	64.33
876.647	71.84
876.814	68.1
876.981	58.73
877.147	86.88
877.314	54.49
877.481	68.54
877.647	47.24
877.814	51.36
877.98	28.26
878.147	25.28
878.314	-9.08
878.48	44.32
878.647	59.69
878.813	72.13
878.979	80.34
879.146	89.56
879.312	71.81
879.479	43.53
879.645	57.72
879.811	39.2
879.978	40.77
880.144	43.32
880.31	45.41
880.477	39.2
880.643	44.51
880.809	40.28
880.975	67.44
881.142	31.17
881.308	29.02
881.474	138.85
881.64	195.36
881.806	81.77
881.972	124.63
882.138	149.54
882.304	59.77
882.47	1.01
882.636	23.42
882.802	21.74
882.968	2.77
883.134	10.29
883.3	28.85
883.466	32.75
883.632	49.59
883.798	34.07
883.964	-4.42
884.129	68.57
884.295	-40.2
884.461	-1.39
884.627	20.92
884.793	29.69
884.958	41.68
885.124	58.34
885.29	26.79
885.455	30.6
885.621	38.18
885.787	12.25
885.952	2.8
886.118	49.84
886.283	55.6
886.449	44.35
886.614	71.48
886.78	104.03
886.945	105.55
887.111	105.45
887.276	101.39
887.442	88.04
887.607	41.51
887.773	3.43
887.938	-43.75
888.103	-18.46
888.269	32.61
888.434	58.62
888.599	44.8
888.764	52.83
888.93	52.42
889.095	24.02
889.26	19.83
889.425	37.28
889.59	53.49
889.756	49.03
889.921	26.65
890.086	17.73
890.251	2.11
890.416	-22.51
890.581	-34.12
890.746	35.83
890.911	33.99
891.076	20.47
891.241	27.6
891.406	28.4
891.571	-6.12
891.736	10.15
891.901	59.36
892.065	99.2
892.23	99.55
892.395	103.08
892.56	68.12
892.725	68.3
892.889	59.24
893.054	38.11
893.219	37.3
893.384	56.48
893.548	39.34
893.713	16.77
893.878	14.42
