Data from Ofav_PP_Phys_313_Reflection_1.txt Node
Date: Tue Jul 27 19:06:11 EDT 2021
User: USUARIO
Spectrometer: FLMT01687
Trigger mode: 0
Integration Time (sec): 8.500000E-1
Scans to average: 2
Electric dark correction enabled: true
Nonlinearity correction enabled: false
Boxcar width: 2
XAxis mode: Wavelengths
Number of Pixels in Spectrum: 3648
>>>>>Begin Spectral Data<<<<<
179.494	-1212.59
179.716	-419.09
179.937	-259.9
180.158	-217.26
180.38	-247.24
180.601	-199.41
180.823	78.57
181.044	68.39
181.265	64.4
181.486	23.18
181.708	-10.7
181.929	108.01
182.15	62.41
182.372	91.02
182.593	59.63
182.814	39.33
183.035	85.84
183.257	76.13
183.478	77.63
183.699	65.38
183.92	103.41
184.141	65.6
184.363	74.85
184.584	72.84
184.805	79.64
185.026	57.26
185.247	71.89
185.468	63.42
185.689	46.38
185.91	39.71
186.132	14.02
186.353	20.83
186.574	-3.22
186.795	-12.31
187.016	-11.12
187.237	-18.68
187.458	-5.59
187.679	20.11
187.9	39.87
188.121	47.09
188.342	85.13
188.563	66.02
188.784	98.43
189.005	87.66
189.226	87.26
189.447	82.42
189.667	87.19
189.888	73.77
190.109	78.52
190.33	87.03
190.551	46.37
190.772	28.83
190.993	30.1
191.214	31.82
191.434	26.36
191.655	40.55
191.876	55.13
192.097	33.98
192.318	41.61
192.538	41.63
192.759	53.81
192.98	40.6
193.201	53.11
193.421	36.7
193.642	37.6
193.863	15.2
194.083	22.53
194.304	25.96
194.525	21.74
194.745	27.06
194.966	48.25
195.187	13.89
195.407	10.24
195.628	74.54
195.848	66.14
196.069	66.46
196.29	133.13
196.51	166.08
196.731	117.18
196.951	129.26
197.172	135.21
197.392	106.06
197.613	101.07
197.833	70.53
198.054	48.67
198.274	32.77
198.495	38.46
198.715	35.51
198.936	42.95
199.156	75.93
199.377	113.57
199.597	134.1
199.817	81.81
200.038	124.5
200.258	115.26
200.479	71.05
200.699	51.36
200.919	45.7
201.14	42.77
201.36	18.25
201.58	27.83
201.801	26.71
202.021	16.45
202.241	22.19
202.461	24.83
202.682	8.6
202.902	-7.21
203.122	26.7
203.342	23.04
203.563	36.37
203.783	48.82
204.003	53.02
204.223	43.69
204.443	49.16
204.663	49.34
204.884	57.33
205.104	44.06
205.324	44.11
205.544	34.79
205.764	19.7
205.984	-0.24
206.204	-23.4
206.424	-22.03
206.644	21.64
206.864	46.95
207.084	40.44
207.304	62.55
207.525	47.66
207.745	51.74
207.964	44.16
208.184	60.11
208.404	56.04
208.624	66.68
208.844	56.2
209.064	59.52
209.284	37.79
209.504	19.66
209.724	27.66
209.944	13.51
210.164	14.07
210.384	61.26
210.604	84.67
210.823	46.38
211.043	38.96
211.263	40.29
211.483	71.2
211.703	69.32
211.922	55.7
212.142	94.86
212.362	63.9
212.582	6.09
212.801	18
213.021	26.71
213.241	-16.02
213.461	-25.56
213.68	12.01
213.9	14.71
214.12	9.09
214.339	41.08
214.559	30.35
214.779	23.73
214.998	22.39
215.218	26.68
215.438	41.36
215.657	51.4
215.877	46.72
216.096	45.61
216.316	56.64
216.535	42.95
216.755	65.38
216.974	76.35
217.194	83.6
217.413	78.98
217.633	73.06
217.852	49.32
218.072	22.54
218.291	2.69
218.511	-11.47
218.73	4.34
218.95	-3.56
219.169	21.67
219.389	22.1
219.608	45.04
219.827	40.12
220.047	41.82
220.266	46.32
220.485	54.32
220.705	47.48
220.924	61.99
221.143	60.38
221.363	41.96
221.582	36.77
221.801	48.28
222.021	41.03
222.24	43.42
222.459	43.54
222.678	54.42
222.897	44.06
223.117	30.72
223.336	21.98
223.555	35.4
223.774	20.83
223.993	13.08
224.213	32.1
224.432	45.97
224.651	55.98
224.87	50.71
225.089	42.28
225.308	24.28
225.527	26.94
225.746	32.81
225.965	49.84
226.184	56.36
226.404	64.17
226.623	54.86
226.842	37.64
227.061	41.47
227.28	33.44
227.499	47.75
227.718	53.65
227.936	51.72
228.155	49.53
228.374	67.19
228.593	53.64
228.812	54.42
229.031	51.94
229.25	43.99
229.469	35.92
229.688	29.27
229.907	-3.42
230.125	13.13
230.344	25.24
230.563	35.95
230.782	41.6
231.001	51.6
231.22	48.17
231.438	40.09
231.657	20.23
231.876	17.88
232.095	9.18
232.313	16.73
232.532	22.76
232.751	12.63
232.969	7.81
233.188	31.85
233.407	6.98
233.625	-1.28
233.844	10.14
234.063	24.29
234.281	8
234.5	24.7
234.719	41.29
234.937	34.09
235.156	40.89
235.374	47.65
235.593	53.14
235.811	43.57
236.03	67.11
236.249	41.37
236.467	27.47
236.686	24.39
236.904	27.02
237.123	15.29
237.341	14.98
237.559	22.81
237.778	38.74
237.996	28.48
238.215	43.43
238.433	61.62
238.652	67.21
238.87	60.44
239.088	52.17
239.307	42.82
239.525	14.77
239.743	10.13
239.962	10.55
240.18	26.94
240.398	16.96
240.617	20.94
240.835	41.16
241.053	30.47
241.271	22.26
241.49	21.41
241.708	32.51
241.926	-2.26
242.144	-10.32
242.363	8.31
242.581	20.2
242.799	14.58
243.017	24.43
243.235	43.49
243.453	51.56
243.672	46.32
243.89	47.97
244.108	53.09
244.326	47.7
244.544	26.74
244.762	26.74
244.98	54.69
245.198	53.73
245.416	68.47
245.634	88.31
245.852	127.77
246.07	84.43
246.288	78.92
246.506	72.22
246.724	67.33
246.942	51.9
247.16	57.57
247.378	53.35
247.596	48.54
247.814	41.14
248.032	28.43
248.25	25.95
248.468	41.99
248.685	40.69
248.903	47.68
249.121	68.56
249.339	66.54
249.557	46.23
249.775	27.26
249.992	16.84
250.21	25.02
250.428	28.86
250.646	18.39
250.863	44.93
251.081	74.02
251.299	45.92
251.517	27.45
251.734	63.21
251.952	49.42
252.17	37.11
252.387	38.29
252.605	54.95
252.823	37.06
253.04	57.83
253.258	61.99
253.475	68.99
253.693	70.16
253.911	75.03
254.128	58.95
254.346	50.12
254.563	40.76
254.781	30.74
254.998	39.19
255.216	32.33
255.433	40.49
255.651	55.22
255.868	60.29
256.086	39.37
256.303	43.13
256.521	47.39
256.738	41.94
256.956	40.87
257.173	43.79
257.39	41.23
257.608	40.17
257.825	34.01
258.043	39.34
258.26	45.58
258.477	51.89
258.695	44.5
258.912	52.19
259.129	61.18
259.346	56.74
259.564	55.12
259.781	81.02
259.998	69.95
260.216	57.82
260.433	56.59
260.65	56.96
260.867	49.76
261.084	58.84
261.302	58.15
261.519	61.61
261.736	53.48
261.953	40.46
262.17	38.69
262.387	33.03
262.604	30.82
262.822	36.91
263.039	53.04
263.256	63.4
263.473	81.49
263.69	93.6
263.907	77.42
264.124	75.06
264.341	66.68
264.558	68.24
264.775	63.66
264.992	75.84
265.209	63.09
265.426	63.7
265.643	59.05
265.86	43.7
266.077	25.38
266.294	54.54
266.51	46.97
266.727	31.62
266.944	44.93
267.161	42.62
267.378	22.22
267.595	35.21
267.812	50.74
268.028	55.24
268.245	61.06
268.462	49.41
268.679	25.28
268.896	19.22
269.112	2.47
269.329	5.15
269.546	21.15
269.763	2.06
269.979	7.02
270.196	23.32
270.413	29.96
270.629	36.21
270.846	75.86
271.063	62.09
271.279	62.6
271.496	49.11
271.712	28.98
271.929	-10.9
272.146	-26.43
272.362	-7.75
272.579	-0.68
272.795	3.4
273.012	13.16
273.228	22.49
273.445	27.12
273.661	42.66
273.878	39.29
274.094	41.31
274.311	43.35
274.527	36.34
274.744	27.92
274.96	22.09
275.177	22.93
275.393	26.2
275.609	24.97
275.826	43.23
276.042	61.96
276.259	68.17
276.475	60.77
276.691	65.14
276.908	49.07
277.124	38.08
277.34	41.85
277.557	38.63
277.773	32.45
277.989	38.62
278.205	40.21
278.422	38.75
278.638	31.9
278.854	56.59
279.07	60.05
279.286	62.76
279.503	49.43
279.719	61.86
279.935	53.95
280.151	51.71
280.367	47.78
280.583	60.65
280.799	61.87
281.016	55.09
281.232	55.11
281.448	56.74
281.664	38
281.88	25.75
282.096	26.71
282.312	20.19
282.528	20.74
282.744	38.42
282.96	44.78
283.176	61.02
283.392	66.91
283.608	78.02
283.824	55.32
284.04	36.39
284.256	39.86
284.471	27.19
284.687	23.31
284.903	36.32
285.119	47.65
285.335	37.72
285.551	46.84
285.767	52.05
285.982	43.06
286.198	40.77
286.414	36.98
286.63	31.24
286.846	27.64
287.061	25.6
287.277	23.55
287.493	18.1
287.709	24.27
287.924	22.95
288.14	44.99
288.356	65.84
288.571	85.62
288.787	87.44
289.003	106.77
289.218	97.17
289.434	78.84
289.65	73.92
289.865	52.9
290.081	48.69
290.296	38.21
290.512	39.5
290.727	26.54
290.943	47.02
291.159	47.58
291.374	46.96
291.59	51.17
291.805	51.89
292.021	39.82
292.236	37.9
292.451	36.74
292.667	36.44
292.882	33.95
293.098	28.55
293.313	30.13
293.529	50.33
293.744	47.89
293.959	53.89
294.175	63.38
294.39	53.17
294.605	37.77
294.821	38.38
295.036	32.05
295.251	6.79
295.467	22.73
295.682	15.1
295.897	24.29
296.112	24.1
296.328	38.35
296.543	43.96
296.758	45.05
296.973	32.23
297.188	42.38
297.404	30.89
297.619	36.03
297.834	36.69
298.049	42.82
298.264	36.05
298.479	53.54
298.694	39.86
298.909	42.53
299.125	49.85
299.34	48.25
299.555	38.51
299.77	42.19
299.985	40.94
300.2	27.43
300.415	20.76
300.63	20.31
300.845	27.12
301.06	16.1
301.275	21.59
301.49	28.51
301.704	20.92
301.919	11.13
302.134	34.06
302.349	32.6
302.564	36.86
302.779	28.5
302.994	26.68
303.209	20.01
303.423	20.88
303.638	-0.88
303.853	12.26
304.068	36.34
304.283	32.54
304.497	38.51
304.712	49.23
304.927	60.6
305.142	45.99
305.356	30.55
305.571	37.72
305.786	48.8
306	40.27
306.215	39.05
306.43	63.18
306.644	57.21
306.859	64.08
307.074	66.81
307.288	53.96
307.503	38.79
307.717	42.43
307.932	25.95
308.147	42.13
308.361	49.9
308.576	57.28
308.79	48.07
309.005	44.43
309.219	14.36
309.434	23.32
309.648	12.78
309.863	15.24
310.077	21.89
310.292	30.5
310.506	12.04
310.72	17.58
310.935	12.92
311.149	19.21
311.364	10.51
311.578	36.54
311.792	29.51
312.007	25.63
312.221	29.44
312.435	41.79
312.649	49.71
312.864	63.01
313.078	62.17
313.292	71.97
313.507	49.62
313.721	44.81
313.935	32.1
314.149	41.65
314.363	37.89
314.578	37.49
314.792	30.76
315.006	34.5
315.22	36.64
315.434	28.92
315.648	34.01
315.862	28.62
316.077	32.99
316.291	34.03
316.505	42.96
316.719	46.33
316.933	51.21
317.147	39.93
317.361	46.95
317.575	35.02
317.789	39.25
318.003	42.88
318.217	51.78
318.431	37.36
318.645	53.18
318.859	47.75
319.073	32.2
319.287	14.46
319.5	2.32
319.714	-12.24
319.928	-1.75
320.142	-6.14
320.356	42.07
320.57	70.33
320.784	69.41
320.997	71.41
321.211	81.76
321.425	52.47
321.639	29.58
321.853	29.3
322.066	19.19
322.28	-6.42
322.494	0.62
322.707	1.51
322.921	2.67
323.135	-0.46
323.349	22.61
323.562	29.01
323.776	27.87
323.989	29.11
324.203	35.79
324.417	13.35
324.63	26.52
324.844	41.22
325.057	44.58
325.271	45.74
325.485	52.79
325.698	45.03
325.912	59.44
326.125	59.33
326.339	60.48
326.552	59.4
326.766	64.6
326.979	49.65
327.193	46.04
327.406	40.56
327.619	39.94
327.833	31.09
328.046	35.93
328.26	33.69
328.473	23.69
328.686	25.79
328.9	34.67
329.113	27.03
329.326	18.28
329.54	46.65
329.753	37.19
329.966	24.1
330.179	21.39
330.393	43.4
330.606	17.69
330.819	37.38
331.032	39.39
331.246	45.73
331.459	38.18
331.672	48.06
331.885	42.35
332.098	57.35
332.311	62.23
332.525	59.31
332.738	48.16
332.951	56.01
333.164	46.19
333.377	42.87
333.59	46.96
333.803	51.14
334.016	40.58
334.229	31.97
334.442	38.14
334.655	49.79
334.868	58.37
335.081	64.73
335.294	76.15
335.507	79.16
335.72	61.87
335.933	44.14
336.146	35.01
336.359	32.76
336.572	38.86
336.785	44.61
336.997	57.71
337.21	63.61
337.423	63.88
337.636	45.11
337.849	16.62
338.062	12.1
338.274	18.63
338.487	35.79
338.7	32.44
338.913	55.04
339.125	59.29
339.338	56.45
339.551	22.56
339.763	32.57
339.976	27.03
340.189	18.91
340.402	19.47
340.614	23.85
340.827	23.35
341.039	10.44
341.252	6.09
341.465	-12.16
341.677	-13.06
341.89	-12.54
342.102	12.52
342.315	29.88
342.527	34.62
342.74	39.73
342.952	39.01
343.165	34.16
343.377	29.03
343.59	24.49
343.802	20.73
344.015	21.03
344.227	23.7
344.44	8.59
344.652	28.29
344.864	31.51
345.077	29.08
345.289	28.77
345.502	30.65
345.714	22.93
345.926	23.7
346.139	27.43
346.351	21.51
346.563	20.08
346.775	17.47
346.988	13.37
347.2	6.55
347.412	23.43
347.624	25.77
347.837	21.85
348.049	20.54
348.261	27.36
348.473	18.04
348.685	32.42
348.897	49.26
349.11	49.81
349.322	33.69
349.534	35.55
349.746	41.79
349.958	40.75
350.17	55.41
350.382	61.7
350.594	57.22
350.806	48.88
351.018	36.86
351.23	21.95
351.442	13.34
351.654	38.47
351.866	14.31
352.078	20.04
352.29	16.83
352.502	19.8
352.714	11.2
352.926	29.06
353.138	41.14
353.35	49.41
353.561	54.05
353.773	52.38
353.985	43.95
354.197	32.71
354.409	31.21
354.621	37.22
354.832	38.51
355.044	39.18
355.256	42.26
355.468	42.22
355.679	47.08
355.891	50.84
356.103	55.79
356.314	56.32
356.526	62.27
356.738	54.02
356.949	54.46
357.161	51.79
357.373	46.3
357.584	37.03
357.796	42.44
358.008	46.56
358.219	37.09
358.431	34.1
358.642	32.73
358.854	32.49
359.065	21.39
359.277	34.01
359.488	48.76
359.7	58.89
359.911	52.47
360.123	60.69
360.334	54.54
360.546	41.23
360.757	39.3
360.969	37.17
361.18	35.95
361.391	30.76
361.603	28.46
361.814	21.1
362.025	35.58
362.237	33.62
362.448	30.41
362.659	16.09
362.871	18.15
363.082	2.63
363.293	5.58
363.504	20.8
363.716	34.71
363.927	21.11
364.138	33.52
364.349	18.18
364.56	9.8
364.772	9.84
364.983	29.71
365.194	32.76
365.405	45.49
365.616	26.61
365.827	32.7
366.038	30.92
366.25	20.19
366.461	11.91
366.672	36.79
366.883	33.16
367.094	36.34
367.305	51.74
367.516	44.3
367.727	40.23
367.938	50.05
368.149	58.78
368.36	40.3
368.571	45.28
368.781	42.72
368.992	33.17
369.203	12.96
369.414	16.93
369.625	10.13
369.836	10.33
370.047	20.23
370.258	29.41
370.468	12.4
370.679	17.89
370.89	18.11
371.101	-7.01
371.312	-7.01
371.522	8.23
371.733	19.74
371.944	23.53
372.155	34.32
372.365	17.7
372.576	21.97
372.787	11.3
372.997	14.24
373.208	17.57
373.419	30.27
373.629	29.07
373.84	26.24
374.05	22.74
374.261	19.99
374.472	31.09
374.682	17.04
374.893	28.06
375.103	24.52
375.314	30.23
375.524	27.17
375.735	44.3
375.945	38.93
376.156	41.39
376.366	44.04
376.577	26.17
376.787	22.71
376.997	30.16
377.208	29.29
377.418	28.57
377.629	38.5
377.839	55.04
378.049	45.26
378.26	48.83
378.47	44.11
378.68	62.34
378.89	46.58
379.101	47.52
379.311	38.51
379.521	37.07
379.732	22.29
379.942	28.85
380.152	24.93
380.362	28.82
380.572	22.23
380.783	17.73
380.993	9.67
381.203	7.57
381.413	7.78
381.623	20.21
381.833	23.22
382.043	26.18
382.253	29.33
382.463	24.35
382.674	30.6
382.884	24.38
383.094	18.45
383.304	26.59
383.514	31.41
383.724	18.72
383.934	22.44
384.144	18.05
384.353	8.66
384.563	10.61
384.773	15.53
384.983	12.96
385.193	12.34
385.403	10.68
385.613	14.39
385.823	14.2
386.033	11.5
386.242	22.3
386.452	21.1
386.662	18.78
386.872	20.48
387.082	20.49
387.291	7.93
387.501	12.41
387.711	7.18
387.921	4.6
388.13	7.25
388.34	9.85
388.55	9.61
388.759	9.68
388.969	8.78
389.179	12.26
389.388	17.74
389.598	17.01
389.807	18.73
390.017	17
390.227	14.53
390.436	11.64
390.646	10.61
390.855	7.09
391.065	5.84
391.274	5.54
391.484	5.23
391.693	6.06
391.903	9.78
392.112	11.07
392.322	9
392.531	8.19
392.74	6.82
392.95	5.79
393.159	6.41
393.369	7.04
393.578	6.93
393.787	7.9
393.997	7.8
394.206	8.12
394.415	7.85
394.625	7.9
394.834	6.75
395.043	6.52
395.252	6.29
395.462	7.07
395.671	7.23
395.88	8.45
396.089	8.96
396.298	8.49
396.508	8.14
396.717	7.81
396.926	6.98
397.135	5.99
397.344	5.52
397.553	5.07
397.762	5.08
397.971	5.4
398.181	5.56
398.39	5.82
398.599	6.16
398.808	6.44
399.017	6.16
399.226	6.32
399.435	6.08
399.644	6.15
399.853	6.05
400.062	6.09
400.27	5.53
400.479	5.6
400.688	5.42
400.897	5.35
401.106	5.25
401.315	5.66
401.524	5.95
401.733	5.77
401.941	5.76
402.15	5.67
402.359	5.4
402.568	5.08
402.777	4.98
402.985	4.86
403.194	5.08
403.403	5.26
403.612	5.3
403.82	5.36
404.029	5.63
404.238	5.63
404.446	5.71
404.655	5.69
404.864	5.78
405.072	5.65
405.281	5.51
405.489	5.19
405.698	5.17
405.906	5.14
406.115	4.94
406.324	4.97
406.532	4.91
406.741	4.85
406.949	4.9
407.158	4.9
407.366	4.79
407.574	5.03
407.783	4.97
407.991	4.88
408.2	4.97
408.408	5.06
408.617	4.99
408.825	4.95
409.033	4.93
409.242	4.92
409.45	4.87
409.658	4.73
409.867	4.81
410.075	4.75
410.283	4.69
410.491	4.62
410.7	4.66
410.908	4.63
411.116	4.62
411.324	4.53
411.533	4.54
411.741	4.45
411.949	4.44
412.157	4.54
412.365	4.74
412.573	4.61
412.781	4.71
412.99	4.77
413.198	4.72
413.406	4.61
413.614	4.8
413.822	4.86
414.03	4.76
414.238	4.64
414.446	4.66
414.654	4.54
414.862	4.56
415.07	4.5
415.278	4.56
415.486	4.51
415.694	4.37
415.902	4.28
416.109	4.42
416.317	4.59
416.525	4.49
416.733	4.64
416.941	4.65
417.149	4.48
417.357	4.41
417.564	4.41
417.772	4.37
417.98	4.42
418.188	4.64
418.395	4.37
418.603	4.37
418.811	4.5
419.019	4.31
419.226	4.19
419.434	4.49
419.642	4.66
419.849	4.5
420.057	4.54
420.265	4.65
420.472	4.43
420.68	4.31
420.887	4.39
421.095	4.49
421.302	4.35
421.51	4.34
421.717	4.24
421.925	4.17
422.132	4.2
422.34	4.08
422.547	4.12
422.755	4.28
422.962	4.36
423.17	4.21
423.377	4.33
423.585	4.39
423.792	4.35
423.999	4.25
424.207	4.18
424.414	4.03
424.621	3.95
424.829	3.86
425.036	3.99
425.243	4.12
425.451	4.11
425.658	4.04
425.865	4.13
426.072	4
426.28	3.98
426.487	4.18
426.694	4.21
426.901	4.13
427.108	4.25
427.315	4.28
427.523	4.06
427.73	4.01
427.937	3.9
428.144	3.99
428.351	3.73
428.558	3.88
428.765	3.9
428.972	4.1
429.179	3.88
429.386	4.11
429.593	4.01
429.8	4.1
430.007	3.94
430.214	4.06
430.421	3.96
430.628	4.08
430.835	4.02
431.042	4.1
431.249	4.14
431.456	4.18
431.662	4.18
431.869	4.23
432.076	4.18
432.283	4.07
432.49	4.12
432.697	4.14
432.903	4.21
433.11	4.33
433.317	4.27
433.524	4.2
433.73	4.15
433.937	4.07
434.144	4.03
434.35	4.02
434.557	4.02
434.764	3.93
434.97	3.94
435.177	4.05
435.384	3.87
435.59	3.92
435.797	3.88
436.003	3.9
436.21	3.6
436.416	3.68
436.623	3.65
436.829	3.65
437.036	3.58
437.242	3.7
437.449	3.76
437.655	3.85
437.862	3.99
438.068	3.99
438.275	4.02
438.481	3.98
438.687	3.95
438.894	3.91
439.1	3.89
439.307	3.83
439.513	3.94
439.719	3.96
439.926	3.87
440.132	4.11
440.338	4.14
440.544	4.01
440.751	3.88
440.957	3.98
441.163	3.69
441.369	3.7
441.575	3.75
441.782	3.93
441.988	3.86
442.194	3.95
442.4	3.96
442.606	3.92
442.812	3.86
443.018	3.9
443.224	3.91
443.431	3.97
443.637	4.12
443.843	4.01
444.049	4
444.255	3.93
444.461	3.74
444.667	3.63
444.873	3.69
445.079	3.78
445.284	3.79
445.49	3.91
445.696	3.89
445.902	3.89
446.108	3.85
446.314	3.81
446.52	3.84
446.726	3.9
446.931	3.95
447.137	3.86
447.343	3.83
447.549	3.62
447.755	3.56
447.96	3.47
448.166	3.59
448.372	3.7
448.578	3.8
448.783	3.89
448.989	3.99
449.195	3.86
449.4	3.88
449.606	3.94
449.812	3.86
450.017	3.76
450.223	3.8
450.428	3.72
450.634	3.72
450.84	3.76
451.045	3.78
451.251	3.85
451.456	3.94
451.662	3.92
451.867	4.02
452.073	3.95
452.278	3.9
452.483	3.86
452.689	3.89
452.894	3.81
453.1	3.89
453.305	3.93
453.51	3.95
453.716	3.86
453.921	3.89
454.127	3.83
454.332	3.75
454.537	3.72
454.742	3.7
454.948	3.63
455.153	3.72
455.358	3.73
455.563	3.78
455.769	3.82
455.974	3.8
456.179	3.7
456.384	3.62
456.589	3.65
456.795	3.56
457	3.56
457.205	3.42
457.41	3.43
457.615	3.34
457.82	3.44
458.025	3.39
458.23	3.61
458.435	3.67
458.64	3.55
458.845	3.57
459.05	3.51
459.255	3.5
459.46	3.51
459.665	3.72
459.87	3.76
460.075	3.97
460.28	3.92
460.485	3.93
460.69	3.89
460.895	3.82
461.099	3.77
461.304	3.78
461.509	3.76
461.714	3.69
461.919	3.8
462.123	3.76
462.328	3.7
462.533	3.73
462.738	3.69
462.942	3.61
463.147	3.62
463.352	3.63
463.556	3.62
463.761	3.62
463.966	3.51
464.17	3.52
464.375	3.6
464.58	3.63
464.784	3.76
464.989	3.9
465.193	3.88
465.398	3.91
465.602	3.95
465.807	3.79
466.011	3.72
466.216	3.65
466.42	3.65
466.625	3.54
466.829	3.61
467.034	3.73
467.238	3.8
467.443	3.82
467.647	3.8
467.851	3.83
468.056	3.72
468.26	3.73
468.464	3.72
468.669	3.74
468.873	3.76
469.077	3.81
469.282	3.78
469.486	3.72
469.69	3.7
469.894	3.67
470.099	3.63
470.303	3.66
470.507	3.69
470.711	3.83
470.915	3.88
471.119	3.93
471.324	3.96
471.528	3.95
471.732	3.91
471.936	3.88
472.14	3.84
472.344	3.85
472.548	3.83
472.752	3.75
472.956	3.75
473.16	3.82
473.364	3.73
473.568	3.79
473.772	3.79
473.976	3.81
474.18	3.71
474.384	3.76
474.588	3.72
474.792	3.69
474.995	3.62
475.199	3.67
475.403	3.71
475.607	3.73
475.811	3.79
476.015	3.85
476.218	3.83
476.422	3.77
476.626	3.71
476.83	3.77
477.033	3.75
477.237	3.74
477.441	3.76
477.644	3.76
477.848	3.7
478.052	3.66
478.255	3.66
478.459	3.64
478.663	3.68
478.866	3.71
479.07	3.78
479.273	3.77
479.477	3.77
479.681	3.84
479.884	3.82
480.088	3.79
480.291	3.87
480.495	3.9
480.698	3.8
480.901	3.82
481.105	3.85
481.308	3.76
481.512	3.69
481.715	3.67
481.919	3.63
482.122	3.6
482.325	3.67
482.529	3.7
482.732	3.75
482.935	3.76
483.138	3.85
483.342	3.82
483.545	3.85
483.748	3.84
483.952	3.86
484.155	3.76
484.358	3.77
484.561	3.81
484.764	3.78
484.967	3.89
485.171	3.95
485.374	3.94
485.577	3.9
485.78	3.98
485.983	3.91
486.186	3.85
486.389	3.85
486.592	3.87
486.795	3.81
486.998	3.83
487.201	3.86
487.404	3.99
487.607	4.02
487.81	4.09
488.013	4.03
488.216	4.08
488.419	4
488.622	3.91
488.825	3.88
489.028	3.95
489.231	3.94
489.433	3.92
489.636	3.98
489.839	4.02
490.042	4
490.245	3.98
490.447	4.01
490.65	4.03
490.853	3.99
491.056	4.04
491.258	4.05
491.461	4.06
491.664	3.99
491.866	4.04
492.069	4
492.272	4.02
492.474	4.08
492.677	4.22
492.879	4.23
493.082	4.23
493.285	4.32
493.487	4.35
493.69	4.36
493.892	4.36
494.095	4.39
494.297	4.43
494.5	4.43
494.702	4.42
494.905	4.5
495.107	4.55
495.309	4.56
495.512	4.58
495.714	4.62
495.917	4.67
496.119	4.68
496.321	4.68
496.524	4.67
496.726	4.74
496.928	4.75
497.13	4.92
497.333	4.95
497.535	4.96
497.737	4.98
497.939	4.94
498.142	4.83
498.344	4.91
498.546	4.97
498.748	5.06
498.95	5.11
499.152	5.11
499.355	5.05
499.557	5.09
499.759	5.07
499.961	5.13
500.163	5.2
500.365	5.25
500.567	5.23
500.769	5.17
500.971	5.21
501.173	5.18
501.375	5.26
501.577	5.32
501.779	5.43
501.981	5.39
502.183	5.44
502.385	5.32
502.587	5.25
502.788	5.29
502.99	5.27
503.192	5.21
503.394	5.24
503.596	5.33
503.798	5.29
503.999	5.36
504.201	5.37
504.403	5.42
504.605	5.41
504.806	5.39
505.008	5.34
505.21	5.34
505.411	5.27
505.613	5.19
505.815	5.16
506.016	5.17
506.218	5.24
506.42	5.29
506.621	5.38
506.823	5.36
507.024	5.34
507.226	5.33
507.427	5.24
507.629	5.13
507.83	5.08
508.032	5.02
508.233	5
508.435	5.02
508.636	5.04
508.838	5.05
509.039	5.1
509.24	5.08
509.442	5.08
509.643	5.02
509.845	5.03
510.046	4.98
510.247	4.92
510.448	4.93
510.65	4.92
510.851	4.88
511.052	4.91
511.254	4.95
511.455	4.97
511.656	5.07
511.857	5.12
512.058	5.12
512.26	5.09
512.461	5.03
512.662	4.97
512.863	4.95
513.064	4.89
513.265	4.86
513.466	4.91
513.667	4.96
513.868	4.9
514.069	4.95
514.27	4.95
514.471	4.95
514.672	4.86
514.873	4.86
515.074	4.83
515.275	4.87
515.476	4.8
515.677	4.8
515.878	4.8
516.079	4.77
516.28	4.7
516.481	4.75
516.682	4.77
516.882	4.82
517.083	4.83
517.284	4.91
517.485	4.85
517.686	4.85
517.886	4.85
518.087	4.87
518.288	4.81
518.488	4.82
518.689	4.83
518.89	4.81
519.091	4.84
519.291	4.88
519.492	4.86
519.692	4.84
519.893	4.88
520.094	4.83
520.294	4.83
520.495	4.89
520.695	4.91
520.896	4.81
521.096	4.84
521.297	4.85
521.497	4.82
521.698	4.74
521.898	4.79
522.099	4.78
522.299	4.76
522.499	4.78
522.7	4.84
522.9	4.87
523.101	4.87
523.301	4.84
523.501	4.84
523.702	4.86
523.902	4.84
524.102	4.9
524.302	4.95
524.503	4.98
524.703	4.99
524.903	5.02
525.103	4.98
525.304	4.94
525.504	4.92
525.704	4.86
525.904	4.88
526.104	4.89
526.304	4.97
526.504	4.97
526.705	4.98
526.905	4.94
527.105	4.89
527.305	4.83
527.505	4.85
527.705	4.87
527.905	4.79
528.105	4.76
528.305	4.73
528.505	4.72
528.705	4.72
528.905	4.77
529.105	4.85
529.304	4.88
529.504	4.89
529.704	4.91
529.904	5
530.104	5.01
530.304	5
530.503	5.04
530.703	4.99
530.903	5.01
531.103	5.04
531.303	5.08
531.502	5.07
531.702	5.11
531.902	4.99
532.101	4.96
532.301	4.97
532.501	4.94
532.7	4.98
532.9	5.05
533.1	5.05
533.299	5.04
533.499	5.08
533.698	5.04
533.898	5.04
534.097	5.07
534.297	5.07
534.496	5.04
534.696	5.07
534.895	5.03
535.095	5.05
535.294	5.06
535.494	5.04
535.693	5.05
535.892	5.12
536.092	5.09
536.291	5.06
536.491	5.14
536.69	5.15
536.889	5.12
537.088	5.12
537.288	5.17
537.487	5.19
537.686	5.2
537.886	5.26
538.085	5.3
538.284	5.35
538.483	5.33
538.682	5.38
538.882	5.38
539.081	5.39
539.28	5.39
539.479	5.43
539.678	5.48
539.877	5.48
540.076	5.48
540.275	5.46
540.474	5.41
540.673	5.37
540.872	5.39
541.071	5.44
541.27	5.5
541.469	5.54
541.668	5.53
541.867	5.53
542.066	5.52
542.265	5.59
542.464	5.59
542.663	5.67
542.862	5.73
543.06	5.7
543.259	5.7
543.458	5.76
543.657	5.77
543.856	5.77
544.054	5.83
544.253	5.78
544.452	5.8
544.651	5.77
544.849	5.72
545.048	5.7
545.247	5.8
545.445	5.83
545.644	5.85
545.843	5.93
546.041	5.99
546.24	5.95
546.438	6
546.637	6.09
546.836	6.09
547.034	6.13
547.233	6.2
547.431	6.21
547.63	6.22
547.828	6.29
548.027	6.3
548.225	6.27
548.423	6.3
548.622	6.28
548.82	6.33
549.019	6.35
549.217	6.4
549.415	6.47
549.614	6.54
549.812	6.52
550.01	6.56
550.209	6.63
550.407	6.59
550.605	6.63
550.803	6.7
551.002	6.75
551.2	6.76
551.398	6.79
551.596	6.82
551.794	6.8
551.993	6.78
552.191	6.79
552.389	6.82
552.587	6.88
552.785	6.97
552.983	7.08
553.181	7.17
553.379	7.23
553.577	7.28
553.775	7.32
553.973	7.38
554.171	7.39
554.369	7.49
554.567	7.55
554.765	7.59
554.963	7.55
555.161	7.63
555.359	7.67
555.557	7.73
555.755	7.81
555.952	7.9
556.15	7.97
556.348	8.07
556.546	8.12
556.744	8.17
556.941	8.25
557.139	8.26
557.337	8.34
557.535	8.33
557.732	8.34
557.93	8.4
558.128	8.45
558.325	8.49
558.523	8.5
558.721	8.53
558.918	8.57
559.116	8.76
559.313	8.74
559.511	8.88
559.708	9.02
559.906	9.09
560.104	9.06
560.301	9.18
560.498	9.29
560.696	9.29
560.893	9.35
561.091	9.32
561.288	9.42
561.486	9.39
561.683	9.51
561.88	9.52
562.078	9.67
562.275	9.61
562.473	9.68
562.67	9.7
562.867	9.84
563.064	9.96
563.262	10.08
563.459	10.23
563.656	10.39
563.853	10.42
564.051	10.41
564.248	10.45
564.445	10.44
564.642	10.47
564.839	10.59
565.036	10.75
565.234	10.76
565.431	10.88
565.628	10.87
565.825	10.87
566.022	10.97
566.219	11.13
566.416	11.23
566.613	11.41
566.81	11.53
567.007	11.42
567.204	11.41
567.401	11.47
567.598	11.49
567.795	11.43
567.991	11.6
568.188	11.78
568.385	11.76
568.582	11.91
568.779	12.04
568.976	12.12
569.172	12.12
569.369	12.16
569.566	12.19
569.763	12.17
569.96	12.18
570.156	12.19
570.353	12.28
570.55	12.31
570.746	12.42
570.943	12.49
571.14	12.54
571.336	12.51
571.533	12.49
571.729	12.5
571.926	12.52
572.123	12.6
572.319	12.78
572.516	12.85
572.712	12.97
572.909	13
573.105	13.01
573.302	12.97
573.498	12.97
573.695	12.93
573.891	12.97
574.087	12.97
574.284	12.97
574.48	13.04
574.677	13.05
574.873	13.1
575.069	13.14
575.266	13.11
575.462	13.14
575.658	13.17
575.854	13.24
576.051	13.23
576.247	13.3
576.443	13.33
576.639	13.38
576.835	13.24
577.032	13.26
577.228	13.27
577.424	13.25
577.62	13.2
577.816	13.27
578.012	13.32
578.208	13.37
578.404	13.39
578.6	13.42
578.796	13.39
578.993	13.42
579.189	13.38
579.384	13.27
579.58	13.24
579.776	13.25
579.972	13.2
580.168	13.24
580.364	13.35
580.56	13.3
580.756	13.25
580.952	13.13
581.148	13.09
581.343	13.06
581.539	13.16
581.735	13.15
581.931	13.27
582.127	13.32
582.322	13.28
582.518	13.11
582.714	13.15
582.909	13.11
583.105	12.96
583.301	12.96
583.496	13.02
583.692	12.99
583.888	12.93
584.083	12.91
584.279	12.98
584.474	12.98
584.67	12.93
584.866	12.92
585.061	12.96
585.257	12.85
585.452	12.92
585.648	12.9
585.843	12.83
586.039	12.87
586.234	12.84
586.429	12.74
586.625	12.68
586.82	12.73
587.015	12.68
587.211	12.67
587.406	12.73
587.601	12.79
587.797	12.8
587.992	12.75
588.187	12.73
588.383	12.69
588.578	12.71
588.773	12.68
588.968	12.75
589.163	12.77
589.359	12.71
589.554	12.65
589.749	12.77
589.944	12.75
590.139	12.8
590.334	12.91
590.529	12.99
590.724	12.95
590.919	13.06
591.114	13.06
591.309	12.98
591.504	12.98
591.699	13
591.894	12.86
592.089	12.85
592.284	12.85
592.479	12.83
592.674	12.82
592.869	12.94
593.064	13
593.259	13.11
593.454	13.23
593.648	13.29
593.843	13.35
594.038	13.43
594.233	13.38
594.428	13.39
594.622	13.43
594.817	13.54
595.012	13.55
595.206	13.66
595.401	13.74
595.596	13.84
595.79	13.74
595.985	13.79
596.18	13.82
596.374	13.78
596.569	13.76
596.763	13.83
596.958	13.93
597.153	13.92
597.347	13.95
597.542	14.09
597.736	14.19
597.931	14.08
598.125	14.19
598.319	14.29
598.514	14.22
598.708	14.14
598.903	14.24
599.097	14.31
599.291	14.26
599.486	14.32
599.68	14.38
599.874	14.38
600.069	14.43
600.263	14.53
600.457	14.56
600.651	14.57
600.846	14.68
601.04	14.64
601.234	14.62
601.428	14.64
601.622	14.69
601.817	14.64
602.011	14.67
602.205	14.74
602.399	14.82
602.593	14.93
602.787	14.98
602.981	15.01
603.175	15.1
603.369	14.98
603.563	14.95
603.757	14.9
603.951	14.82
604.145	14.69
604.339	14.68
604.533	14.67
604.727	14.67
604.921	14.76
605.115	14.72
605.309	14.7
605.502	14.7
605.696	14.63
605.89	14.53
606.084	14.52
606.278	14.54
606.471	14.34
606.665	14.33
606.859	14.25
607.053	14.23
607.246	14.13
607.44	14.17
607.634	14.14
607.827	14.06
608.021	13.97
608.214	13.84
608.408	13.76
608.602	13.75
608.795	13.8
608.989	13.74
609.182	13.78
609.376	13.75
609.569	13.67
609.763	13.56
609.956	13.53
610.15	13.45
610.343	13.33
610.537	13.29
610.73	13.26
610.923	13.3
611.117	13.31
611.31	13.39
611.504	13.39
611.697	13.32
611.89	13.19
612.083	13.04
612.277	12.91
612.47	12.72
612.663	12.71
612.856	12.6
613.05	12.55
613.243	12.54
613.436	12.52
613.629	12.44
613.822	12.5
614.015	12.49
614.209	12.39
614.402	12.28
614.595	12.24
614.788	12.15
614.981	12.18
615.174	12.11
615.367	12.2
615.56	12.08
615.753	11.97
615.946	11.81
616.139	11.82
616.332	11.75
616.525	11.74
616.718	11.73
616.911	11.77
617.103	11.75
617.296	11.72
617.489	11.66
617.682	11.66
617.875	11.63
618.067	11.52
618.26	11.42
618.453	11.36
618.646	11.3
618.838	11.21
619.031	11.22
619.224	11.26
619.417	11.34
619.609	11.33
619.802	11.32
619.994	11.29
620.187	11.22
620.38	11.07
620.572	11.01
620.765	10.95
620.957	10.93
621.15	10.87
621.342	10.84
621.535	10.77
621.727	10.81
621.92	10.7
622.112	10.72
622.305	10.76
622.497	10.79
622.69	10.7
622.882	10.75
623.074	10.79
623.267	10.74
623.459	10.66
623.651	10.65
623.844	10.68
624.036	10.63
624.228	10.64
624.42	10.65
624.613	10.64
624.805	10.56
624.997	10.47
625.189	10.4
625.381	10.46
625.574	10.48
625.766	10.46
625.958	10.51
626.15	10.55
626.342	10.43
626.534	10.4
626.726	10.4
626.918	10.31
627.11	10.31
627.302	10.32
627.494	10.29
627.686	10.22
627.878	10.32
628.07	10.24
628.262	10.2
628.454	10.15
628.646	10.17
628.838	10.09
629.029	10.08
629.221	10.06
629.413	10.1
629.605	10.03
629.797	9.97
629.989	9.97
630.18	9.93
630.372	9.91
630.564	9.97
630.755	10.08
630.947	10.01
631.139	10.01
631.33	9.96
631.522	9.89
631.714	9.81
631.905	9.77
632.097	9.83
632.289	9.77
632.48	9.67
632.672	9.6
632.863	9.56
633.055	9.46
633.246	9.5
633.438	9.56
633.629	9.56
633.821	9.51
634.012	9.48
634.203	9.53
634.395	9.5
634.586	9.55
634.777	9.63
634.969	9.65
635.16	9.55
635.351	9.52
635.543	9.41
635.734	9.41
635.925	9.37
636.117	9.33
636.308	9.32
636.499	9.32
636.69	9.22
636.881	9.18
637.073	9.25
637.264	9.33
637.455	9.33
637.646	9.36
637.837	9.33
638.028	9.21
638.219	9.13
638.41	9.03
638.601	9.05
638.792	9.06
638.983	9.12
639.174	9.1
639.365	9.12
639.556	9.1
639.747	9.08
639.938	9.06
640.129	9.07
640.32	9.1
640.511	9.09
640.701	9.15
640.892	9.12
641.083	9.12
641.274	9.11
641.465	9.04
641.655	9.02
641.846	9.03
642.037	8.97
642.228	8.97
642.418	8.96
642.609	8.85
642.8	8.78
642.99	8.8
643.181	8.7
643.372	8.69
643.562	8.74
643.753	8.73
643.943	8.74
644.134	8.81
644.324	8.79
644.515	8.8
644.705	8.73
644.896	8.66
645.086	8.59
645.277	8.6
645.467	8.57
645.658	8.59
645.848	8.62
646.038	8.62
646.229	8.66
646.419	8.61
646.61	8.65
646.8	8.63
646.99	8.69
647.18	8.53
647.371	8.52
647.561	8.39
647.751	8.34
647.941	8.2
648.132	8.28
648.322	8.23
648.512	8.31
648.702	8.33
648.892	8.33
649.082	8.35
649.272	8.31
649.462	8.25
649.653	8.2
649.843	8.2
650.033	8.1
650.223	8.11
650.413	8.08
650.603	8.1
650.793	8.01
650.983	8.06
651.172	8.15
651.362	8.14
651.552	8.09
651.742	8.17
651.932	8.1
652.122	8.04
652.312	8.05
652.502	8.01
652.691	8.04
652.881	8.08
653.071	8.04
653.261	7.99
653.45	7.89
653.64	7.88
653.83	7.86
654.019	7.75
654.209	7.75
654.399	7.78
654.588	7.63
654.778	7.48
654.968	7.46
655.157	7.37
655.347	7.26
655.536	7.21
655.726	7.14
655.915	7.12
656.105	7.03
656.294	7.06
656.484	6.99
656.673	6.99
656.863	6.89
657.052	6.89
657.241	6.72
657.431	6.62
657.62	6.49
657.809	6.29
657.999	6.22
658.188	6.19
658.377	6.18
658.567	6.1
658.756	6.07
658.945	6.02
659.134	6
659.324	5.94
659.513	6
659.702	5.99
659.891	5.86
660.08	5.68
660.269	5.53
660.458	5.32
660.648	5.36
660.837	5.39
661.026	5.41
661.215	5.37
661.404	5.34
661.593	5.17
661.782	5.04
661.971	4.96
662.16	4.99
662.349	4.98
662.538	5.01
662.726	5.1
662.915	5.16
663.104	5.08
663.293	5.01
663.482	4.99
663.671	4.74
663.86	4.65
664.048	4.69
664.237	4.66
664.426	4.59
664.615	4.62
664.803	4.54
664.992	4.5
665.181	4.55
665.369	4.56
665.558	4.61
665.747	4.71
665.935	4.78
666.124	4.79
666.312	4.83
666.501	4.84
666.69	4.81
666.878	4.81
667.067	4.73
667.255	4.75
667.444	4.77
667.632	4.84
667.82	4.84
668.009	4.93
668.197	4.92
668.386	4.93
668.574	4.86
668.762	4.87
668.951	4.95
669.139	5.14
669.327	5.21
669.516	5.4
669.704	5.47
669.892	5.46
670.08	5.34
670.269	5.37
670.457	5.22
670.645	5.23
670.833	5.24
671.021	5.27
671.21	5.25
671.398	5.36
671.586	5.38
671.774	5.47
671.962	5.56
672.15	5.7
672.338	5.85
672.526	6.07
672.714	6.1
672.902	6.07
673.09	6.23
673.278	6.12
673.466	6.06
673.654	6.24
673.842	6.46
674.03	6.41
674.218	6.63
674.405	6.71
674.593	6.62
674.781	6.75
674.969	6.75
675.157	6.73
675.344	6.79
675.532	6.93
675.72	6.92
675.908	7.01
676.095	6.98
676.283	7.03
676.471	7.21
676.658	7.3
676.846	7.26
677.033	7.47
677.221	7.59
677.409	7.61
677.596	7.61
677.784	7.99
677.971	8
678.159	7.98
678.346	8.01
678.534	8.15
678.721	8.18
678.909	8.35
679.096	8.46
679.283	8.62
679.471	8.56
679.658	8.48
679.846	8.54
680.033	8.58
680.22	8.56
680.408	8.69
680.595	8.87
680.782	8.84
680.969	9.01
681.157	9.1
681.344	9.06
681.531	9.08
681.718	9.18
681.905	9.09
682.093	9.15
682.28	9.27
682.467	9.45
682.654	9.46
682.841	9.52
683.028	9.41
683.215	9.57
683.402	9.52
683.589	9.74
683.776	10.12
683.963	10.25
684.15	10.39
684.337	10.61
684.524	10.77
684.711	10.68
684.898	10.88
685.085	10.94
685.271	11.07
685.458	10.95
685.645	11.06
685.832	11.24
686.019	11.44
686.205	11.62
686.392	11.97
686.579	12.13
686.766	12.39
686.952	12.52
687.139	12.57
687.326	12.85
687.512	13.06
687.699	13.13
687.886	13.38
688.072	13.56
688.259	13.68
688.445	14.02
688.632	14.39
688.818	14.57
689.005	14.84
689.191	15.14
689.378	15.38
689.564	15.7
689.751	16.02
689.937	16.44
690.124	16.64
690.31	16.97
690.496	17.55
690.683	18.1
690.869	18.51
691.055	18.94
691.242	19.42
691.428	19.65
691.614	19.94
691.8	20.22
691.987	20.72
692.173	21.22
692.359	21.71
692.545	22.27
692.731	22.92
692.918	23.52
693.104	23.83
693.29	24.28
693.476	24.68
693.662	25.21
693.848	25.69
694.034	26.24
694.22	26.63
694.406	27.28
694.592	27.71
694.778	28.15
694.964	28.84
695.15	29.45
695.336	29.81
695.522	30.54
695.708	31.29
695.894	31.78
696.08	32.3
696.265	33.05
696.451	33.59
696.637	34.08
696.823	34.4
697.009	35.2
697.194	35.79
697.38	36.47
697.566	37.11
697.751	37.99
697.937	38.54
698.123	39.07
698.308	39.33
698.494	39.99
698.68	40.51
698.865	40.94
699.051	41.58
699.236	42.31
699.422	42.8
699.607	43.49
699.793	44.1
699.978	44.48
700.164	45.1
700.349	45.55
700.535	45.86
700.72	46.21
700.906	46.71
701.091	47.13
701.276	47.69
701.462	48.14
701.647	48.8
701.832	49.72
702.018	50.16
702.203	50.47
702.388	50.96
702.573	51.32
702.759	51.32
702.944	51.82
703.129	52.56
703.314	53.07
703.499	53.66
703.684	54.41
703.87	54.88
704.055	55.11
704.24	55.45
704.425	55.71
704.61	56.11
704.795	56.27
704.98	56.74
705.165	57.26
705.35	58.07
705.535	58.55
705.72	59.58
705.905	59.98
706.09	60.68
706.275	61.03
706.459	61.44
706.644	61.2
706.829	61.63
707.014	61.77
707.199	61.79
707.384	61.72
707.568	62.44
707.753	62.6
707.938	62.8
708.123	63.41
708.307	63.87
708.492	64.19
708.677	64.5
708.861	65.18
709.046	65.17
709.231	65.7
709.415	65.61
709.6	65.91
709.784	66
709.969	66.25
710.153	66.24
710.338	66.44
710.522	67.16
710.707	67.28
710.891	67.72
711.076	68.03
711.26	68.69
711.445	68.73
711.629	69.21
711.813	68.94
711.998	69.37
712.182	69.3
712.366	69.88
712.551	69.72
712.735	70.2
712.919	70.4
713.103	70.41
713.288	69.96
713.472	70.4
713.656	70.71
713.84	70.75
714.024	71.21
714.208	71.66
714.393	72.24
714.577	72.82
714.761	73.05
714.945	73.6
715.129	73.66
715.313	73.54
715.497	73.35
715.681	73.6
715.865	73.58
716.049	73.75
716.233	74.17
716.417	74.71
716.601	74.68
716.785	74.85
716.968	75.07
717.152	75.24
717.336	75.3
717.52	75.68
717.704	75.75
717.888	76.41
718.071	76.48
718.255	76.8
718.439	76.75
718.622	76.22
718.806	75.99
718.99	76.33
719.174	76.13
719.357	76.79
719.541	78.05
719.724	78.11
719.908	77.96
720.092	78.2
720.275	78.1
720.459	77.67
720.642	77.99
720.826	78.16
721.009	78.86
721.193	79.46
721.376	80.31
721.559	80.62
721.743	81.42
721.926	81.07
722.11	80.72
722.293	80.33
722.476	80.55
722.66	80.29
722.843	80.25
723.026	80.64
723.21	81.3
723.393	81
723.576	81.1
723.759	81.01
723.942	81.31
724.126	81.04
724.309	81.91
724.492	81.47
724.675	82
724.858	81.82
725.041	82.03
725.224	81.96
725.407	82.71
725.59	83.06
725.774	83.61
725.957	83.65
726.14	84.03
726.322	84.22
726.505	84.47
726.688	84.61
726.871	85.26
727.054	85.28
727.237	85.32
727.42	85.83
727.603	85.44
727.786	85.57
727.968	85.87
728.151	86.31
728.334	86.08
728.517	86.69
728.699	86.89
728.882	86.81
729.065	86.77
729.248	86.89
729.43	87.2
729.613	87.64
729.796	86.97
729.978	87.63
730.161	87.77
730.343	87.6
730.526	88.07
730.708	88.8
730.891	88.86
731.073	88.85
731.256	89.6
731.438	89.14
731.621	89.6
731.803	89.46
731.986	90.13
732.168	90.17
732.35	89.84
732.533	89.7
732.715	90.15
732.898	90.77
733.08	90.79
733.262	91.44
733.444	91.89
733.627	92.15
733.809	91.78
733.991	92.01
734.173	92.27
734.355	92.34
734.538	91.96
734.72	92.47
734.902	93.09
735.084	93.16
735.266	93.17
735.448	93.53
735.63	93.03
735.812	92.25
735.994	91.58
736.176	91.87
736.358	92.64
736.54	93.21
736.722	93.53
736.904	94.58
737.086	94.53
737.268	93.98
737.45	93.49
737.632	93.8
737.814	93.67
737.995	94.37
738.177	94.44
738.359	95.59
738.541	95.22
738.723	95.3
738.904	94.95
739.086	94.85
739.268	94.48
739.449	94.52
739.631	94.86
739.813	95.8
739.994	96.47
740.176	96.19
740.358	97.09
740.539	97.11
740.721	96.63
740.902	96.08
741.084	96.09
741.265	95.38
741.447	95.07
741.628	94.48
741.81	95
741.991	95.69
742.172	96.37
742.354	96.97
742.535	97.94
742.717	98.19
742.898	98.06
743.079	97.24
743.261	95.88
743.442	94.95
743.623	94.47
743.804	93.84
743.986	94.22
744.167	94.99
744.348	94.22
744.529	94.73
744.71	95.39
744.891	96.42
745.073	96.71
745.254	98.8
745.435	98.31
745.616	97.47
745.797	96.5
745.978	95.9
746.159	95.78
746.34	95.85
746.521	95.98
746.702	95.68
746.883	95.94
747.064	94.71
747.245	94.9
747.426	95.21
747.606	94.93
747.787	95.23
747.968	94.5
748.149	94.46
748.33	94.34
748.51	95.84
748.691	95.47
748.872	97.5
749.053	97.8
749.233	98.11
749.414	95.98
749.595	96.65
749.775	96.49
749.956	96.21
750.137	96.6
750.317	97.09
750.498	98.01
750.678	96.96
750.859	96.47
751.04	95.2
751.22	95.92
751.4	95.22
751.581	96.53
751.761	96.81
751.942	97.26
752.122	97.91
752.303	96.58
752.483	95.48
752.663	94.31
752.844	93.7
753.024	92.93
753.204	92.46
753.385	91.27
753.565	93.68
753.745	95.1
753.925	94.85
754.106	97.23
754.286	98.5
754.466	97.15
754.646	96.78
754.826	96.9
755.006	96.25
755.187	98.06
755.367	98.24
755.547	97.73
755.727	97.66
755.907	96.56
756.087	95.41
756.267	94.27
756.447	94.4
756.627	95.12
756.807	96.02
756.987	95.17
757.167	95.81
757.346	96.75
757.526	95.89
757.706	95.56
757.886	94.36
758.066	95.04
758.246	93.55
758.425	93.47
758.605	94.17
758.785	95.52
758.965	95.76
759.144	97.7
759.324	98.11
759.504	97.14
759.683	96.72
759.863	95.65
760.043	94.44
760.222	92.34
760.402	91.59
760.581	92.54
760.761	91.75
760.94	90.76
761.12	92.32
761.299	92.88
761.479	92.59
761.658	93.71
761.838	95.11
762.017	94.43
762.197	93.23
762.376	92.63
762.555	91.19
762.735	91.24
762.914	90.45
763.093	90.83
763.273	91.88
763.452	92.83
763.631	89.5
763.81	92.08
763.99	93.12
764.169	92.85
764.348	93.15
764.527	95.86
764.706	92.86
764.885	92.13
765.064	91.32
765.243	91.46
765.423	90.14
765.602	90.78
765.781	91.84
765.96	91.73
766.139	90.09
766.318	89.96
766.497	92.47
766.676	92.58
766.854	92.26
767.033	94.1
767.212	93.88
767.391	90.17
767.57	90.85
767.749	89.87
767.928	88.96
768.106	90.87
768.285	92.76
768.464	91.37
768.643	92.13
768.821	92.92
769	92.5
769.179	91.74
769.357	90.53
769.536	89.42
769.715	87.68
769.893	88.43
770.072	87.1
770.25	88.3
770.429	90.13
770.607	90.51
770.786	89.16
770.964	89.68
771.143	89.19
771.321	88.72
771.5	88.75
771.678	88.09
771.857	89.12
772.035	89.73
772.213	88.84
772.392	90.23
772.57	90.93
772.748	89.63
772.927	88.83
773.105	89.31
773.283	87.63
773.461	87.65
773.64	89.8
773.818	89.71
773.996	87.86
774.174	87.8
774.352	85.14
774.531	84.67
774.709	87.5
774.887	90.8
775.065	91.37
775.243	93.72
775.421	92.4
775.599	88.77
775.777	85.6
775.955	84.84
776.133	86.02
776.311	88.93
776.489	90.59
776.667	92.26
776.844	92.08
777.022	90.2
777.2	89.78
777.378	89.09
777.556	90.67
777.734	91.17
777.911	91.91
778.089	89.99
778.267	89.99
778.445	87.72
778.622	87.93
778.8	89.94
778.978	87.27
779.155	83.91
779.333	80.9
779.511	79.2
779.688	78.05
779.866	79.08
780.043	83.87
780.221	87.11
780.398	87.71
780.576	85.78
780.753	87.76
780.931	83.38
781.108	83.68
781.286	83.97
781.463	86.74
781.64	88.14
781.818	90.35
781.995	89.84
782.172	89.44
782.35	89.57
782.527	88.3
782.704	87.61
782.882	88.98
783.059	89.74
783.236	84.51
783.413	84.75
783.59	84.19
783.768	81.86
783.945	83.48
784.122	88.01
784.299	87.53
784.476	88.48
784.653	88.94
784.83	86.24
785.007	85.34
785.184	86.01
785.361	84.77
785.538	83.39
785.715	84.9
785.892	85.86
786.069	86.75
786.246	88.38
786.423	92.29
786.6	90.73
786.776	87.08
786.953	84.43
787.13	85.07
787.307	85.47
787.484	88.97
787.66	91.89
787.837	91.52
788.014	89.73
788.191	87.71
788.367	87.02
788.544	89.51
788.721	89.95
788.897	89.88
789.074	88.78
789.25	86.24
789.427	81.53
789.603	81.52
789.78	79.48
789.956	80.99
790.133	83.03
790.309	85.43
790.486	82.19
790.662	86.57
790.839	84.8
791.015	81.46
791.192	81.62
791.368	91
791.544	84.34
791.721	87.45
791.897	88.37
792.073	88.02
792.249	81.62
792.426	85.46
792.602	83.64
792.778	84.13
792.954	82.35
793.13	84.14
793.307	84.67
793.483	85.4
793.659	87.86
793.835	86.15
794.011	89.36
794.187	88.65
794.363	85.43
794.539	81.83
794.715	83.73
794.891	82.89
795.067	79.17
795.243	80.03
795.419	84.32
795.595	87.99
795.771	88.47
795.947	90.67
796.122	88.98
796.298	84.73
796.474	81.83
796.65	77.18
796.826	79.26
797.001	88.75
797.177	87.79
797.353	85.72
797.529	89.29
797.704	91
797.88	80.55
798.056	84.25
798.231	87.98
798.407	83.48
798.582	79.54
798.758	79.61
798.934	79.23
799.109	78.34
799.285	81.16
799.46	84.77
799.636	91.17
799.811	90.67
799.986	84.45
800.162	82.88
800.337	84.7
800.513	81.35
800.688	76.87
800.863	81.78
801.039	84.01
801.214	84.52
801.389	87.84
801.565	85.59
801.74	89.67
801.915	89.36
802.09	83.81
802.265	87.01
802.441	90.1
802.616	79.79
802.791	78.14
802.966	81.76
803.141	78.74
803.316	77.11
803.491	84.14
803.666	83.74
803.841	83.67
804.016	82.54
804.191	86.01
804.366	94.39
804.541	95.91
804.716	89.41
804.891	90.39
805.066	95.21
805.241	84.94
805.416	78.94
805.591	80.95
805.765	74.78
805.94	71.75
806.115	75.07
806.29	78.95
806.464	87.1
806.639	88.72
806.814	83.85
806.989	81.13
807.163	77.33
807.338	73.14
807.512	74.76
807.687	76.35
807.862	74.19
808.036	76.77
808.211	75.62
808.385	78.57
808.56	85.59
808.734	87.24
808.909	87.61
809.083	88.68
809.258	81.58
809.432	72.64
809.606	68.67
809.781	70.87
809.955	63.96
810.13	67.66
810.304	63.33
810.478	65.57
810.652	63.67
810.827	71.65
811.001	71.34
811.175	82.08
811.349	83.97
811.524	81.86
811.698	81.12
811.872	81.17
812.046	80.97
812.22	77.81
812.394	79.93
812.568	77.06
812.742	81.08
812.916	75.04
813.09	68.06
813.264	81
813.438	85.35
813.612	90.58
813.786	86.98
813.96	95.67
814.134	78.04
814.308	73.31
814.482	66.62
814.656	70.06
814.83	70.81
815.003	87.99
815.177	84.33
815.351	91.42
815.525	91.79
815.698	92.6
815.872	78.13
816.046	87.11
816.219	75.33
816.393	79.52
816.567	83.2
816.74	90.86
816.914	84.52
817.088	84.16
817.261	76.38
817.435	84.73
817.608	78.85
817.782	81.3
817.955	85.68
818.129	95.83
818.302	75.7
818.475	83.59
818.649	86.15
818.822	86.38
818.996	89.12
819.169	87.67
819.342	76.2
819.516	69.99
819.689	69.62
819.862	71.09
820.035	77.03
820.209	78.68
820.382	87.6
820.555	92.37
820.728	90.5
820.901	81.36
821.075	82.45
821.248	100.36
821.421	95.82
821.594	85.64
821.767	95.38
821.94	99.73
822.113	70.94
822.286	75.23
822.459	81.16
822.632	78.97
822.805	83.74
822.978	89.15
823.151	86.67
823.324	89.64
823.496	81.31
823.669	77.85
823.842	72.63
824.015	75.15
824.188	55.19
824.361	70.57
824.533	66.92
824.706	72.43
824.879	57.49
825.051	64.13
825.224	55.31
825.397	61.86
825.569	73.58
825.742	79.81
825.915	71.34
826.087	82.96
826.26	74.22
826.432	69.51
826.605	68.25
826.777	71.69
826.95	67.57
827.122	56.24
827.295	48.22
827.467	56.91
827.64	50.32
827.812	47.27
827.984	60.86
828.157	61.67
828.329	64.72
828.501	81.05
828.674	79.33
828.846	81.95
829.018	95.31
829.19	94.1
829.363	87.45
829.535	90.59
829.707	85.47
829.879	65.49
830.051	55.27
830.223	70.04
830.395	53.06
830.568	31.87
830.74	43.05
830.912	43
831.084	44.14
831.256	47.62
831.428	45.68
831.6	58.11
831.772	70.46
831.943	62.26
832.115	68.94
832.287	93.51
832.459	74.02
832.631	79.35
832.803	93.57
832.975	106.09
833.146	96.6
833.318	106.89
833.49	113.09
833.662	108.83
833.833	90.93
834.005	88.19
834.177	92.51
834.348	66.4
834.52	61.13
834.692	65.53
834.863	55.15
835.035	73.88
835.206	71.61
835.378	60.79
835.549	64.07
835.721	78.04
835.892	69.12
836.064	84.5
836.235	105.2
836.407	94.51
836.578	84.78
836.749	78.85
836.921	67.9
837.092	71.65
837.264	73.52
837.435	81.28
837.606	78.87
837.777	79.08
837.949	62.54
838.12	61.05
838.291	62.86
838.462	65.99
838.633	84.35
838.805	107.14
838.976	135.49
839.147	135.83
839.318	112.99
839.489	106.44
839.66	125.69
839.831	115.56
840.002	95.44
840.173	131.99
840.344	137.52
840.515	105.7
840.686	96.16
840.857	92.71
841.028	91.63
841.199	76.13
841.369	64.47
841.54	73.24
841.711	89.89
841.882	65.95
842.053	66.76
842.223	94.8
842.394	93.93
842.565	83.89
842.736	116.45
842.906	159.46
843.077	86.87
843.248	119.05
843.418	120.89
843.589	75.99
843.759	54.79
843.93	58.66
844.101	51.14
844.271	43.22
844.442	52.15
844.612	64.67
844.783	46.31
844.953	28.81
845.123	29.87
845.294	18.33
845.464	35.29
845.635	63.38
845.805	112.63
845.975	121.47
846.146	171.44
846.316	148.58
846.486	171.08
846.656	138.65
846.827	118.38
846.997	111.61
847.167	85.77
847.337	62.4
847.507	52.5
847.677	52.45
847.848	60.48
848.018	93.15
848.188	106.94
848.358	113.04
848.528	118.36
848.698	124.65
848.868	99.91
849.038	76.77
849.208	49.26
849.378	79.52
849.548	61.14
849.718	82.58
849.887	68.99
850.057	71.78
850.227	65.87
850.397	61.2
850.567	47.34
850.737	69.63
850.906	57.73
851.076	53.94
851.246	59.58
851.415	63.21
851.585	59.56
851.755	66.14
851.924	69.46
852.094	84.81
852.264	78.76
852.433	85.78
852.603	81.97
852.772	91.58
852.942	58.45
853.111	74.04
853.281	69.85
853.45	63.57
853.62	43.27
853.789	33.59
853.959	24.59
854.128	37.66
854.297	52.39
854.467	93.12
854.636	149.19
854.805	98.38
854.975	106.33
855.144	101.09
855.313	87.54
855.482	85.87
855.652	106.56
855.821	113.36
855.99	76.09
856.159	68.64
856.328	65.85
856.497	74.13
856.667	61.69
856.836	99.89
857.005	108.19
857.174	72.62
857.343	58.65
857.512	63.72
857.681	-10.55
857.85	9.52
858.019	13.14
858.188	21.97
858.356	31.01
858.525	63.48
858.694	74.49
858.863	69.28
859.032	61.84
859.201	62.91
859.369	66.78
859.538	46.92
859.707	65.16
859.876	53.02
860.044	53.06
860.213	49.72
860.382	57.04
860.55	58.13
860.719	74.9
860.888	111.14
861.056	112.11
861.225	117.57
861.393	133.23
861.562	157.1
861.73	157.72
861.899	122.05
862.067	110.79
862.236	100.48
862.404	74.61
862.572	63.13
862.741	72.28
862.909	61.25
863.078	58.08
863.246	65.08
863.414	86.18
863.582	83.3
863.751	68.83
863.919	63.75
864.087	85.05
864.255	62.97
864.424	52.59
864.592	61.49
864.76	77.81
864.928	69.54
865.096	50.75
865.264	65.99
865.432	71.74
865.6	54.11
865.768	43.39
865.936	49.07
866.104	51.56
866.272	28.53
866.44	24.16
866.608	11.92
866.776	55.28
866.944	90
867.112	101.95
867.28	92.89
867.448	113.17
867.615	100.37
867.783	82.22
867.951	75.17
868.119	96.58
868.286	84.11
868.454	71.41
868.622	76.23
868.789	107.56
868.957	92.78
869.125	98.64
869.292	81.63
869.46	73.9
869.627	65.24
869.795	71.59
869.963	73.88
870.13	82.08
870.298	74.05
870.465	85.39
870.632	72.62
870.8	74.64
870.967	99.91
871.135	118.53
871.302	59.46
871.469	60.15
871.637	64.55
871.804	48.48
871.971	51.56
872.139	87.55
872.306	87.61
872.473	102.61
872.64	99.42
872.807	74.65
872.975	52.84
873.142	69.93
873.309	33.66
873.476	56.31
873.643	66.31
873.81	88.29
873.977	69.23
874.144	76.57
874.311	67.96
874.478	76.19
874.645	61.07
874.812	70.22
874.979	66.6
875.146	72.03
875.313	69.65
875.48	94.13
875.647	116.07
875.813	144.64
875.98	114.77
876.147	91.09
876.314	87.21
876.481	47.77
876.647	27.48
876.814	44.09
876.981	50.86
877.147	45.03
877.314	66.29
877.481	79.89
877.647	64.19
877.814	64.78
877.98	32.81
878.147	31.44
878.314	27.78
878.48	42.2
878.647	62.39
878.813	88.53
878.979	74.99
879.146	91.78
879.312	121.01
879.479	93.63
879.645	94.43
879.811	77.41
879.978	54.21
880.144	83.51
880.31	72.44
880.477	71.53
880.643	81.3
880.809	84.84
880.975	53.33
881.142	45.98
881.308	53.47
881.474	169.54
881.64	148.99
881.806	287.21
881.972	188.72
882.138	198.49
882.304	79.63
882.47	46.99
882.636	35.2
882.802	42.19
882.968	31.6
883.134	34.64
883.3	56.49
883.466	96.39
883.632	126.83
883.798	179.41
883.964	322.62
884.129	512.81
884.295	312.05
884.461	172.96
884.627	121.25
884.793	105.2
884.958	78.62
885.124	68.71
885.29	61.72
885.455	75.3
885.621	63.9
885.787	51.27
885.952	48
886.118	58.88
886.283	46.05
886.449	66.05
886.614	95.25
886.78	108.52
886.945	110.34
887.111	100.17
887.276	73.51
887.442	53.87
887.607	20.03
887.773	15.75
887.938	-11.85
888.103	-6.51
888.269	6.85
888.434	12.38
888.599	10.17
888.764	30.75
888.93	52.63
889.095	47.4
889.26	63.24
889.425	75.84
889.59	75.27
889.756	49.47
889.921	43.22
890.086	34.78
890.251	28.53
890.416	9.73
890.581	-2.17
890.746	81.13
890.911	104.46
891.076	129.39
891.241	133.96
891.406	156.32
891.571	114.47
891.736	88.14
891.901	109.09
892.065	124.3
892.23	145.56
892.395	136.45
892.56	185.95
892.725	138.97
892.889	109.09
893.054	79.97
893.219	78.37
893.384	77.12
893.548	62.94
893.713	49.79
893.878	18.8
