Data from Ofav_PP_Phys_9JQ4_Reflection_2.txt Node
Date: Tue Jul 27 19:05:06 EDT 2021
User: USUARIO
Spectrometer: FLMT01687
Trigger mode: 0
Integration Time (sec): 8.500000E-1
Scans to average: 2
Electric dark correction enabled: true
Nonlinearity correction enabled: false
Boxcar width: 2
XAxis mode: Wavelengths
Number of Pixels in Spectrum: 3648
>>>>>Begin Spectral Data<<<<<
179.494	-1020.74
179.716	-328.49
179.937	-210.32
180.158	-186.28
180.38	-237.58
180.601	-228
180.823	54.7
181.044	61.69
181.265	25.98
181.486	-95.2
181.708	-73.57
181.929	89.45
182.15	44.49
182.372	-79.1
182.593	26.3
182.814	60.16
183.035	68.33
183.257	91.67
183.478	89.18
183.699	57.39
183.92	76
184.141	97.88
184.363	85.29
184.584	102.86
184.805	146.97
185.026	109.72
185.247	123.54
185.468	122.27
185.689	87.77
185.91	72.11
186.132	56.13
186.353	35.71
186.574	15.19
186.795	15.96
187.016	14.77
187.237	15.18
187.458	7.8
187.679	28.34
187.9	30.65
188.121	41.35
188.342	63.67
188.563	95.84
188.784	91.24
189.005	92.41
189.226	86.16
189.447	66.44
189.667	68.21
189.888	67.01
190.109	58.7
190.33	69.85
190.551	74.63
190.772	46.75
190.993	44.34
191.214	51.65
191.434	36.13
191.655	31.11
191.876	26.51
192.097	22.82
192.318	20.46
192.538	18.9
192.759	30.91
192.98	51.15
193.201	46.98
193.421	52.72
193.642	40.24
193.863	30.73
194.083	29.86
194.304	29.17
194.525	24.35
194.745	17.02
194.966	12.57
195.187	-33.23
195.407	3.63
195.628	-24.93
195.848	15.16
196.069	56.36
196.29	126.13
196.51	100.23
196.731	101.9
196.951	103.43
197.172	78.44
197.392	55.45
197.613	70.16
197.833	44.64
198.054	58.78
198.274	45.11
198.495	53.92
198.715	39.84
198.936	67.7
199.156	57.71
199.377	77.62
199.597	51.97
199.817	65.42
200.038	95.81
200.258	76.57
200.479	48.23
200.699	38.91
200.919	24.55
201.14	31.19
201.36	28.98
201.58	53.5
201.801	58.42
202.021	52.72
202.241	51.69
202.461	38.04
202.682	13.15
202.902	16.27
203.122	8.54
203.342	4.68
203.563	21.29
203.783	26.66
204.003	27.07
204.223	27.99
204.443	38.26
204.663	38.12
204.884	48.25
205.104	40.28
205.324	68.42
205.544	47.4
205.764	43.08
205.984	36.17
206.204	68.36
206.424	34.98
206.644	75.04
206.864	86.47
207.084	91.3
207.304	90.84
207.525	96.14
207.745	97.54
207.964	92.12
208.184	86.32
208.404	85.75
208.624	72.15
208.844	79.08
209.064	88.48
209.284	82.14
209.504	73.95
209.724	83.55
209.944	51.99
210.164	26.5
210.384	11.29
210.604	-19.16
210.823	8.21
211.043	31.15
211.263	28.46
211.483	39.74
211.703	45.34
211.922	53.81
212.142	20.73
212.362	13.91
212.582	-4.63
212.801	-2.61
213.021	-7.83
213.241	10.71
213.461	9.72
213.68	13.84
213.9	2.51
214.12	17.37
214.339	43.53
214.559	45.61
214.779	64.19
214.998	66.6
215.218	55.89
215.438	63.49
215.657	69.82
215.877	61.15
216.096	69.36
216.316	84.25
216.535	67.52
216.755	73.4
216.974	81.58
217.194	90.37
217.413	83.43
217.633	80.45
217.852	58.78
218.072	44.23
218.291	23.55
218.511	16.41
218.73	21.43
218.95	31.69
219.169	43.89
219.389	52.19
219.608	69.22
219.827	83.94
220.047	64.03
220.266	53.01
220.485	55.33
220.705	46.98
220.924	44.47
221.143	40.5
221.363	41.09
221.582	35.33
221.801	37.82
222.021	41.9
222.24	50.76
222.459	42.66
222.678	55.47
222.897	49.35
223.117	54.15
223.336	50.7
223.555	26.67
223.774	15.73
223.993	18.3
224.213	17.03
224.432	29.19
224.651	47.89
224.87	53.02
225.089	40.69
225.308	29.56
225.527	28.8
225.746	34.89
225.965	32.91
226.184	49.72
226.404	46.92
226.623	52.69
226.842	45.23
227.061	24.69
227.28	30.55
227.499	48.29
227.718	50.12
227.936	55.86
228.155	69.86
228.374	66.34
228.593	66.86
228.812	60.19
229.031	50.41
229.25	67.33
229.469	60.27
229.688	43.89
229.907	35.42
230.125	65.47
230.344	37.31
230.563	49.79
230.782	53.06
231.001	50.84
231.22	39.24
231.438	26.46
231.657	16.87
231.876	13.53
232.095	20.93
232.313	30.44
232.532	48.61
232.751	41.11
232.969	44.97
233.188	59.15
233.407	57.9
233.625	64.7
233.844	55.48
234.063	58.3
234.281	42.98
234.5	34.09
234.719	39.19
234.937	32.39
235.156	33.84
235.374	40.21
235.593	40.6
235.811	15.73
236.03	26.46
236.249	20.83
236.467	27.88
236.686	38.84
236.904	38.32
237.123	41.11
237.341	36.43
237.559	29.22
237.778	30.88
237.996	32.6
238.215	27.78
238.433	38.85
238.652	37.35
238.87	30.87
239.088	35.01
239.307	39.11
239.525	30.57
239.743	13.56
239.962	9.15
240.18	18.62
240.398	18.13
240.617	24.7
240.835	48.77
241.053	70.2
241.271	81.31
241.49	82.19
241.708	90.77
241.926	61.05
242.144	47.42
242.363	16.86
242.581	28.91
242.799	3.05
243.017	-2.41
243.235	11.05
243.453	41.33
243.672	54.21
243.89	56.51
244.108	74.51
244.326	65.68
244.544	55.08
244.762	45.07
244.98	66.33
245.198	54.68
245.416	47.9
245.634	63.57
245.852	74.97
246.07	58.17
246.288	58.24
246.506	58.8
246.724	54.67
246.942	46.18
247.16	53.13
247.378	47.49
247.596	55.97
247.814	39.59
248.032	29.95
248.25	24.51
248.468	51.91
248.685	46.42
248.903	49.05
249.121	63.31
249.339	59.2
249.557	45.85
249.775	12.17
249.992	9.89
250.21	11.08
250.428	-2.93
250.646	-19.16
250.863	-8.76
251.081	6.87
251.299	-6.2
251.517	0.19
251.734	36.45
251.952	57.06
252.17	42.42
252.387	44.65
252.605	77.77
252.823	41.04
253.04	64.1
253.258	80.53
253.475	75.9
253.693	68.47
253.911	82.89
254.128	57.95
254.346	41.65
254.563	38.63
254.781	32.04
254.998	38.24
255.216	11.99
255.433	21.75
255.651	42.43
255.868	31.16
256.086	14.28
256.303	29.6
256.521	42.35
256.738	39.34
256.956	48.84
257.173	49.01
257.39	59.07
257.608	54.83
257.825	60.06
258.043	47.56
258.26	57
258.477	48.54
258.695	44.49
258.912	35.57
259.129	49.32
259.346	46.44
259.564	58.3
259.781	91.94
259.998	75.64
260.216	83.15
260.433	78.97
260.65	69.95
260.867	51.73
261.084	55.17
261.302	28.73
261.519	32.03
261.736	17.36
261.953	17.3
262.17	21.48
262.387	29.4
262.604	34.85
262.822	57.76
263.039	55.07
263.256	56.02
263.473	64.28
263.69	62.72
263.907	35.07
264.124	39.79
264.341	44.83
264.558	54.7
264.775	52.17
264.992	53.46
265.209	46.96
265.426	51.39
265.643	43.87
265.86	55.33
266.077	53.17
266.294	51.03
266.51	36
266.727	26.98
266.944	8.94
267.161	17.58
267.378	10.18
267.595	39.54
267.812	46.93
268.028	69.61
268.245	77.49
268.462	98.6
268.679	69.18
268.896	58.34
269.112	43.5
269.329	39.86
269.546	39.8
269.763	27.45
269.979	26.93
270.196	35.06
270.413	42.54
270.629	48.06
270.846	78.79
271.063	70.61
271.279	81.54
271.496	74.82
271.712	65.86
271.929	44.49
272.146	13.75
272.362	21.08
272.579	16.41
272.795	27.6
273.012	28.05
273.228	51.71
273.445	48.58
273.661	55.92
273.878	46.25
274.094	44.63
274.311	50.38
274.527	39.96
274.744	26.7
274.96	15.44
275.177	9.18
275.393	-15.32
275.609	5.89
275.826	20.45
276.042	24.14
276.259	39.1
276.475	41.09
276.691	29.08
276.908	21.33
277.124	20.47
277.34	25.33
277.557	19.38
277.773	21.51
277.989	39.64
278.205	40.84
278.422	36.04
278.638	42.09
278.854	50.22
279.07	42.94
279.286	55.51
279.503	41.94
279.719	50.45
279.935	40.81
280.151	51.96
280.367	48.8
280.583	55.74
280.799	46.33
281.016	51.98
281.232	38.02
281.448	28.01
281.664	24.35
281.88	29.02
282.096	22.12
282.312	15.21
282.528	25.96
282.744	23.91
282.96	27.44
283.176	48.92
283.392	60.5
283.608	89.89
283.824	92.31
284.04	56.94
284.256	55.94
284.471	57.36
284.687	48.79
284.903	36.8
285.119	61.72
285.335	36.4
285.551	27.1
285.767	16.78
285.982	5.6
286.198	2.54
286.414	6.88
286.63	19.57
286.846	26.2
287.061	26.64
287.277	27.49
287.493	46.22
287.709	34.5
287.924	35.34
288.14	52.83
288.356	65.19
288.571	61.57
288.787	61.57
289.003	67.52
289.218	59.17
289.434	50.51
289.65	54.52
289.865	44.99
290.081	47.18
290.296	40.02
290.512	41.68
290.727	39.57
290.943	61.9
291.159	68.49
291.374	71.92
291.59	53.2
291.805	36.62
292.021	27.75
292.236	17.73
292.451	13
292.667	18.77
292.882	23.18
293.098	21.73
293.313	25.21
293.529	42.28
293.744	35.23
293.959	39.55
294.175	49.6
294.39	48.01
294.605	36.47
294.821	33.02
295.036	32.2
295.251	29.52
295.467	25.33
295.682	16.97
295.897	35.91
296.112	52.76
296.328	51.96
296.543	53.93
296.758	58.04
296.973	56.1
297.188	46.5
297.404	36.99
297.619	42.99
297.834	35.68
298.049	29.84
298.264	26.8
298.479	29.28
298.694	16.34
298.909	22
299.125	27.06
299.34	21.53
299.555	26.56
299.77	30.25
299.985	31.77
300.2	30.82
300.415	41.69
300.63	35.26
300.845	31.69
301.06	52.62
301.275	55.11
301.49	37.58
301.704	41.05
301.919	40.66
302.134	34.36
302.349	35.92
302.564	39.27
302.779	32.19
302.994	37.32
303.209	33.75
303.423	28.14
303.638	19.31
303.853	26.46
304.068	37.87
304.283	37.98
304.497	39.5
304.712	49.22
304.927	56.62
305.142	52.91
305.356	47.58
305.571	66.55
305.786	59.59
306	67.11
306.215	64.72
306.43	78.82
306.644	66.31
306.859	70.73
307.074	74.51
307.288	85.4
307.503	74.63
307.717	72.85
307.932	73.19
308.147	69.56
308.361	46.39
308.576	37.87
308.79	34.23
309.005	38.39
309.219	23.49
309.434	28.65
309.648	28.28
309.863	34.3
310.077	23.72
310.292	32.28
310.506	22.38
310.72	31.47
310.935	20.78
311.149	32.16
311.364	0.24
311.578	30.6
311.792	25.82
312.007	23.63
312.221	31.8
312.435	33.73
312.649	37.47
312.864	45.21
313.078	37.28
313.292	37.1
313.507	49.16
313.721	59.13
313.935	39.06
314.149	51.08
314.363	46.04
314.578	42.02
314.792	34.4
315.006	46.75
315.22	44.6
315.434	41.77
315.648	45.07
315.862	28.44
316.077	35.79
316.291	39.19
316.505	34.69
316.719	32.81
316.933	40.49
317.147	14.38
317.361	17.86
317.575	19.58
317.789	12.74
318.003	20.67
318.217	39.47
318.431	45.41
318.645	52.99
318.859	74.11
319.073	65.45
319.287	52.59
319.5	39.52
319.714	24.08
319.928	24.29
320.142	15.73
320.356	44.86
320.57	60.77
320.784	72.45
320.997	78.4
321.211	81.14
321.425	61.72
321.639	36.87
321.853	24.73
322.066	0.8
322.28	-3.36
322.494	9.57
322.707	28.19
322.921	31.52
323.135	37.03
323.349	52.55
323.562	56.3
323.776	56.53
323.989	39.45
324.203	46.39
324.417	24.9
324.63	25.37
324.844	25.65
325.057	42.61
325.271	40.94
325.485	39.23
325.698	42.88
325.912	56.64
326.125	65.83
326.339	62
326.552	61.25
326.766	64.59
326.979	47.72
327.193	39.73
327.406	51.64
327.619	46.3
327.833	41
328.046	46.03
328.26	38.73
328.473	13.72
328.686	34.18
328.9	31.15
329.113	27.36
329.326	25.77
329.54	53.47
329.753	50.45
329.966	53.24
330.179	33.26
330.393	43.98
330.606	26.14
330.819	15.31
331.032	0.51
331.246	23.13
331.459	15.42
331.672	23.59
331.885	20.03
332.098	49.39
332.311	49.27
332.525	53.98
332.738	43.05
332.951	60.95
333.164	45.18
333.377	43.33
333.59	37.4
333.803	42.94
334.016	20.83
334.229	16.24
334.442	29.76
334.655	46.79
334.868	48.06
335.081	57.12
335.294	63.22
335.507	58.36
335.72	56.99
335.933	36.9
336.146	29.7
336.359	31.1
336.572	38.53
336.785	12.27
336.997	27.62
337.21	32.56
337.423	26.86
337.636	4.52
337.849	10.37
338.062	25.52
338.274	27.22
338.487	35.41
338.7	30.13
338.913	32.16
339.125	26.26
339.338	22.9
339.551	21.45
339.763	30.77
339.976	29.35
340.189	19.68
340.402	8.13
340.614	1.1
340.827	16.81
341.039	16.96
341.252	22.13
341.465	20.64
341.677	30.04
341.89	24.54
342.102	48.78
342.315	42.01
342.527	49.82
342.74	52.92
342.952	40.61
343.165	31.99
343.377	38.81
343.59	39.57
343.802	31.85
344.015	45.19
344.227	44.24
344.44	26.57
344.652	23.92
344.864	26.79
345.077	19.93
345.289	17.61
345.502	25.97
345.714	29.89
345.926	24.42
346.139	30.08
346.351	26.89
346.563	28.51
346.775	24.88
346.988	23.46
347.2	18.03
347.412	30.57
347.624	19.73
347.837	13.05
348.049	26.77
348.261	21.9
348.473	11.57
348.685	23.86
348.897	30.26
349.11	27.12
349.322	34.16
349.534	38.36
349.746	40.41
349.958	49.43
350.17	54.66
350.382	50.98
350.594	37.48
350.806	39.06
351.018	29.75
351.23	20.75
351.442	13.69
351.654	49.95
351.866	31.24
352.078	32.94
352.29	44.73
352.502	47.58
352.714	42.73
352.926	45.66
353.138	54.48
353.35	44.9
353.561	57.66
353.773	47.7
353.985	49.95
354.197	42.58
354.409	51.03
354.621	32.22
354.832	44.76
355.044	40.82
355.256	48.18
355.468	47.83
355.679	52.86
355.891	58.46
356.103	75.85
356.314	61.49
356.526	57.47
356.738	59.68
356.949	44.9
357.161	41.92
357.373	41.28
357.584	35.76
357.796	36.61
358.008	36.78
358.219	34.31
358.431	34.21
358.642	33.03
358.854	27.34
359.065	28.01
359.277	33.8
359.488	42.09
359.7	44.38
359.911	55.79
360.123	50.35
360.334	38.96
360.546	25.33
360.757	29.81
360.969	22.83
361.18	36.1
361.391	32.45
361.603	35.94
361.814	32.87
362.025	45.34
362.237	38.88
362.448	42.04
362.659	30.64
362.871	34.66
363.082	21.53
363.293	28.06
363.504	34.83
363.716	45.11
363.927	22.26
364.138	31.57
364.349	22.01
364.56	11.3
364.772	7.69
364.983	33.56
365.194	27.24
365.405	31.08
365.616	26.38
365.827	31.76
366.038	27.57
366.25	32.54
366.461	29.7
366.672	34.53
366.883	27.57
367.094	33.89
367.305	27.99
367.516	25.23
367.727	41.35
367.938	43.41
368.149	44.76
368.36	57.77
368.571	37.61
368.781	38.14
368.992	44.32
369.203	28.8
369.414	17.5
369.625	25.54
369.836	13.99
370.047	19.81
370.258	26.53
370.468	26.71
370.679	21.49
370.89	19.92
371.101	1.35
371.312	4.53
371.522	10.62
371.733	37.32
371.944	44.34
372.155	46.66
372.365	42.23
372.576	33
372.787	21.43
372.997	23.91
373.208	16.94
373.419	26.2
373.629	32.59
373.84	30.01
374.05	19.56
374.261	26.91
374.472	24.22
374.682	20.4
374.893	28.05
375.103	40.3
375.314	47.3
375.524	50.53
375.735	45.89
375.945	38.65
376.156	26.76
376.366	24.91
376.577	16.68
376.787	20.16
376.997	18.93
377.208	19.41
377.418	20.61
377.629	23.05
377.839	30.63
378.049	37.47
378.26	45.93
378.47	46.92
378.68	61
378.89	57.64
379.101	38.9
379.311	36.58
379.521	26.26
379.732	19.37
379.942	14.95
380.152	18.88
380.362	22.16
380.572	19.39
380.783	22.47
380.993	18.79
381.203	23.11
381.413	10.87
381.623	16.39
381.833	9.96
382.043	12.74
382.253	11.94
382.463	11.09
382.674	17.33
382.884	13.53
383.094	11.82
383.304	15.46
383.514	23.98
383.724	21.49
383.934	20.42
384.144	17.5
384.353	16.49
384.563	15.22
384.773	17.67
384.983	15.72
385.193	8.56
385.403	7.27
385.613	6.93
385.823	3.46
386.033	11.73
386.242	19.51
386.452	14.69
386.662	20.43
386.872	20.06
387.082	15.06
387.291	9.7
387.501	13.66
387.711	7.39
387.921	8.15
388.13	11.33
388.34	11.72
388.55	10.35
388.759	9.53
388.969	11.46
389.179	11.06
389.388	14.19
389.598	15.31
389.807	13.64
390.017	11.19
390.227	9.89
390.436	8.16
390.646	6.26
390.855	5.37
391.065	2.54
391.274	1.36
391.484	1.7
391.693	3.09
391.903	3.72
392.112	5.68
392.322	6.02
392.531	5.68
392.74	4.3
392.95	4.46
393.159	5.27
393.369	4.28
393.578	4.17
393.787	3.51
393.997	2.99
394.206	3.06
394.415	3.62
394.625	4.46
394.834	4.45
395.043	5.08
395.252	4.42
395.462	5.02
395.671	4.19
395.88	5.23
396.089	5.48
396.298	5.67
396.508	5
396.717	5.63
396.926	5.31
397.135	4.37
397.344	3.66
397.553	4.18
397.762	3.41
397.971	2.87
398.181	3.18
398.39	2.99
398.599	2.61
398.808	3.06
399.017	3.49
399.226	3.43
399.435	3.9
399.644	4.17
399.853	3.95
400.062	4.02
400.27	3.69
400.479	3.16
400.688	2.93
400.897	3.05
401.106	3.05
401.315	3.68
401.524	4
401.733	3.83
401.941	3.8
402.15	3.51
402.359	3.21
402.568	2.96
402.777	3.04
402.985	2.82
403.194	3.06
403.403	3.14
403.612	3.17
403.82	3
404.029	3.08
404.238	2.89
404.446	2.83
404.655	2.9
404.864	3.13
405.072	3.21
405.281	3.23
405.489	3.03
405.698	3.06
405.906	3.02
406.115	2.83
406.324	2.74
406.532	2.76
406.741	2.73
406.949	2.68
407.158	2.55
407.366	2.5
407.574	2.61
407.783	2.53
407.991	2.51
408.2	2.82
408.408	2.96
408.617	2.94
408.825	2.97
409.033	2.91
409.242	2.76
409.45	2.75
409.658	2.77
409.867	2.73
410.075	2.68
410.283	2.66
410.491	2.55
410.7	2.37
410.908	2.36
411.116	2.52
411.324	2.44
411.533	2.39
411.741	2.36
411.949	2.41
412.157	2.36
412.365	2.6
412.573	2.6
412.781	2.65
412.99	2.69
413.198	2.69
413.406	2.58
413.614	2.76
413.822	2.8
414.03	2.61
414.238	2.51
414.446	2.44
414.654	2.33
414.862	2.42
415.07	2.47
415.278	2.47
415.486	2.43
415.694	2.3
415.902	2.26
416.109	2.37
416.317	2.58
416.525	2.48
416.733	2.58
416.941	2.61
417.149	2.46
417.357	2.32
417.564	2.37
417.772	2.32
417.98	2.34
418.188	2.57
418.395	2.42
418.603	2.58
418.811	2.71
419.019	2.47
419.226	2.37
419.434	2.67
419.642	2.67
419.849	2.49
420.057	2.61
420.265	2.71
420.472	2.38
420.68	2.33
420.887	2.38
421.095	2.36
421.302	2.23
421.51	2.35
421.717	2.36
421.925	2.32
422.132	2.29
422.34	2.25
422.547	2.18
422.755	2.19
422.962	2.25
423.17	2.46
423.377	2.56
423.585	2.77
423.792	2.76
423.999	2.66
424.207	2.53
424.414	2.39
424.621	2.31
424.829	2.13
425.036	2.29
425.243	2.09
425.451	2.02
425.658	1.9
425.865	2.23
426.072	2.13
426.28	2.19
426.487	2.34
426.694	2.44
426.901	2.24
427.108	2.14
427.315	2.18
427.523	2.11
427.73	1.92
427.937	1.86
428.144	2.1
428.351	1.96
428.558	2.09
428.765	2.09
428.972	2.14
429.179	1.97
429.386	2
429.593	1.94
429.8	2.02
430.007	2
430.214	1.99
430.421	2.06
430.628	2.04
430.835	2.13
431.042	2
431.249	2.14
431.456	2.22
431.662	2.24
431.869	2.24
432.076	2.34
432.283	2.21
432.49	2.17
432.697	2.15
432.903	2.16
433.11	2.43
433.317	2.43
433.524	2.36
433.73	2.34
433.937	2.24
434.144	2.03
434.35	2.1
434.557	2.23
434.764	2.26
434.97	2.22
435.177	2.34
435.384	2.21
435.59	2.12
435.797	2
436.003	2.16
436.21	2.02
436.416	2.11
436.623	2.07
436.829	2.09
437.036	2.01
437.242	1.96
437.449	1.96
437.655	2.03
437.862	2.11
438.068	2.03
438.275	2.2
438.481	2.15
438.687	2.14
438.894	2.24
439.1	2.31
439.307	2.13
439.513	2.15
439.719	2.19
439.926	2.03
440.132	2.12
440.338	2.15
440.544	2.12
440.751	2.04
440.957	2.14
441.163	1.99
441.369	1.98
441.575	1.99
441.782	2.08
441.988	2.04
442.194	2.06
442.4	2.2
442.606	2.18
442.812	2.15
443.018	2.07
443.224	2.07
443.431	1.96
443.637	2.07
443.843	2.02
444.049	2.13
444.255	2.07
444.461	2.01
444.667	1.93
444.873	1.94
445.079	1.91
445.284	1.92
445.49	1.95
445.696	1.97
445.902	1.95
446.108	1.9
446.314	1.9
446.52	2.02
446.726	1.99
446.931	2.02
447.137	1.94
447.343	1.92
447.549	1.81
447.755	1.82
447.96	1.87
448.166	1.93
448.372	2.07
448.578	2.09
448.783	2.11
448.989	2.1
449.195	2.04
449.4	1.99
449.606	1.92
449.812	1.78
450.017	1.77
450.223	1.75
450.428	1.71
450.634	1.7
450.84	1.81
451.045	1.88
451.251	1.97
451.456	1.94
451.662	2.1
451.867	2.18
452.073	2.06
452.278	1.97
452.483	1.97
452.689	1.92
452.894	1.84
453.1	1.84
453.305	1.95
453.51	1.98
453.716	1.88
453.921	2.02
454.127	2.04
454.332	2.03
454.537	2.05
454.742	2.02
454.948	1.8
455.153	1.89
455.358	1.8
455.563	1.75
455.769	1.78
455.974	1.86
456.179	1.77
456.384	1.73
456.589	1.82
456.795	1.78
457	1.76
457.205	1.65
457.41	1.62
457.615	1.47
457.82	1.53
458.025	1.51
458.23	1.6
458.435	1.69
458.64	1.59
458.845	1.56
459.05	1.51
459.255	1.45
459.46	1.49
459.665	1.63
459.87	1.62
460.075	1.77
460.28	1.83
460.485	1.8
460.69	1.76
460.895	1.84
461.099	1.85
461.304	1.84
461.509	1.86
461.714	1.93
461.919	1.94
462.123	1.87
462.328	1.86
462.533	1.78
462.738	1.8
462.942	1.74
463.147	1.71
463.352	1.71
463.556	1.85
463.761	1.73
463.966	1.66
464.17	1.66
464.375	1.68
464.58	1.61
464.784	1.65
464.989	1.79
465.193	1.77
465.398	1.78
465.602	1.8
465.807	1.85
466.011	1.71
466.216	1.76
466.42	1.78
466.625	1.71
466.829	1.7
467.034	1.84
467.238	1.85
467.443	1.9
467.647	1.9
467.851	1.92
468.056	1.9
468.26	1.94
468.464	1.88
468.669	1.9
468.873	1.93
469.077	1.84
469.282	1.8
469.486	1.8
469.69	1.77
469.894	1.77
470.099	1.81
470.303	1.85
470.507	1.8
470.711	1.94
470.915	1.99
471.119	1.99
471.324	1.98
471.528	2.04
471.732	2.01
471.936	1.97
472.14	1.98
472.344	1.97
472.548	1.89
472.752	1.85
472.956	1.74
473.16	1.77
473.364	1.69
473.568	1.76
473.772	1.68
473.976	1.69
474.18	1.63
474.384	1.65
474.588	1.65
474.792	1.73
474.995	1.73
475.199	1.75
475.403	1.74
475.607	1.74
475.811	1.69
476.015	1.78
476.218	1.72
476.422	1.69
476.626	1.68
476.83	1.71
477.033	1.7
477.237	1.8
477.441	1.81
477.644	1.79
477.848	1.75
478.052	1.73
478.255	1.74
478.459	1.77
478.663	1.82
478.866	1.81
479.07	1.83
479.273	1.83
479.477	1.86
479.681	1.87
479.884	1.95
480.088	1.91
480.291	1.88
480.495	1.91
480.698	1.88
480.901	1.87
481.105	1.95
481.308	1.9
481.512	1.86
481.715	1.82
481.919	1.79
482.122	1.7
482.325	1.77
482.529	1.75
482.732	1.81
482.935	1.8
483.138	1.91
483.342	1.88
483.545	1.98
483.748	1.98
483.952	1.97
484.155	1.87
484.358	1.88
484.561	1.88
484.764	1.81
484.967	1.87
485.171	1.88
485.374	1.89
485.577	1.85
485.78	1.86
485.983	1.82
486.186	1.82
486.389	1.79
486.592	1.75
486.795	1.81
486.998	1.91
487.201	1.92
487.404	1.97
487.607	2.06
487.81	2.03
488.013	1.94
488.216	1.97
488.419	1.92
488.622	1.85
488.825	1.85
489.028	1.89
489.231	1.89
489.433	1.91
489.636	1.88
489.839	1.94
490.042	1.92
490.245	1.9
490.447	1.95
490.65	1.95
490.853	1.88
491.056	1.93
491.258	1.99
491.461	1.94
491.664	1.91
491.866	1.97
492.069	1.91
492.272	1.87
492.474	1.94
492.677	2.01
492.879	2
493.082	2
493.285	2.03
493.487	2.01
493.69	1.97
493.892	1.96
494.095	2.04
494.297	2
494.5	2.05
494.702	2.07
494.905	2.08
495.107	2.04
495.309	2.05
495.512	2
495.714	2.02
495.917	2.06
496.119	1.99
496.321	1.99
496.524	1.97
496.726	2
496.928	1.95
497.13	2.08
497.333	2.08
497.535	2.11
497.737	2.11
497.939	2.1
498.142	2.02
498.344	2.09
498.546	2.1
498.748	2.14
498.95	2.19
499.152	2.23
499.355	2.15
499.557	2.15
499.759	2.09
499.961	2.11
500.163	2.14
500.365	2.2
500.567	2.2
500.769	2.25
500.971	2.25
501.173	2.27
501.375	2.29
501.577	2.35
501.779	2.35
501.981	2.36
502.183	2.33
502.385	2.31
502.587	2.24
502.788	2.29
502.99	2.33
503.192	2.28
503.394	2.31
503.596	2.37
503.798	2.4
503.999	2.41
504.201	2.47
504.403	2.46
504.605	2.47
504.806	2.4
505.008	2.44
505.21	2.44
505.411	2.41
505.613	2.36
505.815	2.4
506.016	2.32
506.218	2.39
506.42	2.42
506.621	2.55
506.823	2.56
507.024	2.65
507.226	2.62
507.427	2.63
507.629	2.57
507.83	2.5
508.032	2.42
508.233	2.39
508.435	2.41
508.636	2.44
508.838	2.51
509.039	2.56
509.24	2.6
509.442	2.62
509.643	2.54
509.845	2.55
510.046	2.54
510.247	2.5
510.448	2.52
510.65	2.62
510.851	2.59
511.052	2.59
511.254	2.67
511.455	2.71
511.656	2.7
511.857	2.7
512.058	2.73
512.26	2.71
512.461	2.69
512.662	2.67
512.863	2.69
513.064	2.67
513.265	2.66
513.466	2.67
513.667	2.64
513.868	2.59
514.069	2.65
514.27	2.64
514.471	2.63
514.672	2.64
514.873	2.79
515.074	2.81
515.275	2.86
515.476	2.85
515.677	2.84
515.878	2.81
516.079	2.79
516.28	2.8
516.481	2.79
516.682	2.9
516.882	2.9
517.083	2.94
517.284	2.93
517.485	2.95
517.686	2.92
517.886	2.91
518.087	2.88
518.288	2.94
518.488	2.96
518.689	2.94
518.89	2.97
519.091	3.01
519.291	2.99
519.492	2.99
519.692	3.07
519.893	3.1
520.094	3.04
520.294	3.05
520.495	3.1
520.695	3.09
520.896	3.04
521.096	3.06
521.297	3.08
521.497	3.07
521.698	3
521.898	3.03
522.099	3.04
522.299	3
522.499	2.98
522.7	3.02
522.9	3.07
523.101	3.09
523.301	3.15
523.501	3.19
523.702	3.24
523.902	3.21
524.102	3.28
524.302	3.29
524.503	3.32
524.703	3.34
524.903	3.36
525.103	3.33
525.304	3.3
525.504	3.32
525.704	3.26
525.904	3.29
526.104	3.25
526.304	3.33
526.504	3.28
526.705	3.34
526.905	3.33
527.105	3.37
527.305	3.28
527.505	3.32
527.705	3.32
527.905	3.28
528.105	3.29
528.305	3.35
528.505	3.38
528.705	3.4
528.905	3.43
529.105	3.47
529.304	3.45
529.504	3.44
529.704	3.41
529.904	3.48
530.104	3.47
530.304	3.5
530.503	3.56
530.703	3.58
530.903	3.59
531.103	3.64
531.303	3.68
531.502	3.66
531.702	3.69
531.902	3.6
532.101	3.58
532.301	3.59
532.501	3.53
532.7	3.56
532.9	3.64
533.1	3.65
533.299	3.67
533.499	3.76
533.698	3.72
533.898	3.73
534.097	3.78
534.297	3.81
534.496	3.81
534.696	3.89
534.895	3.87
535.095	3.86
535.294	3.85
535.494	3.86
535.693	3.9
535.892	3.99
536.092	4.01
536.291	4.03
536.491	4.04
536.69	4.03
536.889	3.99
537.088	3.98
537.288	3.99
537.487	4.02
537.686	4.01
537.886	4.13
538.085	4.16
538.284	4.19
538.483	4.26
538.682	4.28
538.882	4.28
539.081	4.32
539.28	4.36
539.479	4.31
539.678	4.38
539.877	4.36
540.076	4.36
540.275	4.36
540.474	4.42
540.673	4.42
540.872	4.5
541.071	4.57
541.27	4.56
541.469	4.57
541.668	4.55
541.867	4.54
542.066	4.55
542.265	4.66
542.464	4.68
542.663	4.77
542.862	4.83
543.06	4.81
543.259	4.79
543.458	4.83
543.657	4.86
543.856	4.88
544.054	4.93
544.253	4.99
544.452	5.07
544.651	5.08
544.849	5.11
545.048	5.13
545.247	5.19
545.445	5.21
545.644	5.23
545.843	5.31
546.041	5.41
546.24	5.41
546.438	5.46
546.637	5.57
546.836	5.56
547.034	5.61
547.233	5.64
547.431	5.68
547.63	5.72
547.828	5.8
548.027	5.81
548.225	5.87
548.423	5.94
548.622	6.01
548.82	6.1
549.019	6.2
549.217	6.25
549.415	6.25
549.614	6.24
549.812	6.24
550.01	6.27
550.209	6.38
550.407	6.47
550.605	6.53
550.803	6.55
551.002	6.61
551.2	6.63
551.398	6.65
551.596	6.73
551.794	6.83
551.993	6.86
552.191	6.89
552.389	6.96
552.587	7.03
552.785	7.05
552.983	7.14
553.181	7.21
553.379	7.26
553.577	7.36
553.775	7.49
553.973	7.58
554.171	7.66
554.369	7.71
554.567	7.74
554.765	7.81
554.963	7.86
555.161	7.96
555.359	8.07
555.557	8.2
555.755	8.28
555.952	8.31
556.15	8.34
556.348	8.41
556.546	8.39
556.744	8.43
556.941	8.51
557.139	8.62
557.337	8.76
557.535	8.89
557.732	8.93
557.93	9
558.128	9.02
558.325	9.05
558.523	9.09
558.721	9.17
558.918	9.32
559.116	9.49
559.313	9.55
559.511	9.69
559.708	9.8
559.906	9.88
560.104	9.93
560.301	10.05
560.498	10.11
560.696	10.2
560.893	10.23
561.091	10.25
561.288	10.42
561.486	10.46
561.683	10.55
561.88	10.65
562.078	10.81
562.275	10.79
562.473	10.97
562.67	11
562.867	11.09
563.064	11.14
563.262	11.21
563.459	11.29
563.656	11.44
563.853	11.52
564.051	11.57
564.248	11.61
564.445	11.69
564.642	11.69
564.839	11.83
565.036	11.97
565.234	12.04
565.431	12.03
565.628	12.15
565.825	12.11
566.022	12.17
566.219	12.27
566.416	12.32
566.613	12.36
566.81	12.51
567.007	12.55
567.204	12.63
567.401	12.74
567.598	12.82
567.795	12.83
567.991	12.89
568.188	12.96
568.385	12.94
568.582	12.99
568.779	13.06
568.976	13.12
569.172	13.13
569.369	13.17
569.566	13.19
569.763	13.16
569.96	13.21
570.156	13.24
570.353	13.3
570.55	13.34
570.746	13.46
570.943	13.48
571.14	13.53
571.336	13.61
571.533	13.59
571.729	13.6
571.926	13.59
572.123	13.63
572.319	13.68
572.516	13.84
572.712	13.79
572.909	13.77
573.105	13.77
573.302	13.76
573.498	13.68
573.695	13.76
573.891	13.78
574.087	13.73
574.284	13.75
574.48	13.79
574.677	13.77
574.873	13.86
575.069	13.97
575.266	13.94
575.462	13.94
575.658	13.93
575.854	13.93
576.051	13.86
576.247	13.92
576.443	13.94
576.639	14
576.835	13.99
577.032	14
577.228	14.04
577.424	14.04
577.62	14.05
577.816	14.03
578.012	14.02
578.208	13.92
578.404	13.88
578.6	13.89
578.796	13.95
578.993	14.01
579.189	14
579.384	14.01
579.58	13.87
579.776	13.78
579.972	13.74
580.168	13.81
580.364	13.75
580.56	13.8
580.756	13.74
580.952	13.66
581.148	13.5
581.343	13.56
581.539	13.54
581.735	13.62
581.931	13.53
582.127	13.56
582.322	13.47
582.518	13.41
582.714	13.35
582.909	13.41
583.105	13.39
583.301	13.39
583.496	13.34
583.692	13.28
583.888	13.23
584.083	13.19
584.279	13.14
584.474	13.25
584.67	13.19
584.866	13.16
585.061	13.15
585.257	13.1
585.452	13.05
585.648	13.07
585.843	13.12
586.039	13.22
586.234	13.12
586.429	13.04
586.625	13.01
586.82	13
587.015	12.88
587.211	12.93
587.406	12.98
587.601	12.98
587.797	12.99
587.992	12.95
588.187	12.94
588.383	12.89
588.578	12.89
588.773	12.79
588.968	12.85
589.163	12.87
589.359	12.88
589.554	12.81
589.749	12.84
589.944	12.83
590.139	12.91
590.334	12.9
590.529	13.1
590.724	13.12
590.919	13.17
591.114	13.09
591.309	13.11
591.504	13.03
591.699	13.06
591.894	12.96
592.089	13.05
592.284	13.15
592.479	13.09
592.674	13.11
592.869	13.21
593.064	13.23
593.259	13.23
593.454	13.26
593.648	13.24
593.843	13.26
594.038	13.3
594.233	13.3
594.428	13.47
594.622	13.59
594.817	13.66
595.012	13.63
595.206	13.69
595.401	13.69
595.596	13.67
595.79	13.67
595.985	13.8
596.18	13.9
596.374	13.93
596.569	13.98
596.763	14.12
596.958	14.21
597.153	14.18
597.347	14.16
597.542	14.33
597.736	14.36
597.931	14.24
598.125	14.41
598.319	14.42
598.514	14.41
598.708	14.48
598.903	14.64
599.097	14.65
599.291	14.81
599.486	14.86
599.68	14.81
599.874	14.82
600.069	14.87
600.263	14.94
600.457	14.93
600.651	15.02
600.846	15.03
601.04	15.07
601.234	15.02
601.428	15.13
601.622	15.06
601.817	15.13
602.011	15.05
602.205	15.15
602.399	15.19
602.593	15.34
602.787	15.25
602.981	15.29
603.175	15.31
603.369	15.2
603.563	15.15
603.757	15.18
603.951	15.22
604.145	15.07
604.339	15.1
604.533	15.09
604.727	15.19
604.921	15.18
605.115	15.23
605.309	15.2
605.502	15.22
605.696	15.16
605.89	15.07
606.084	15.02
606.278	14.92
606.471	14.89
606.665	14.74
606.859	14.73
607.053	14.67
607.246	14.68
607.44	14.57
607.634	14.65
607.827	14.54
608.021	14.5
608.214	14.46
608.408	14.39
608.602	14.33
608.795	14.3
608.989	14.2
609.182	14.13
609.376	14.06
609.569	13.93
609.763	13.84
609.956	13.84
610.15	13.81
610.343	13.81
610.537	13.72
610.73	13.69
610.923	13.7
611.117	13.67
611.31	13.56
611.504	13.59
611.697	13.53
611.89	13.37
612.083	13.21
612.277	13.09
612.47	13
612.663	12.99
612.856	12.84
613.05	12.84
613.243	12.8
613.436	12.79
613.629	12.66
613.822	12.65
614.015	12.59
614.209	12.54
614.402	12.4
614.595	12.4
614.788	12.39
614.981	12.39
615.174	12.37
615.367	12.35
615.56	12.2
615.753	12.08
615.946	11.94
616.139	11.88
616.332	11.78
616.525	11.82
616.718	11.79
616.911	11.83
617.103	11.8
617.296	11.76
617.489	11.64
617.682	11.57
617.875	11.53
618.067	11.42
618.26	11.39
618.453	11.4
618.646	11.45
618.838	11.38
619.031	11.36
619.224	11.38
619.417	11.43
619.609	11.34
619.802	11.27
619.994	11.27
620.187	11.21
620.38	11.05
620.572	11.1
620.765	11.12
620.957	11.08
621.15	11.07
621.342	11.05
621.535	11.01
621.727	10.96
621.92	10.87
622.112	10.79
622.305	10.8
622.497	10.74
622.69	10.75
622.882	10.73
623.074	10.81
623.267	10.76
623.459	10.7
623.651	10.55
623.844	10.65
624.036	10.55
624.228	10.6
624.42	10.66
624.613	10.71
624.805	10.63
624.997	10.6
625.189	10.44
625.381	10.4
625.574	10.32
625.766	10.37
625.958	10.38
626.15	10.48
626.342	10.41
626.534	10.44
626.726	10.31
626.918	10.3
627.11	10.22
627.302	10.18
627.494	10.2
627.686	10.22
627.878	10.19
628.07	10.13
628.262	10.17
628.454	10.06
628.646	9.97
628.838	9.91
629.029	9.97
629.221	9.85
629.413	9.82
629.605	9.86
629.797	9.86
629.989	9.81
630.18	9.83
630.372	9.83
630.564	9.75
630.755	9.65
630.947	9.59
631.139	9.54
631.33	9.53
631.522	9.46
631.714	9.43
631.905	9.45
632.097	9.44
632.289	9.38
632.48	9.37
632.672	9.36
632.863	9.23
633.055	9.16
633.246	9.23
633.438	9.23
633.629	9.22
633.821	9.18
634.012	9.25
634.203	9.19
634.395	9.18
634.586	9.32
634.777	9.34
634.969	9.33
635.16	9.3
635.351	9.25
635.543	9.13
635.734	9.19
635.925	9.08
636.117	9.04
636.308	9
636.499	8.98
636.69	8.86
636.881	8.92
637.073	8.95
637.264	9.02
637.455	8.91
637.646	8.93
637.837	8.88
638.028	8.76
638.219	8.71
638.41	8.74
638.601	8.65
638.792	8.61
638.983	8.69
639.174	8.65
639.365	8.62
639.556	8.65
639.747	8.66
639.938	8.66
640.129	8.57
640.32	8.6
640.511	8.61
640.701	8.63
640.892	8.54
641.083	8.61
641.274	8.54
641.465	8.46
641.655	8.42
641.846	8.44
642.037	8.37
642.228	8.41
642.418	8.39
642.609	8.37
642.8	8.35
642.99	8.34
643.181	8.27
643.372	8.32
643.562	8.22
643.753	8.19
643.943	8.2
644.134	8.18
644.324	8.12
644.515	8.15
644.705	8.08
644.896	8.01
645.086	7.98
645.277	7.99
645.467	7.96
645.658	7.93
645.848	7.97
646.038	7.92
646.229	7.91
646.419	7.95
646.61	7.97
646.8	7.99
646.99	7.98
647.18	7.93
647.371	7.86
647.561	7.8
647.751	7.72
647.941	7.69
648.132	7.73
648.322	7.75
648.512	7.78
648.702	7.78
648.892	7.75
649.082	7.7
649.272	7.64
649.462	7.64
649.653	7.61
649.843	7.65
650.033	7.62
650.223	7.56
650.413	7.54
650.603	7.54
650.793	7.47
650.983	7.48
651.172	7.48
651.362	7.43
651.552	7.35
651.742	7.38
651.932	7.42
652.122	7.48
652.312	7.4
652.502	7.42
652.691	7.32
652.881	7.21
653.071	7.18
653.261	7.2
653.45	7.14
653.64	7.21
653.83	7.16
654.019	6.98
654.209	6.89
654.399	6.83
654.588	6.71
654.778	6.63
654.968	6.65
655.157	6.62
655.347	6.61
655.536	6.52
655.726	6.39
655.915	6.4
656.105	6.34
656.294	6.26
656.484	6.14
656.673	6.09
656.863	5.94
657.052	5.83
657.241	5.67
657.431	5.66
657.62	5.6
657.809	5.5
657.999	5.5
658.188	5.5
658.377	5.41
658.567	5.3
658.756	5.25
658.945	5.19
659.134	5.11
659.324	5.14
659.513	5.09
659.702	5.04
659.891	4.89
660.08	4.73
660.269	4.53
660.458	4.43
660.648	4.41
660.837	4.41
661.026	4.45
661.215	4.43
661.404	4.35
661.593	4.16
661.782	4.04
661.971	3.9
662.16	3.93
662.349	3.91
662.538	3.97
662.726	3.96
662.915	4
663.104	3.89
663.293	3.9
663.482	3.83
663.671	3.75
663.86	3.64
664.048	3.68
664.237	3.63
664.426	3.53
664.615	3.52
664.803	3.49
664.992	3.37
665.181	3.37
665.369	3.48
665.558	3.5
665.747	3.52
665.935	3.59
666.124	3.67
666.312	3.59
666.501	3.56
666.69	3.54
666.878	3.55
667.067	3.38
667.255	3.46
667.444	3.45
667.632	3.61
667.82	3.61
668.009	3.73
668.197	3.72
668.386	3.76
668.574	3.7
668.762	3.61
668.951	3.67
669.139	3.83
669.327	3.83
669.516	3.98
669.704	4.05
669.892	4.06
670.08	4.01
670.269	4.07
670.457	3.9
670.645	4.01
670.833	3.95
671.021	3.97
671.21	3.93
671.398	3.94
671.586	3.86
671.774	3.97
671.962	3.99
672.15	4.2
672.338	4.31
672.526	4.46
672.714	4.49
672.902	4.52
673.09	4.54
673.278	4.57
673.466	4.59
673.654	4.78
673.842	4.91
674.03	4.9
674.218	5
674.405	5.1
674.593	5.01
674.781	5
674.969	5.01
675.157	4.93
675.344	4.99
675.532	5.1
675.72	5.2
675.908	5.23
676.095	5.34
676.283	5.49
676.471	5.52
676.658	5.61
676.846	5.77
677.033	5.94
677.221	5.9
677.409	5.96
677.596	5.98
677.784	6.14
677.971	6.16
678.159	6.19
678.346	6.17
678.534	6.31
678.721	6.25
678.909	6.25
679.096	6.27
679.283	6.51
679.471	6.44
679.658	6.54
679.846	6.67
680.033	6.81
680.22	6.74
680.408	6.81
680.595	6.84
680.782	6.88
680.969	6.89
681.157	6.97
681.344	6.99
681.531	6.97
681.718	7.02
681.905	7.04
682.093	7.09
682.28	7.14
682.467	7.44
682.654	7.49
682.841	7.39
683.028	7.46
683.215	7.51
683.402	7.34
683.589	7.46
683.776	7.85
683.963	7.85
684.15	7.98
684.337	8.14
684.524	8.38
684.711	8.36
684.898	8.57
685.085	8.58
685.271	8.86
685.458	8.77
685.645	8.84
685.832	9.04
686.019	9.34
686.205	9.34
686.392	9.59
686.579	9.83
686.766	9.91
686.952	10.06
687.139	10.34
687.326	10.52
687.512	10.76
687.699	11.05
687.886	11.15
688.072	11.35
688.259	11.66
688.445	11.82
688.632	11.96
688.818	12.41
689.005	12.54
689.191	12.6
689.378	12.94
689.564	13.3
689.751	13.52
689.937	13.96
690.124	14.46
690.31	14.89
690.496	15.48
690.683	16
690.869	16.45
691.055	16.9
691.242	17.1
691.428	17.4
691.614	17.72
691.8	18.11
691.987	18.62
692.173	19.21
692.359	19.71
692.545	20.34
692.731	20.88
692.918	21.24
693.104	21.82
693.29	22.23
693.476	22.68
693.662	23.37
693.848	24.05
694.034	24.45
694.22	25.2
694.406	25.74
694.592	26.23
694.778	26.94
694.964	27.78
695.15	28.23
695.336	28.74
695.522	29.33
695.708	29.91
695.894	30.34
696.08	30.92
696.265	31.67
696.451	32.23
696.637	32.72
696.823	33.28
697.009	34.04
697.194	34.74
697.38	35.3
697.566	35.84
697.751	36.71
697.937	37.09
698.123	37.62
698.308	38.25
698.494	38.82
698.68	39.38
698.865	39.83
699.051	40.43
699.236	41.03
699.422	41.92
699.607	42.51
699.793	43.51
699.978	44.13
700.164	44.66
700.349	45.24
700.535	45.65
700.72	46.28
700.906	46.94
701.091	47.55
701.276	47.69
701.462	48.53
701.647	49.06
701.832	49.59
702.018	50.23
702.203	51.26
702.388	51.53
702.573	52.12
702.759	52.49
702.944	53.06
703.129	53.51
703.314	54.32
703.499	54.39
703.684	54.88
703.87	55.24
704.055	55.37
704.24	55.43
704.425	56.11
704.61	56.84
704.795	57.22
704.98	57.96
705.165	58.5
705.35	59.35
705.535	59.88
705.72	60.58
705.905	60.96
706.09	61.41
706.275	61.52
706.459	61.8
706.644	61.82
706.829	61.94
707.014	62.73
707.199	63.15
707.384	63.44
707.568	63.92
707.753	64.3
707.938	64.26
708.123	64.79
708.307	64.93
708.492	65.4
708.677	65.83
708.861	66.73
709.046	66.71
709.231	66.7
709.415	66.5
709.6	66.64
709.784	66.47
709.969	66.59
710.153	67.28
710.338	67.9
710.522	68.69
710.707	68.84
710.891	69.46
711.076	69.78
711.26	70.29
711.445	70.36
711.629	70.48
711.813	70.39
711.998	70.66
712.182	70.63
712.366	70.87
712.551	71.36
712.735	71.76
712.919	71.85
713.103	71.84
713.288	71.53
713.472	71.55
713.656	71.72
713.84	71.75
714.024	72.26
714.208	72.58
714.393	72.78
714.577	73
714.761	73.3
714.945	73.29
715.129	73.56
715.313	73.38
715.497	73.22
715.681	73.63
715.865	73.84
716.049	74.1
716.233	75.1
716.417	75.92
716.601	75.73
716.785	76.05
716.968	76.32
717.152	76.23
717.336	76.53
717.52	76.87
717.704	77.02
717.888	77.45
718.071	77.25
718.255	76.93
718.439	76.58
718.622	76.47
718.806	76.5
718.99	76.73
719.174	76.38
719.357	76.47
719.541	76.93
719.724	76.9
719.908	76.81
720.092	77.16
720.275	77.77
720.459	77.73
720.642	78.05
720.826	78.88
721.009	79.08
721.193	79.09
721.376	79.14
721.559	78.99
721.743	78.58
721.926	78.97
722.11	78.74
722.293	78.92
722.476	78.7
722.66	79.44
722.843	79.27
723.026	80.42
723.21	80.62
723.393	81.25
723.576	80.84
723.759	80.91
723.942	80.57
724.126	81.03
724.309	81.55
724.492	81.8
724.675	82.31
724.858	82.34
725.041	82.35
725.224	82.22
725.407	81.96
725.59	82.61
725.774	83.13
725.957	83.13
726.14	83.1
726.322	84.11
726.505	83.87
726.688	83.74
726.871	83.85
727.054	84.63
727.237	84.75
727.42	84.94
727.603	85.64
727.786	85.96
727.968	85.69
728.151	85.5
728.334	85.14
728.517	84.71
728.699	85.08
728.882	85.76
729.065	85.79
729.248	86.8
729.43	87.4
729.613	87.6
729.796	86.97
729.978	88.27
730.161	88.26
730.343	88.49
730.526	89.59
730.708	89.87
730.891	89.13
731.073	88.99
731.256	88.85
731.438	87.38
731.621	87.82
731.803	88.18
731.986	88.95
732.168	89.48
732.35	90.19
732.533	89.38
732.715	89.23
732.898	89.14
733.08	89.37
733.262	89.59
733.444	90.39
733.627	90.85
733.809	91.1
733.991	91.64
734.173	92.76
734.355	93.85
734.538	93.87
734.72	94.38
734.902	94.73
735.084	94.28
735.266	93.79
735.448	94.77
735.63	94.12
735.812	93.2
735.994	92.41
736.176	92.21
736.358	92.98
736.54	93.21
736.722	94.26
736.904	95.77
737.086	95.96
737.268	94.95
737.45	95.54
737.632	94.34
737.814	94.17
737.995	94.32
738.177	93.72
738.359	93.93
738.541	94.58
738.723	95.14
738.904	95.66
739.086	96.54
739.268	96.64
739.449	96.79
739.631	95.65
739.813	95.77
739.994	95.39
740.176	95.54
740.358	96.33
740.539	97.31
740.721	97.43
740.902	97.22
741.084	96.57
741.265	96.01
741.447	95.15
741.628	94.77
741.81	95.17
741.991	96
742.172	96.94
742.354	97.95
742.535	99.07
742.717	99.96
742.898	100.16
743.079	99.34
743.261	98.07
743.442	98.27
743.623	98.52
743.804	97.56
743.986	98.13
744.167	99.7
744.348	97.62
744.529	97.37
744.71	98.65
744.891	98.55
745.073	97.53
745.254	99.71
745.435	98.45
745.616	97.17
745.797	97
745.978	97.16
746.159	97.27
746.34	98.28
746.521	98.08
746.702	97.79
746.883	98.33
747.064	96.79
747.245	97.43
747.426	98.16
747.606	97.07
747.787	97.89
747.968	98.4
748.149	98.32
748.33	99.09
748.51	102.01
748.691	101.03
748.872	101.86
749.053	102.56
749.233	102.05
749.414	100.09
749.595	101.35
749.775	101.74
749.956	100.84
750.137	99.37
750.317	99.02
750.498	99.45
750.678	99.45
750.859	99.13
751.04	100.82
751.22	100.67
751.4	98.47
751.581	97.62
751.761	98.12
751.942	97.68
752.122	100.49
752.303	100.13
752.483	99.38
752.663	98.18
752.844	98.43
753.024	96.21
753.204	97.5
753.385	97.73
753.565	100.03
753.745	100.79
753.925	101.65
754.106	101.45
754.286	102.13
754.466	101.31
754.646	101.16
754.826	100.58
755.006	101.92
755.187	102.15
755.367	100.75
755.547	99.52
755.727	98.81
755.907	97.53
756.087	98.56
756.267	98.84
756.447	100.07
756.627	102.28
756.807	102.55
756.987	101.38
757.167	103.02
757.346	102.63
757.526	100.94
757.706	99.39
757.886	98.51
758.066	97.84
758.246	98.48
758.425	100.02
758.605	102.39
758.785	103.52
758.965	104.4
759.144	106.09
759.324	105.72
759.504	104.66
759.683	103.97
759.863	103.79
760.043	100.92
760.222	99.91
760.402	99.96
760.581	100.64
760.761	97.79
760.94	96.88
761.12	97.2
761.299	96.01
761.479	96.75
761.658	97.19
761.838	98.89
762.017	98.41
762.197	98.94
762.376	97.33
762.555	97.36
762.735	97.3
762.914	96.75
763.093	96.05
763.273	96.06
763.452	96.31
763.631	95.16
763.81	97.22
763.99	99.8
764.169	101.06
764.348	102.69
764.527	103.04
764.706	99.51
764.885	98.3
765.064	98.05
765.243	98.1
765.423	99.21
765.602	100.81
765.781	101.26
765.96	100.09
766.139	97.68
766.318	97.19
766.497	99.48
766.676	100.02
766.854	100.17
767.033	100.8
767.212	99.67
767.391	98.05
767.57	98.88
767.749	97.24
767.928	98.49
768.106	101.64
768.285	100.78
768.464	98.34
768.643	101.18
768.821	101.23
769	98.32
769.179	99.85
769.357	99.21
769.536	97.56
769.715	96.89
769.893	99.39
770.072	97.6
770.25	100.13
770.429	102.85
770.607	102.35
770.786	102.46
770.964	102.37
771.143	99.81
771.321	95.65
771.5	97.01
771.678	94.16
771.857	93.27
772.035	95.27
772.213	97.59
772.392	96.24
772.57	97.74
772.748	99.61
772.927	98.65
773.105	98.62
773.283	96.52
773.461	94.5
773.64	93.7
773.818	95.01
773.996	92.17
774.174	94.42
774.352	94.07
774.531	95.03
774.709	92.74
774.887	96.27
775.065	96.75
775.243	97.68
775.421	98.46
775.599	97.71
775.777	96.27
775.955	95.13
776.133	96.84
776.311	94.71
776.489	95.67
776.667	96.99
776.844	99.37
777.022	98.4
777.2	100.12
777.378	100.12
777.556	100.23
777.734	96.77
777.911	95.44
778.089	93.96
778.267	92.9
778.445	89.85
778.622	90.46
778.8	92.9
778.978	92.78
779.155	94.23
779.333	94.46
779.511	94.44
779.688	92.02
779.866	90.87
780.043	90.71
780.221	92.55
780.398	90.54
780.576	90.07
780.753	91.8
780.931	89.84
781.108	90.18
781.286	91.06
781.463	93.06
781.64	93.78
781.818	92.57
781.995	92.99
782.172	95.71
782.35	94.78
782.527	96.07
782.704	95.76
782.882	96.67
783.059	94.39
783.236	93.38
783.413	89.75
783.59	89.85
783.768	84.26
783.945	86.32
784.122	89.98
784.299	93.67
784.476	95.06
784.653	99.76
784.83	98.71
785.007	96.77
785.184	92.77
785.361	93.99
785.538	92.3
785.715	92.32
785.892	91.2
786.069	93.22
786.246	92.14
786.423	93.13
786.6	93.95
786.776	95.67
786.953	95.62
787.13	97.34
787.307	98.6
787.484	97.53
787.66	98.93
787.837	101.12
788.014	99.17
788.191	95.81
788.367	96.57
788.544	94.56
788.721	91.95
788.897	95.48
789.074	95.66
789.25	90.22
789.427	89.4
789.603	87.17
789.78	82.31
789.956	80.92
790.133	84.98
790.309	86.96
790.486	84.33
790.662	88.29
790.839	92.64
791.015	92.08
791.192	88.5
791.368	95.38
791.544	88.92
791.721	90.54
791.897	90.17
792.073	92.97
792.249	91.16
792.426	99.39
792.602	96.85
792.778	97.46
792.954	94.62
793.13	95.15
793.307	91.79
793.483	92.23
793.659	93.54
793.835	97.07
794.011	98.77
794.187	98.88
794.363	98.19
794.539	94.3
794.715	92.13
794.891	91.28
795.067	87.23
795.243	86.59
795.419	92.76
795.595	95.13
795.771	97.16
795.947	99.52
796.122	98.32
796.298	96.56
796.474	94.64
796.65	92.18
796.826	94.58
797.001	98.49
797.177	97.04
797.353	95.41
797.529	98
797.704	95.94
797.88	93.99
798.056	92.21
798.231	93.53
798.407	90.05
798.582	89.81
798.758	89.01
798.934	90.09
799.109	89.13
799.285	87.49
799.46	90.08
799.636	89.98
799.811	86.64
799.986	82.73
800.162	81.76
800.337	79.52
800.513	77.84
800.688	79.61
800.863	84.4
801.039	89.48
801.214	93.52
801.389	95.51
801.565	91.96
801.74	97.77
801.915	96.14
802.09	90.23
802.265	90.83
802.441	93.24
802.616	84.94
802.791	83.14
802.966	86.71
803.141	85.44
803.316	86.29
803.491	86.58
803.666	84.02
803.841	85.81
804.016	81.74
804.191	81.27
804.366	92.78
804.541	95.48
804.716	92.69
804.891	99.06
805.066	106.15
805.241	103.25
805.416	100.3
805.591	95.97
805.765	97.17
805.94	90.57
806.115	82.38
806.29	80.05
806.464	88.52
806.639	86.14
806.814	81.77
806.989	88.53
807.163	88.08
807.338	84.02
807.512	82.45
807.687	85.62
807.862	76.9
808.036	80.7
808.211	78.09
808.385	82.35
808.56	84.31
808.734	89.09
808.909	89.26
809.083	89.76
809.258	88.51
809.432	90.16
809.606	90.13
809.781	87.61
809.955	86.82
810.13	88.26
810.304	89.31
810.478	91.84
810.652	92.34
810.827	97.11
811.001	99.75
811.175	98.87
811.349	98.69
811.524	99.25
811.698	94.43
811.872	88.42
812.046	88.69
812.22	78.57
812.394	79.93
812.568	82.31
812.742	89.63
812.916	91.57
813.09	91.21
813.264	92.83
813.438	96.11
813.612	88.09
813.786	80.18
813.96	97.05
814.134	86.51
814.308	83.67
814.482	84.23
814.656	93
814.83	90.41
815.003	99.25
815.177	102.99
815.351	105.21
815.525	98.63
815.698	98.78
815.872	100.62
816.046	97.85
816.219	93.54
816.393	99.95
816.567	91.52
816.74	88.18
816.914	79.84
817.088	83.91
817.261	85.56
817.435	93.17
817.608	100.21
817.782	96.82
817.955	102.96
818.129	97.89
818.302	88.35
818.475	75.91
818.649	90.18
818.822	89.62
818.996	88.54
819.169	85.46
819.342	86.58
819.516	84.2
819.689	85.88
819.862	92.57
820.035	95.81
820.209	95.43
820.382	105.01
820.555	102.59
820.728	99.54
820.901	91.08
821.075	88.45
821.248	91.01
821.421	84.38
821.594	80.13
821.767	85.35
821.94	90.64
822.113	75.14
822.286	71.31
822.459	71.04
822.632	70.61
822.805	68.42
822.978	77.87
823.151	86.56
823.324	79.57
823.496	79.59
823.669	80.57
823.842	73.11
824.015	74.32
824.188	74.48
824.361	66.58
824.533	75.13
824.706	76.77
824.879	70.94
825.051	76.42
825.224	87.17
825.397	80.89
825.569	84.49
825.742	76.31
825.915	72.15
826.087	72.68
826.26	74.21
826.432	77.28
826.605	95.4
826.777	91.52
826.95	87.88
827.122	83.25
827.295	72.33
827.467	67.69
827.64	62.98
827.812	61.73
827.984	57.88
828.157	70.77
828.329	74.08
828.501	95.35
828.674	92.29
828.846	95.23
829.018	95.74
829.19	96.53
829.363	82.99
829.535	84.55
829.707	79.72
829.879	74.24
830.051	70.35
830.223	80.4
830.395	96.21
830.568	101.86
830.74	98.21
830.912	85.56
831.084	83.7
831.256	67.68
831.428	70.48
831.6	72.05
831.772	90.37
831.943	83.37
832.115	95.55
832.287	112.56
832.459	100.08
832.631	77.04
832.803	92.44
832.975	108.96
833.146	82.54
833.318	102.19
833.49	130.61
833.662	135.32
833.833	87.86
834.005	102.99
834.177	110.88
834.348	99.7
834.52	77.14
834.692	88.75
834.863	76.99
835.035	69.25
835.206	79.67
835.378	80.71
835.549	88.21
835.721	86.87
835.892	91.7
836.064	107.98
836.235	114.16
836.407	103.26
836.578	89.1
836.749	88.25
836.921	65.72
837.092	75.72
837.264	77.13
837.435	83.23
837.606	72.49
837.777	69.37
837.949	51.53
838.12	50.67
838.291	63
838.462	73.94
838.633	102.76
838.805	124.8
838.976	123.37
839.147	120.72
839.318	107.44
839.489	91.49
839.66	97.42
839.831	128.23
840.002	122.24
840.173	140.58
840.344	155.34
840.515	130.97
840.686	111.24
840.857	123.93
841.028	126.95
841.199	114.64
841.369	118
841.54	121.4
841.711	112.39
841.882	94.37
842.053	78.89
842.223	103.64
842.394	114.44
842.565	117.2
842.736	153.15
842.906	262.91
843.077	216.97
843.248	190.57
843.418	146.94
843.589	90.87
843.759	81.66
843.93	61.35
844.101	60.95
844.271	70.05
844.442	94.88
844.612	111.62
844.783	99.54
844.953	100.11
845.123	99.35
845.294	82.34
845.464	84.29
845.635	113.97
845.805	131.46
845.975	116.56
846.146	146.31
846.316	116.84
846.486	115.54
846.656	104.92
846.827	106.94
846.997	92.27
847.167	78.57
847.337	68.22
847.507	69.99
847.677	80.41
847.848	88.53
848.018	119.79
848.188	113.65
848.358	127.33
848.528	148.01
848.698	187.11
848.868	177.58
849.038	207.59
849.208	152.82
849.378	105.5
849.548	64.11
849.718	71.51
849.887	55.86
850.057	60.81
850.227	67.68
850.397	64.39
850.567	68.48
850.737	93.72
850.906	72.71
851.076	87.19
851.246	97.73
851.415	86.77
851.585	77.01
851.755	76.41
851.924	60.56
852.094	63.36
852.264	56.52
852.433	52.07
852.603	74.08
852.772	81.68
852.942	70.68
853.111	78.24
853.281	78.14
853.45	72.28
853.62	60.49
853.789	49.28
853.959	71.31
854.128	81.41
854.297	76.71
854.467	136.07
854.636	182.05
854.805	125.71
854.975	129.97
855.144	89.63
855.313	77.93
855.482	68.27
855.652	76.03
855.821	80.76
855.99	96.79
856.159	86.79
856.328	116.07
856.497	98.29
856.667	94.76
856.836	138.31
857.005	164.45
857.174	102.32
857.343	104.41
857.512	112.42
857.681	30.51
857.85	31.2
858.019	28.83
858.188	55.85
858.356	63.1
858.525	96.77
858.694	77.24
858.863	87.33
859.032	66.44
859.201	47.92
859.369	56.5
859.538	76.84
859.707	81.5
859.876	125.9
860.044	104.32
860.213	95.91
860.382	88.69
860.55	84.09
860.719	51.42
860.888	72.96
861.056	71.26
861.225	74.29
861.393	74.12
861.562	87.35
861.73	84.19
861.899	94.38
862.067	93.93
862.236	83.96
862.404	71.64
862.572	68.12
862.741	60.9
862.909	70.52
863.078	71.05
863.246	77.85
863.414	75.9
863.582	82.99
863.751	47.36
863.919	58.75
864.087	51.61
864.255	70.52
864.424	58.59
864.592	61.25
864.76	51.85
864.928	62.38
865.096	30.43
865.264	31.07
865.432	35.52
865.6	39.49
865.768	20.08
865.936	31.72
866.104	41.01
866.272	39.98
866.44	45.77
866.608	49.77
866.776	85.38
866.944	112.96
867.112	134.75
867.28	140.87
867.448	128.19
867.615	97.92
867.783	81.93
867.951	73.75
868.119	63.1
868.286	72.64
868.454	81.93
868.622	80.41
868.789	91.31
868.957	89.98
869.125	83.65
869.292	89.27
869.46	96.46
869.627	87.54
869.795	88.14
869.963	112.82
870.13	83.22
870.298	89.92
870.465	97.39
870.632	102.84
870.8	81.92
870.967	121.34
871.135	123.96
871.302	89.74
871.469	84.84
871.637	106.31
871.804	104.06
871.971	66.67
872.139	107.95
872.306	105.56
872.473	111.09
872.64	86.37
872.807	99.91
872.975	51.05
873.142	45.48
873.309	37.77
873.476	53
873.643	44.17
873.81	74.26
873.977	64.34
874.144	59.84
874.311	58.14
874.478	70.79
874.645	79.34
874.812	117.87
874.979	109.64
875.146	105.13
875.313	103.02
875.48	139.05
875.647	111.81
875.813	141.59
875.98	137.29
876.147	121.07
876.314	80.38
876.481	59.33
876.647	56.18
876.814	78.92
876.981	92.06
877.147	95.62
877.314	95.4
877.481	100.36
877.647	64.67
877.814	41.95
877.98	41.24
878.147	24.82
878.314	15.43
878.48	81.66
878.647	121.54
878.813	95.09
878.979	91.47
879.146	94.03
879.312	86.01
879.479	97.89
879.645	108.6
879.811	114.34
879.978	85.29
880.144	88.01
880.31	74.09
880.477	64.48
880.643	72.51
880.809	89.74
880.975	79.37
881.142	42.03
881.308	49.42
881.474	121.39
881.64	36.57
881.806	84.63
881.972	119.79
882.138	134.21
882.304	64.49
882.47	25.74
882.636	18.73
882.802	43.77
882.968	61.82
883.134	64.45
883.3	93.29
883.466	142.69
883.632	181.5
883.798	152.85
883.964	277.6
884.129	458.66
884.295	291.84
884.461	132.3
884.627	107.1
884.793	84.57
884.958	67.84
885.124	47.88
885.29	52.85
885.455	61.95
885.621	46.71
885.787	34.51
885.952	44.09
886.118	37.75
886.283	58.7
886.449	84.47
886.614	88.6
886.78	102.17
886.945	110.83
887.111	74.66
887.276	50.64
887.442	59.54
887.607	23.56
887.773	33.19
887.938	52.07
888.103	42.93
888.269	32.16
888.434	40.08
888.599	34.95
888.764	41.43
888.93	62.58
889.095	58.39
889.26	85.09
889.425	89.36
889.59	98.48
889.756	82.12
889.921	70.36
890.086	56.66
890.251	79.95
890.416	56.8
890.581	37.5
890.746	83.49
890.911	96.6
891.076	91.14
891.241	98.24
891.406	150.3
891.571	126.35
891.736	80.6
891.901	84.85
892.065	84.3
892.23	44.08
892.395	62.08
892.56	70.2
892.725	65.61
892.889	92.06
893.054	74.7
893.219	69.34
893.384	79.48
893.548	70.18
893.713	49.9
893.878	47.29
