Data from Ofav_PP_Phys_9IR44_Reflection_3.txt Node
Date: Tue Jul 27 19:05:52 EDT 2021
User: USUARIO
Spectrometer: FLMT01687
Trigger mode: 0
Integration Time (sec): 8.500000E-1
Scans to average: 2
Electric dark correction enabled: true
Nonlinearity correction enabled: false
Boxcar width: 2
XAxis mode: Wavelengths
Number of Pixels in Spectrum: 3648
>>>>>Begin Spectral Data<<<<<
179.494	-1274.07
179.716	-431.72
179.937	-315.13
180.158	-287.8
180.38	-325.93
180.601	-335.47
180.823	144.05
181.044	94.18
181.265	51.52
181.486	43.9
181.708	12.97
181.929	106.54
182.15	143.88
182.372	87.74
182.593	63.4
182.814	55.96
183.035	63.18
183.257	53.03
183.478	55.83
183.699	48.62
183.92	78.15
184.141	58.98
184.363	55.74
184.584	71.54
184.805	93.33
185.026	69.16
185.247	82.71
185.468	55.3
185.689	15.9
185.91	-15.28
186.132	-14.9
186.353	-4.78
186.574	-9.15
186.795	9.58
187.016	15.35
187.237	4.01
187.458	2.87
187.679	20.21
187.9	-2.12
188.121	0.73
188.342	1.26
188.563	-5.25
188.784	38.92
189.005	66.86
189.226	67.96
189.447	45.74
189.667	65.42
189.888	54.23
190.109	59.5
190.33	45.62
190.551	33.86
190.772	7.34
190.993	1.84
191.214	-9.94
191.434	-15.12
191.655	9.04
191.876	6.09
192.097	11.58
192.318	21.69
192.538	30.92
192.759	36.44
192.98	39.75
193.201	34.66
193.421	39.59
193.642	46.68
193.863	22.63
194.083	18.84
194.304	18.51
194.525	10.56
194.745	-28.07
194.966	-9.16
195.187	-12.15
195.407	37.14
195.628	42.18
195.848	78.85
196.069	100.03
196.29	128.86
196.51	87.5
196.731	72.38
196.951	54.95
197.172	32.59
197.392	47.47
197.613	27.48
197.833	39.58
198.054	37.81
198.274	28.82
198.495	30.09
198.715	32.63
198.936	-2.58
199.156	33.31
199.377	63.76
199.597	11.84
199.817	-1.93
200.038	-46.16
200.258	-81.82
200.479	-58.9
200.699	-22.91
200.919	-6.82
201.14	-4.15
201.36	-25.51
201.58	-5.76
201.801	-14.41
202.021	-4.82
202.241	15.23
202.461	17.65
202.682	-24.42
202.902	-46.59
203.122	4.56
203.342	-6.41
203.563	24.91
203.783	42.08
204.003	47.8
204.223	15.55
204.443	16.85
204.663	-7.2
204.884	-1.71
205.104	-13.69
205.324	8.67
205.544	24.9
205.764	28.29
205.984	18.29
206.204	43.8
206.424	42.99
206.644	33.07
206.864	31.98
207.084	46.34
207.304	40.08
207.525	28.26
207.745	33.58
207.964	37.05
208.184	26.68
208.404	24.8
208.624	39.35
208.844	32.64
209.064	29.24
209.284	16.72
209.504	32.73
209.724	10.89
209.944	-57
210.164	-40.52
210.384	8.79
210.604	-12.26
210.823	30.84
211.043	49.84
211.263	24.29
211.483	14.23
211.703	3.07
211.922	-15.45
212.142	-10.28
212.362	1.61
212.582	0.1
212.801	24.09
213.021	11.51
213.241	-4.37
213.461	-6.2
213.68	14.88
213.9	-5.02
214.12	-3.13
214.339	25.9
214.559	25.9
214.779	26.09
214.998	9.39
215.218	23.25
215.438	28.25
215.657	23.9
215.877	18.39
216.096	33
216.316	47.45
216.535	28.65
216.755	51.13
216.974	58.65
217.194	64.03
217.413	31.29
217.633	29.53
217.852	17.55
218.072	1.57
218.291	-13.86
218.511	0.43
218.73	6.11
218.95	10.69
219.169	15.06
219.389	8.06
219.608	11.58
219.827	25.15
220.047	12.94
220.266	41.81
220.485	56.44
220.705	53
220.924	40.95
221.143	37.7
221.363	9.87
221.582	-5.45
221.801	-2.5
222.021	21.3
222.24	38.13
222.459	21.58
222.678	27.72
222.897	28.59
223.117	22.61
223.336	-6.13
223.555	18.98
223.774	8.59
223.993	-2.96
224.213	-20.14
224.432	-24.05
224.651	11.22
224.87	17.13
225.089	10.51
225.308	11.89
225.527	31.7
225.746	-1.61
225.965	13.65
226.184	7.76
226.404	16.66
226.623	9.67
226.842	33.92
227.061	22.7
227.28	50.76
227.499	48.56
227.718	37.94
227.936	31.03
228.155	28.65
228.374	38.15
228.593	35.48
228.812	36.98
229.031	42.46
229.25	59.82
229.469	38.48
229.688	39.44
229.907	0.72
230.125	1.28
230.344	6.33
230.563	25.46
230.782	34.65
231.001	57.13
231.22	60.03
231.438	45.09
231.657	38.16
231.876	33.14
232.095	51.48
232.313	56.36
232.532	57.53
232.751	51.05
232.969	46.48
233.188	26.79
233.407	3.47
233.625	16.73
233.844	20.56
234.063	36.43
234.281	42.87
234.5	46.72
234.719	58.55
234.937	41.09
235.156	11.83
235.374	0.67
235.593	6.59
235.811	-8.87
236.03	9.31
236.249	17.74
236.467	31.82
236.686	27.65
236.904	33.37
237.123	23.69
237.341	22.46
237.559	27.65
237.778	21.61
237.996	16.77
238.215	33.72
238.433	44.75
238.652	24.39
238.87	38.22
239.088	27.72
239.307	19.1
239.525	-8.88
239.743	-7.6
239.962	-18.82
240.18	-6.21
240.398	-13.69
240.617	-3.89
240.835	11.49
241.053	15.11
241.271	18.68
241.49	23.47
241.708	30.51
241.926	22.08
242.144	14.9
242.363	15.51
242.581	26.73
242.799	18.58
243.017	8.39
243.235	15.4
243.453	20.24
243.672	27.19
243.89	17.59
244.108	25.48
244.326	32.9
244.544	20.88
244.762	14.36
244.98	37.03
245.198	30.03
245.416	23.61
245.634	25.22
245.852	35.19
246.07	19.82
246.288	32.89
246.506	27.6
246.724	31.42
246.942	26.86
247.16	32.68
247.378	33.58
247.596	41.15
247.814	35.67
248.032	35.24
248.25	29.76
248.468	19.11
248.685	3.69
248.903	-2.11
249.121	-17.03
249.339	-23.19
249.557	2.43
249.775	-2.27
249.992	9.8
250.21	15.54
250.428	16.46
250.646	6.92
250.863	17.7
251.081	27.49
251.299	38.68
251.517	33.08
251.734	44.04
251.952	29.96
252.17	25.51
252.387	9.66
252.605	14.59
252.823	19.51
253.04	46.57
253.258	51.62
253.475	50.1
253.693	57.06
253.911	57.9
254.128	38.36
254.346	32.96
254.563	35.69
254.781	23.45
254.998	19.38
255.216	7.33
255.433	17.37
255.651	10.21
255.868	11.9
256.086	14.72
256.303	15.36
256.521	21.1
256.738	31.1
256.956	34.35
257.173	33.24
257.39	48.55
257.608	42.42
257.825	40.84
258.043	39.96
258.26	42.51
258.477	32.74
258.695	29.93
258.912	29.27
259.129	21.59
259.346	16.32
259.564	5.5
259.781	39.36
259.998	35.76
260.216	46.82
260.433	48.43
260.65	57.56
260.867	33.79
261.084	48.82
261.302	43.74
261.519	27.11
261.736	17.27
261.953	15.69
262.17	3.27
262.387	8.24
262.604	24.71
262.822	37.42
263.039	40.68
263.256	46.1
263.473	55.23
263.69	58.93
263.907	35.59
264.124	48.36
264.341	46.7
264.558	41.58
264.775	21.53
264.992	26.35
265.209	26.03
265.426	30.21
265.643	23.74
265.86	15.27
266.077	22.87
266.294	24.84
266.51	20.91
266.727	29.59
266.944	44.71
267.161	43.85
267.378	44.19
267.595	54.37
267.812	44.6
268.028	52.44
268.245	31.89
268.462	15.82
268.679	6.55
268.896	10.25
269.112	-11.92
269.329	8.13
269.546	37.08
269.763	28.63
269.979	29.52
270.196	46.89
270.413	44.16
270.629	22.2
270.846	40.86
271.063	40
271.279	34.34
271.496	15.25
271.712	-2.56
271.929	-24.71
272.146	-64.12
272.362	-36.31
272.579	-20.57
272.795	16.35
273.012	14.66
273.228	23.22
273.445	23.49
273.661	30.64
273.878	10.58
274.094	9.43
274.311	22.57
274.527	19.06
274.744	13.04
274.96	18.93
275.177	24.22
275.393	29.92
275.609	31.16
275.826	28.7
276.042	18.05
276.259	27.36
276.475	10.94
276.691	17.46
276.908	17.52
277.124	19.22
277.34	14.21
277.557	14.57
277.773	23.2
277.989	28.5
278.205	31.73
278.422	28.87
278.638	34.29
278.854	31.97
279.07	38.19
279.286	40.78
279.503	47.51
279.719	45.74
279.935	46.32
280.151	43.27
280.367	45.12
280.583	45.5
280.799	54.16
281.016	50.3
281.232	39.75
281.448	31.5
281.664	25.44
281.88	0.92
282.096	6.29
282.312	23.28
282.528	16.8
282.744	27.31
282.96	31.92
283.176	18.3
283.392	14.16
283.608	32.23
283.824	26.02
284.04	11.35
284.256	30.3
284.471	27.39
284.687	30.83
284.903	31.46
285.119	43.69
285.335	44.64
285.551	39.02
285.767	35.75
285.982	21.51
286.198	14.94
286.414	6.04
286.63	10.83
286.846	9.27
287.061	9.5
287.277	3.12
287.493	-4.08
287.709	-6.1
287.924	3.27
288.14	29.71
288.356	56.27
288.571	63.56
288.787	68.17
289.003	59.76
289.218	56.12
289.434	38.07
289.65	30.39
289.865	9.25
290.081	18.54
290.296	6.49
290.512	4.43
290.727	20.66
290.943	27.5
291.159	25.5
291.374	35.66
291.59	33.01
291.805	30.22
292.021	49.5
292.236	49.18
292.451	35.29
292.667	54.16
292.882	45.16
293.098	26.6
293.313	41.78
293.529	63.89
293.744	46.35
293.959	45
294.175	55.33
294.39	36.87
294.605	28.9
294.821	33.37
295.036	17.23
295.251	7.3
295.467	14.94
295.682	-17.2
295.897	-4.92
296.112	25.28
296.328	31.72
296.543	44.03
296.758	58.5
296.973	54.95
297.188	62.11
297.404	47.78
297.619	42.31
297.834	37.87
298.049	31.12
298.264	24.46
298.479	35.37
298.694	26.86
298.909	25.07
299.125	31.55
299.34	20.8
299.555	18.21
299.77	27.42
299.985	25.69
300.2	27.19
300.415	24.38
300.63	10.41
300.845	8.09
301.06	-1.86
301.275	2.78
301.49	14.23
301.704	24.56
301.919	23.53
302.134	40.39
302.349	34.52
302.564	29.17
302.779	17.17
302.994	4.88
303.209	2.09
303.423	-14.03
303.638	-29.98
303.853	-18.21
304.068	0.89
304.283	-11
304.497	-3.82
304.712	20.41
304.927	24.8
305.142	28.64
305.356	27.11
305.571	43.42
305.786	28.24
306	22.93
306.215	29.12
306.43	38.59
306.644	38.24
306.859	48.82
307.074	52.94
307.288	40.31
307.503	36.92
307.717	23.67
307.932	14.15
308.147	32.67
308.361	33.77
308.576	28.25
308.79	22.62
309.005	14.22
309.219	-18.73
309.434	-30.24
309.648	-23.78
309.863	-21.24
310.077	-9.2
310.292	6.3
310.506	-2.27
310.72	2.52
310.935	9.06
311.149	-5.07
311.364	-37.2
311.578	-6.48
311.792	-18.07
312.007	-2.24
312.221	9.68
312.435	18.45
312.649	18.39
312.864	-19.6
313.078	-43.35
313.292	-43.39
313.507	-23.42
313.721	11.17
313.935	48.29
314.149	44.02
314.363	34.37
314.578	29.76
314.792	8.55
315.006	15.99
315.22	19.61
315.434	24.7
315.648	25.94
315.862	30.14
316.077	17.13
316.291	13.01
316.505	1.41
316.719	5.31
316.933	19.34
317.147	28.51
317.361	28.44
317.575	36.81
317.789	40.46
318.003	30.29
318.217	31.24
318.431	25.43
318.645	32.22
318.859	23.56
319.073	9.98
319.287	2.95
319.5	9.77
319.714	-7.98
319.928	-1.84
320.142	-2.72
320.356	7.45
320.57	11.7
320.784	25.46
320.997	31.73
321.211	45.7
321.425	40.93
321.639	30.13
321.853	22.58
322.066	21.3
322.28	2.31
322.494	3.45
322.707	14.09
322.921	24.53
323.135	7.15
323.349	17.7
323.562	13.7
323.776	-2.74
323.989	-29.67
324.203	-15.53
324.417	-21.68
324.63	5.43
324.844	14.01
325.057	19.82
325.271	8.04
325.485	6.06
325.698	-8.33
325.912	-10.02
326.125	10.72
326.339	29.9
326.552	35.76
326.766	42.93
326.979	46.12
327.193	36.66
327.406	31.72
327.619	27.41
327.833	27.59
328.046	35.15
328.26	44.09
328.473	34.18
328.686	32.49
328.9	37.81
329.113	21.97
329.326	-17.05
329.54	-12.89
329.753	-26.49
329.966	-49.75
330.179	-16.56
330.393	37.22
330.606	23.09
330.819	41.42
331.032	56.31
331.246	40.61
331.459	24.45
331.672	32.71
331.885	23.48
332.098	25.07
332.311	25.11
332.525	16.71
332.738	12.52
332.951	26.08
333.164	13.45
333.377	9.83
333.59	30.09
333.803	34.54
334.016	24.21
334.229	25.77
334.442	36.15
334.655	31.29
334.868	34
335.081	34.9
335.294	39.08
335.507	16.22
335.72	14.31
335.933	11.38
336.146	11.51
336.359	13.72
336.572	37.18
336.785	39.47
336.997	44.34
337.21	55.05
337.423	54.24
337.636	41.83
337.849	32.97
338.062	29.14
338.274	24.11
338.487	28.53
338.7	14.14
338.913	7.71
339.125	9.53
339.338	-12.08
339.551	-34.9
339.763	-21
339.976	-8.18
340.189	-9.25
340.402	3.67
340.614	7.47
340.827	6.88
341.039	2.18
341.252	12.44
341.465	-5.68
341.677	6.26
341.89	12.14
342.102	22.45
342.315	14.38
342.527	16.07
342.74	27.58
342.952	9.33
343.165	16.49
343.377	13.97
343.59	16.62
343.802	-0.98
344.015	15.33
344.227	3.57
344.44	-16.61
344.652	2.5
344.864	17.74
345.077	14.6
345.289	2.22
345.502	16.27
345.714	11.65
345.926	-6.83
346.139	-4.43
346.351	9.73
346.563	-6.78
346.775	-3.35
346.988	6.6
347.2	-6.18
347.412	-10.86
347.624	3.26
347.837	-23.36
348.049	-12.28
348.261	-0.4
348.473	-7.58
348.685	16.71
348.897	28.61
349.11	30.39
349.322	19.1
349.534	30.29
349.746	23.98
349.958	28.82
350.17	33.71
350.382	43.31
350.594	25.98
350.806	14.03
351.018	9
351.23	-1.99
351.442	-7.91
351.654	30.88
351.866	31.01
352.078	24.66
352.29	24.22
352.502	22.47
352.714	9.43
352.926	21.82
353.138	30.45
353.35	27.28
353.561	26.93
353.773	24.09
353.985	-8.19
354.197	-11.45
354.409	-1.18
354.621	-1.44
354.832	1.91
355.044	12.43
355.256	16.7
355.468	16.52
355.679	32.5
355.891	31.93
356.103	40.61
356.314	49.38
356.526	54.3
356.738	43.07
356.949	45.97
357.161	47.53
357.373	42.97
357.584	28.68
357.796	36.23
358.008	36.51
358.219	24.49
358.431	32.54
358.642	28.72
358.854	21.76
359.065	10.23
359.277	19.82
359.488	24.81
359.7	30.7
359.911	39.76
360.123	44.31
360.334	36.56
360.546	6.06
360.757	22.1
360.969	3.92
361.18	10.95
361.391	12.24
361.603	25.15
361.814	14.99
362.025	30.5
362.237	34.99
362.448	33.92
362.659	38.43
362.871	42.21
363.082	35.75
363.293	29.94
363.504	26.99
363.716	13.36
363.927	-7.76
364.138	-10.43
364.349	-9.27
364.56	-6.74
364.772	2.05
364.983	17.41
365.194	16.44
365.405	23.81
365.616	14.99
365.827	15.58
366.038	14.39
366.25	13.3
366.461	7.24
366.672	7.72
366.883	15.43
367.094	9.63
367.305	11.4
367.516	12
367.727	22.78
367.938	14.01
368.149	4.38
368.36	5.95
368.571	5.59
368.781	7.62
368.992	0.73
369.203	-1.27
369.414	-0.31
369.625	-0.5
369.836	2.36
370.047	16.48
370.258	22.04
370.468	16.68
370.679	13.35
370.89	12.43
371.101	-6.21
371.312	-3.81
371.522	-10.22
371.733	4.98
371.944	2.09
372.155	13.99
372.365	2.05
372.576	19.99
372.787	14.12
372.997	22.4
373.208	24.27
373.419	38.34
373.629	33.84
373.84	31.01
374.05	31.58
374.261	30.94
374.472	35.68
374.682	23.82
374.893	21.42
375.103	13.44
375.314	13.61
375.524	12.24
375.735	18.73
375.945	24.4
376.156	27.71
376.366	28.65
376.577	10.86
376.787	9.82
376.997	13.43
377.208	7.49
377.418	2.23
377.629	14.95
377.839	30.45
378.049	16.81
378.26	23.38
378.47	28.47
378.68	29.61
378.89	12.53
379.101	16.39
379.311	3.98
379.521	0.52
379.732	-0.41
379.942	15.88
380.152	15.04
380.362	26.07
380.572	20.97
380.783	16.72
380.993	12.24
381.203	14.9
381.413	8.42
381.623	14.26
381.833	11.46
382.043	19.67
382.253	19.53
382.463	19.94
382.674	27.78
382.884	15.5
383.094	7.61
383.304	12.39
383.514	15.91
383.724	8.35
383.934	22.14
384.144	11.28
384.353	6.56
384.563	4.14
384.773	3.72
384.983	-3.47
385.193	4.57
385.403	1.83
385.613	10.14
385.823	10.81
386.033	14.44
386.242	17.02
386.452	13.97
386.662	14.16
386.872	16.83
387.082	17.41
387.291	3.89
387.501	5.4
387.711	-0.9
387.921	0.99
388.13	3.87
388.34	7.13
388.55	8.81
388.759	10.89
388.969	9.44
389.179	8.18
389.388	15.96
389.598	17.24
389.807	15.85
390.017	14.18
390.227	16.27
390.436	12.87
390.646	13.96
390.855	13.51
391.065	11.78
391.274	9.76
391.484	6.14
391.693	4.59
391.903	5.67
392.112	7.11
392.322	5.99
392.531	8.78
392.74	8.31
392.95	5.84
393.159	4.83
393.369	4.68
393.578	4.88
393.787	3.96
393.997	6.19
394.206	8.18
394.415	8.57
394.625	7.9
394.834	8.03
395.043	7.26
395.252	6.54
395.462	7.18
395.671	6.16
395.88	7.09
396.089	7.5
396.298	6.62
396.508	5.77
396.717	7.27
396.926	6.47
397.135	6.15
397.344	6.4
397.553	7.1
397.762	5.99
397.971	6.35
398.181	6.06
398.39	5.98
398.599	5.76
398.808	6.49
399.017	6.51
399.226	6.86
399.435	7.36
399.644	7.74
399.853	7.86
400.062	8.11
400.27	7.74
400.479	7.18
400.688	6.8
400.897	6.49
401.106	6.59
401.315	7.04
401.524	7.26
401.733	7.41
401.941	7.49
402.15	7.13
402.359	6.93
402.568	6.99
402.777	6.79
402.985	6.64
403.194	6.88
403.403	6.95
403.612	6.87
403.82	6.72
404.029	6.82
404.238	6.68
404.446	6.68
404.655	6.63
404.864	6.82
405.072	6.72
405.281	6.66
405.489	6.44
405.698	6.5
405.906	6.57
406.115	6.45
406.324	6.24
406.532	6.19
406.741	6.02
406.949	5.89
407.158	5.82
407.366	5.86
407.574	6.05
407.783	6.08
407.991	6.01
408.2	6.13
408.408	6.28
408.617	6.2
408.825	6.25
409.033	6.28
409.242	6.2
409.45	6.07
409.658	6.01
409.867	5.95
410.075	5.87
410.283	5.96
410.491	5.97
410.7	5.91
410.908	5.89
411.116	5.84
411.324	5.71
411.533	5.7
411.741	5.58
411.949	5.5
412.157	5.64
412.365	5.78
412.573	5.68
412.781	5.59
412.99	5.67
413.198	5.75
413.406	5.71
413.614	5.8
413.822	6.06
414.03	6
414.238	5.8
414.446	5.74
414.654	5.75
414.862	5.8
415.07	5.78
415.278	5.84
415.486	5.74
415.694	5.67
415.902	5.48
416.109	5.42
416.317	5.41
416.525	5.37
416.733	5.38
416.941	5.61
417.149	5.53
417.357	5.55
417.564	5.44
417.772	5.35
417.98	5.19
418.188	5.36
418.395	5.25
418.603	5.37
418.811	5.45
419.019	5.49
419.226	5.51
419.434	5.57
419.642	5.62
419.849	5.52
420.057	5.28
420.265	5.35
420.472	5.22
420.68	5.2
420.887	5.32
421.095	5.43
421.302	5.32
421.51	5.2
421.717	5.18
421.925	5.05
422.132	5.05
422.34	4.96
422.547	5.11
422.755	5.3
422.962	5.33
423.17	5.42
423.377	5.5
423.585	5.53
423.792	5.34
423.999	5.28
424.207	5.11
424.414	4.97
424.621	5.01
424.829	4.88
425.036	4.85
425.243	4.85
425.451	4.85
425.658	4.6
425.865	4.73
426.072	4.64
426.28	4.71
426.487	4.91
426.694	5.05
426.901	5.03
427.108	5.1
427.315	5.02
427.523	4.72
427.73	4.63
427.937	4.55
428.144	4.54
428.351	4.48
428.558	4.71
428.765	4.73
428.972	4.87
429.179	4.95
429.386	4.97
429.593	4.94
429.8	5
430.007	4.76
430.214	4.77
430.421	4.85
430.628	4.79
430.835	4.88
431.042	4.92
431.249	4.84
431.456	4.84
431.662	5.01
431.869	5.12
432.076	5.21
432.283	5.17
432.49	5.19
432.697	5.02
432.903	4.86
433.11	5.06
433.317	5.11
433.524	5
433.73	5.01
433.937	4.99
434.144	4.95
434.35	4.97
434.557	5.08
434.764	5.1
434.97	5.12
435.177	5.07
435.384	4.94
435.59	5.02
435.797	4.99
436.003	5.04
436.21	4.84
436.416	4.83
436.623	4.57
436.829	4.4
437.036	4.34
437.242	4.48
437.449	4.49
437.655	4.65
437.862	4.88
438.068	4.84
438.275	4.9
438.481	4.87
438.687	4.94
438.894	4.97
439.1	5.04
439.307	4.89
439.513	5.07
439.719	5.09
439.926	4.98
440.132	5.11
440.338	5.17
440.544	5.03
440.751	4.85
440.957	4.85
441.163	4.62
441.369	4.6
441.575	4.64
441.782	4.84
441.988	4.85
442.194	4.94
442.4	5
442.606	5.03
442.812	4.96
443.018	4.88
443.224	4.8
443.431	4.76
443.637	4.8
443.843	4.62
444.049	4.73
444.255	4.73
444.461	4.69
444.667	4.49
444.873	4.55
445.079	4.58
445.284	4.57
445.49	4.61
445.696	4.73
445.902	4.71
446.108	4.6
446.314	4.63
446.52	4.65
446.726	4.67
446.931	4.77
447.137	4.79
447.343	4.65
447.549	4.58
447.755	4.51
447.96	4.5
448.166	4.56
448.372	4.7
448.578	4.73
448.783	4.83
448.989	4.81
449.195	4.71
449.4	4.76
449.606	4.72
449.812	4.6
450.017	4.6
450.223	4.57
450.428	4.43
450.634	4.44
450.84	4.49
451.045	4.48
451.251	4.6
451.456	4.7
451.662	4.63
451.867	4.67
452.073	4.57
452.278	4.49
452.483	4.44
452.689	4.54
452.894	4.48
453.1	4.51
453.305	4.55
453.51	4.56
453.716	4.49
453.921	4.55
454.127	4.56
454.332	4.55
454.537	4.56
454.742	4.47
454.948	4.29
455.153	4.39
455.358	4.4
455.563	4.38
455.769	4.48
455.974	4.58
456.179	4.48
456.384	4.34
456.589	4.36
456.795	4.29
457	4.28
457.205	4.19
457.41	4.29
457.615	4.14
457.82	4.16
458.025	4.1
458.23	4.25
458.435	4.21
458.64	4.27
458.845	4.3
459.05	4.31
459.255	4.34
459.46	4.35
459.665	4.37
459.87	4.36
460.075	4.49
460.28	4.4
460.485	4.45
460.69	4.4
460.895	4.4
461.099	4.34
461.304	4.25
461.509	4.29
461.714	4.39
461.919	4.43
462.123	4.4
462.328	4.4
462.533	4.3
462.738	4.29
462.942	4.21
463.147	4.21
463.352	4.24
463.556	4.43
463.761	4.36
463.966	4.39
464.17	4.44
464.375	4.47
464.58	4.29
464.784	4.34
464.989	4.3
465.193	4.28
465.398	4.33
465.602	4.46
465.807	4.4
466.011	4.47
466.216	4.35
466.42	4.35
466.625	4.24
466.829	4.27
467.034	4.34
467.238	4.48
467.443	4.54
467.647	4.54
467.851	4.49
468.056	4.44
468.26	4.43
468.464	4.3
468.669	4.29
468.873	4.31
469.077	4.24
469.282	4.16
469.486	4.29
469.69	4.24
469.894	4.31
470.099	4.31
470.303	4.39
470.507	4.33
470.711	4.47
470.915	4.43
471.119	4.51
471.324	4.55
471.528	4.54
471.732	4.48
471.936	4.54
472.14	4.55
472.344	4.55
472.548	4.57
472.752	4.55
472.956	4.54
473.16	4.59
473.364	4.46
473.568	4.45
473.772	4.47
473.976	4.43
474.18	4.28
474.384	4.28
474.588	4.31
474.792	4.29
474.995	4.29
475.199	4.37
475.403	4.35
475.607	4.3
475.811	4.3
476.015	4.32
476.218	4.22
476.422	4.29
476.626	4.29
476.83	4.38
477.033	4.43
477.237	4.51
477.441	4.5
477.644	4.55
477.848	4.51
478.052	4.39
478.255	4.45
478.459	4.46
478.663	4.46
478.866	4.42
479.07	4.41
479.273	4.39
479.477	4.38
479.681	4.47
479.884	4.46
480.088	4.56
480.291	4.54
480.495	4.58
480.698	4.48
480.901	4.56
481.105	4.5
481.308	4.53
481.512	4.51
481.715	4.51
481.919	4.47
482.122	4.51
482.325	4.52
482.529	4.57
482.732	4.55
482.935	4.58
483.138	4.65
483.342	4.55
483.545	4.63
483.748	4.68
483.952	4.67
484.155	4.57
484.358	4.71
484.561	4.63
484.764	4.63
484.967	4.72
485.171	4.78
485.374	4.75
485.577	4.79
485.78	4.82
485.983	4.74
486.186	4.7
486.389	4.69
486.592	4.6
486.795	4.65
486.998	4.75
487.201	4.88
487.404	4.95
487.607	5.05
487.81	5
488.013	4.96
488.216	4.98
488.419	4.91
488.622	4.9
488.825	4.99
489.028	5.07
489.231	5.09
489.433	5.21
489.636	5.25
489.839	5.3
490.042	5.3
490.245	5.26
490.447	5.27
490.65	5.33
490.853	5.36
491.056	5.42
491.258	5.48
491.461	5.57
491.664	5.61
491.866	5.65
492.069	5.66
492.272	5.75
492.474	5.83
492.677	5.89
492.879	5.97
493.082	6.02
493.285	6.11
493.487	6.16
493.69	6.19
493.892	6.21
494.095	6.38
494.297	6.44
494.5	6.56
494.702	6.61
494.905	6.7
495.107	6.74
495.309	6.77
495.512	6.74
495.714	6.87
495.917	7.02
496.119	7.07
496.321	7.25
496.524	7.4
496.726	7.49
496.928	7.56
497.13	7.74
497.333	7.8
497.535	7.93
497.737	8.12
497.939	8.18
498.142	8.16
498.344	8.24
498.546	8.28
498.748	8.29
498.95	8.35
499.152	8.43
499.355	8.47
499.557	8.56
499.759	8.62
499.961	8.73
500.163	8.86
500.365	8.95
500.567	9.04
500.769	9.09
500.971	9.2
501.173	9.25
501.375	9.29
501.577	9.3
501.779	9.4
501.981	9.45
502.183	9.51
502.385	9.56
502.587	9.63
502.788	9.64
502.99	9.67
503.192	9.69
503.394	9.67
503.596	9.74
503.798	9.87
503.999	9.87
504.201	9.86
504.403	9.95
504.605	9.96
504.806	9.92
505.008	9.95
505.21	9.88
505.411	9.77
505.613	9.69
505.815	9.61
506.016	9.6
506.218	9.73
506.42	9.73
506.621	9.74
506.823	9.75
507.024	9.71
507.226	9.65
507.427	9.64
507.629	9.55
507.83	9.54
508.032	9.46
508.233	9.42
508.435	9.38
508.636	9.46
508.838	9.4
509.039	9.42
509.24	9.38
509.442	9.36
509.643	9.22
509.845	9.15
510.046	9.07
510.247	9.02
510.448	9.03
510.65	9
510.851	8.95
511.052	8.98
511.254	8.97
511.455	8.93
511.656	8.93
511.857	8.91
512.058	8.82
512.26	8.75
512.461	8.67
512.662	8.61
512.863	8.52
513.064	8.48
513.265	8.4
513.466	8.44
513.667	8.44
513.868	8.4
514.069	8.38
514.27	8.33
514.471	8.25
514.672	8.25
514.873	8.24
515.074	8.24
515.275	8.31
515.476	8.25
515.677	8.18
515.878	8.17
516.079	8.12
516.28	8.02
516.481	7.99
516.682	8
516.882	8
517.083	7.97
517.284	8
517.485	8
517.686	7.98
517.886	7.94
518.087	7.86
518.288	7.85
518.488	7.81
518.689	7.77
518.89	7.75
519.091	7.82
519.291	7.76
519.492	7.73
519.692	7.73
519.893	7.76
520.094	7.65
520.294	7.59
520.495	7.63
520.695	7.65
520.896	7.56
521.096	7.62
521.297	7.66
521.497	7.62
521.698	7.49
521.898	7.52
522.099	7.52
522.299	7.53
522.499	7.54
522.7	7.53
522.9	7.57
523.101	7.5
523.301	7.48
523.501	7.5
523.702	7.61
523.902	7.51
524.102	7.59
524.302	7.6
524.503	7.55
524.703	7.52
524.903	7.54
525.103	7.53
525.304	7.46
525.504	7.49
525.704	7.48
525.904	7.47
526.104	7.41
526.304	7.45
526.504	7.4
526.705	7.36
526.905	7.4
527.105	7.43
527.305	7.4
527.505	7.38
527.705	7.41
527.905	7.37
528.105	7.31
528.305	7.37
528.505	7.41
528.705	7.38
528.905	7.38
529.105	7.42
529.304	7.4
529.504	7.4
529.704	7.46
529.904	7.5
530.104	7.46
530.304	7.47
530.503	7.52
530.703	7.45
530.903	7.47
531.103	7.54
531.303	7.55
531.502	7.53
531.702	7.56
531.902	7.46
532.101	7.41
532.301	7.44
532.501	7.38
532.7	7.4
532.9	7.43
533.1	7.44
533.299	7.44
533.499	7.49
533.698	7.5
533.898	7.52
534.097	7.55
534.297	7.57
534.496	7.55
534.696	7.52
534.895	7.53
535.095	7.56
535.294	7.53
535.494	7.54
535.693	7.58
535.892	7.54
536.092	7.52
536.291	7.5
536.491	7.53
536.69	7.52
536.889	7.59
537.088	7.53
537.288	7.58
537.487	7.59
537.686	7.61
537.886	7.65
538.085	7.7
538.284	7.69
538.483	7.7
538.682	7.74
538.882	7.73
539.081	7.73
539.28	7.74
539.479	7.75
539.678	7.72
539.877	7.7
540.076	7.7
540.275	7.75
540.474	7.76
540.673	7.79
540.872	7.78
541.071	7.84
541.27	7.84
541.469	7.85
541.668	7.83
541.867	7.87
542.066	7.86
542.265	7.91
542.464	7.87
542.663	7.92
542.862	8
543.06	7.99
543.259	7.96
543.458	7.96
543.657	7.98
543.856	7.97
544.054	8.02
544.253	7.99
544.452	8.02
544.651	8.02
544.849	7.98
545.048	7.98
545.247	8.05
545.445	8.08
545.644	8.09
545.843	8.12
546.041	8.13
546.24	8.09
546.438	8.13
546.637	8.12
546.836	8.17
547.034	8.18
547.233	8.31
547.431	8.32
547.63	8.38
547.828	8.45
548.027	8.51
548.225	8.47
548.423	8.49
548.622	8.52
548.82	8.47
549.019	8.5
549.217	8.47
549.415	8.5
549.614	8.55
549.812	8.57
550.01	8.53
550.209	8.63
550.407	8.68
550.605	8.66
550.803	8.68
551.002	8.7
551.2	8.68
551.398	8.71
551.596	8.77
551.794	8.84
551.993	8.9
552.191	8.93
552.389	8.94
552.587	8.99
552.785	9.05
552.983	9.1
553.181	9.21
553.379	9.26
553.577	9.3
553.775	9.32
553.973	9.34
554.171	9.33
554.369	9.34
554.567	9.39
554.765	9.44
554.963	9.53
555.161	9.64
555.359	9.7
555.557	9.76
555.755	9.83
555.952	9.85
556.15	9.93
556.348	9.97
556.546	9.95
556.744	9.99
556.941	10.01
557.139	10
557.337	10.09
557.535	10.16
557.732	10.13
557.93	10.2
558.128	10.25
558.325	10.3
558.523	10.42
558.721	10.49
558.918	10.57
559.116	10.65
559.313	10.73
559.511	10.8
559.708	10.96
559.906	11
560.104	11.06
560.301	11.08
560.498	11.09
560.696	11.07
560.893	11.17
561.091	11.21
561.288	11.35
561.486	11.4
561.683	11.46
561.88	11.49
562.078	11.55
562.275	11.46
562.473	11.51
562.67	11.6
562.867	11.7
563.064	11.78
563.262	11.88
563.459	12.02
563.656	12.03
563.853	12.13
564.051	12.09
564.248	12.2
564.445	12.25
564.642	12.35
564.839	12.37
565.036	12.66
565.234	12.67
565.431	12.74
565.628	12.81
565.825	12.84
566.022	12.81
566.219	12.92
566.416	12.91
566.613	13
566.81	13.09
567.007	13.09
567.204	13.09
567.401	13.11
567.598	13.17
567.795	13.23
567.991	13.32
568.188	13.49
568.385	13.58
568.582	13.62
568.779	13.68
568.976	13.7
569.172	13.72
569.369	13.7
569.566	13.74
569.763	13.7
569.96	13.7
570.156	13.71
570.353	13.85
570.55	13.83
570.746	13.96
570.943	14.01
571.14	14.02
571.336	14
571.533	13.97
571.729	13.93
571.926	14.01
572.123	14.09
572.319	14.17
572.516	14.35
572.712	14.42
572.909	14.42
573.105	14.42
573.302	14.44
573.498	14.34
573.695	14.37
573.891	14.29
574.087	14.23
574.284	14.2
574.48	14.32
574.677	14.27
574.873	14.44
575.069	14.55
575.266	14.57
575.462	14.54
575.658	14.61
575.854	14.6
576.051	14.51
576.247	14.6
576.443	14.63
576.639	14.7
576.835	14.58
577.032	14.56
577.228	14.5
577.424	14.54
577.62	14.44
577.816	14.47
578.012	14.48
578.208	14.45
578.404	14.4
578.6	14.44
578.796	14.46
578.993	14.61
579.189	14.56
579.384	14.58
579.58	14.5
579.776	14.44
579.972	14.41
580.168	14.45
580.364	14.38
580.56	14.38
580.756	14.39
580.952	14.3
581.148	14.26
581.343	14.37
581.539	14.4
581.735	14.4
581.931	14.43
582.127	14.47
582.322	14.41
582.518	14.27
582.714	14.33
582.909	14.3
583.105	14.26
583.301	14.17
583.496	14.24
583.692	14.15
583.888	14.13
584.083	14.06
584.279	14.11
584.474	14.11
584.67	14.05
584.866	14
585.061	14.03
585.257	13.97
585.452	13.97
585.648	14.03
585.843	14.06
586.039	14.05
586.234	14.01
586.429	13.93
586.625	13.95
586.82	13.91
587.015	13.95
587.211	13.94
587.406	14.12
587.601	14.1
587.797	14.09
587.992	14.04
588.187	14.02
588.383	13.83
588.578	13.79
588.773	13.74
588.968	13.76
589.163	13.79
589.359	13.81
589.554	13.65
589.749	13.72
589.944	13.66
590.139	13.7
590.334	13.72
590.529	13.95
590.724	13.92
590.919	14
591.114	13.97
591.309	13.95
591.504	13.9
591.699	13.93
591.894	13.88
592.089	13.83
592.284	13.97
592.479	13.88
592.674	13.93
592.869	13.96
593.064	14.05
593.259	14.07
593.454	14.22
593.648	14.2
593.843	14.21
594.038	14.27
594.233	14.24
594.428	14.29
594.622	14.38
594.817	14.5
595.012	14.46
595.206	14.45
595.401	14.5
595.596	14.5
595.79	14.46
595.985	14.56
596.18	14.57
596.374	14.56
596.569	14.51
596.763	14.6
596.958	14.72
597.153	14.73
597.347	14.71
597.542	14.85
597.736	14.82
597.931	14.73
598.125	14.88
598.319	14.85
598.514	14.88
598.708	14.84
598.903	14.93
599.097	14.97
599.291	15.13
599.486	15.14
599.68	15.23
599.874	15.21
600.069	15.27
600.263	15.28
600.457	15.26
600.651	15.3
600.846	15.34
601.04	15.31
601.234	15.26
601.428	15.22
601.622	15.33
601.817	15.19
602.011	15.16
602.205	15.26
602.399	15.37
602.593	15.39
602.787	15.54
602.981	15.57
603.175	15.59
603.369	15.56
603.563	15.46
603.757	15.39
603.951	15.3
604.145	15.14
604.339	15.1
604.533	15.04
604.727	15.06
604.921	15.1
605.115	15.13
605.309	15.12
605.502	15.21
605.696	15.17
605.89	15.13
606.084	15.2
606.278	15.18
606.471	15.05
606.665	14.99
606.859	14.96
607.053	14.85
607.246	14.8
607.44	14.79
607.634	14.86
607.827	14.75
608.021	14.74
608.214	14.64
608.408	14.61
608.602	14.48
608.795	14.53
608.989	14.51
609.182	14.54
609.376	14.45
609.569	14.36
609.763	14.24
609.956	14.2
610.15	14.14
610.343	14.07
610.537	14.06
610.73	14.05
610.923	14.05
611.117	14.02
611.31	13.9
611.504	13.93
611.697	13.86
611.89	13.71
612.083	13.67
612.277	13.73
612.47	13.63
612.663	13.63
612.856	13.46
613.05	13.38
613.243	13.33
613.436	13.3
613.629	13.2
613.822	13.32
614.015	13.28
614.209	13.13
614.402	13.05
614.595	12.98
614.788	12.92
614.981	12.87
615.174	12.89
615.367	12.84
615.56	12.77
615.753	12.65
615.946	12.54
616.139	12.53
616.332	12.43
616.525	12.39
616.718	12.41
616.911	12.44
617.103	12.38
617.296	12.45
617.489	12.38
617.682	12.34
617.875	12.3
618.067	12.2
618.26	12.15
618.453	12.13
618.646	12.11
618.838	12.05
619.031	12.13
619.224	12.1
619.417	12.17
619.609	12.13
619.802	12.07
619.994	12.01
620.187	11.88
620.38	11.78
620.572	11.75
620.765	11.77
620.957	11.75
621.15	11.79
621.342	11.77
621.535	11.73
621.727	11.74
621.92	11.62
622.112	11.59
622.305	11.58
622.497	11.58
622.69	11.51
622.882	11.59
623.074	11.62
623.267	11.58
623.459	11.56
623.651	11.52
623.844	11.5
624.036	11.45
624.228	11.5
624.42	11.44
624.613	11.43
624.805	11.42
624.997	11.37
625.189	11.34
625.381	11.36
625.574	11.33
625.766	11.34
625.958	11.35
626.15	11.3
626.342	11.22
626.534	11.33
626.726	11.26
626.918	11.2
627.11	11.18
627.302	11.25
627.494	11.14
627.686	11.13
627.878	11.12
628.07	11.09
628.262	11.04
628.454	10.95
628.646	10.88
628.838	10.9
629.029	10.88
629.221	10.81
629.413	10.81
629.605	10.79
629.797	10.77
629.989	10.75
630.18	10.83
630.372	10.84
630.564	10.89
630.755	10.84
630.947	10.8
631.139	10.63
631.33	10.62
631.522	10.55
631.714	10.52
631.905	10.49
632.097	10.56
632.289	10.5
632.48	10.4
632.672	10.4
632.863	10.39
633.055	10.34
633.246	10.36
633.438	10.5
633.629	10.47
633.821	10.4
634.012	10.37
634.203	10.4
634.395	10.26
634.586	10.35
634.777	10.37
634.969	10.42
635.16	10.38
635.351	10.36
635.543	10.3
635.734	10.36
635.925	10.27
636.117	10.21
636.308	10.26
636.499	10.19
636.69	10.08
636.881	10.08
637.073	10.09
637.264	10.02
637.455	9.97
637.646	10
637.837	9.87
638.028	9.72
638.219	9.78
638.41	9.76
638.601	9.69
638.792	9.73
638.983	9.85
639.174	9.77
639.365	9.74
639.556	9.75
639.747	9.77
639.938	9.76
640.129	9.75
640.32	9.81
640.511	9.81
640.701	9.81
640.892	9.74
641.083	9.73
641.274	9.68
641.465	9.62
641.655	9.65
641.846	9.6
642.037	9.49
642.228	9.47
642.418	9.45
642.609	9.4
642.8	9.41
642.99	9.44
643.181	9.4
643.372	9.42
643.562	9.35
643.753	9.36
643.943	9.38
644.134	9.39
644.324	9.33
644.515	9.36
644.705	9.28
644.896	9.16
645.086	9.13
645.277	9.09
645.467	9.06
645.658	8.99
645.848	9.04
646.038	9.04
646.229	9.03
646.419	9.01
646.61	9.11
646.8	9.18
646.99	9.21
647.18	9.18
647.371	9.13
647.561	9.03
647.751	8.93
647.941	8.83
648.132	8.84
648.322	8.9
648.512	8.98
648.702	9.05
648.892	9.06
649.082	9.08
649.272	8.96
649.462	8.92
649.653	8.83
649.843	8.84
650.033	8.76
650.223	8.81
650.413	8.66
650.603	8.68
650.793	8.6
650.983	8.57
651.172	8.62
651.362	8.71
651.552	8.61
651.742	8.62
651.932	8.66
652.122	8.64
652.312	8.61
652.502	8.58
652.691	8.59
652.881	8.58
653.071	8.5
653.261	8.47
653.45	8.46
653.64	8.4
653.83	8.4
654.019	8.29
654.209	8.32
654.399	8.32
654.588	8.18
654.778	8.03
654.968	8.05
655.157	7.93
655.347	7.89
655.536	7.94
655.726	7.87
655.915	7.85
656.105	7.79
656.294	7.75
656.484	7.66
656.673	7.66
656.863	7.55
657.052	7.47
657.241	7.34
657.431	7.29
657.62	7.11
657.809	6.94
657.999	6.89
658.188	6.84
658.377	6.8
658.567	6.82
658.756	6.8
658.945	6.77
659.134	6.7
659.324	6.68
659.513	6.62
659.702	6.59
659.891	6.46
660.08	6.32
660.269	6.2
660.458	6.06
660.648	6.12
660.837	6.1
661.026	6.22
661.215	6.11
661.404	6.13
661.593	5.93
661.782	5.82
661.971	5.67
662.16	5.7
662.349	5.71
662.538	5.67
662.726	5.59
662.915	5.52
663.104	5.48
663.293	5.43
663.482	5.4
663.671	5.43
663.86	5.35
664.048	5.27
664.237	5.16
664.426	5.12
664.615	5.03
664.803	5.04
664.992	4.98
665.181	5.02
665.369	4.98
665.558	5.04
665.747	5.08
665.935	5.12
666.124	5.16
666.312	5.2
666.501	5.21
666.69	5.15
666.878	5.1
667.067	4.98
667.255	5
667.444	4.98
667.632	5.06
667.82	5.05
668.009	5.09
668.197	5.06
668.386	5.16
668.574	5.1
668.762	5.09
668.951	5.19
669.139	5.31
669.327	5.2
669.516	5.25
669.704	5.25
669.892	5.18
670.08	5.09
670.269	5.09
670.457	5.07
670.645	5.06
670.833	5.08
671.021	5.14
671.21	5.15
671.398	5.26
671.586	5.35
671.774	5.41
671.962	5.36
672.15	5.49
672.338	5.38
672.526	5.53
672.714	5.53
672.902	5.58
673.09	5.67
673.278	5.73
673.466	5.71
673.654	5.89
673.842	6.02
674.03	6
674.218	6.16
674.405	6.24
674.593	6.15
674.781	6.18
674.969	6.21
675.157	6.16
675.344	6.24
675.532	6.39
675.72	6.49
675.908	6.59
676.095	6.65
676.283	6.72
676.471	6.72
676.658	6.78
676.846	6.76
677.033	6.99
677.221	7.11
677.409	7.19
677.596	7.23
677.784	7.42
677.971	7.31
678.159	7.38
678.346	7.28
678.534	7.25
678.721	7.35
678.909	7.46
679.096	7.4
679.283	7.61
679.471	7.81
679.658	7.78
679.846	7.86
680.033	8
680.22	8.12
680.408	8.12
680.595	8.17
680.782	8.1
680.969	8.08
681.157	8.13
681.344	8.12
681.531	8.21
681.718	8.32
681.905	8.43
682.093	8.45
682.28	8.5
682.467	8.75
682.654	8.79
682.841	8.86
683.028	8.81
683.215	8.89
683.402	8.76
683.589	9
683.776	9.16
683.963	9.27
684.15	9.4
684.337	9.57
684.524	9.79
684.711	9.91
684.898	10.08
685.085	10.38
685.271	10.61
685.458	10.64
685.645	10.76
685.832	10.95
686.019	11.1
686.205	11.24
686.392	11.41
686.579	11.54
686.766	11.74
686.952	11.83
687.139	12.02
687.326	12.2
687.512	12.36
687.699	12.58
687.886	12.76
688.072	12.99
688.259	13.13
688.445	13.34
688.632	13.59
688.818	13.84
689.005	14.04
689.191	14.5
689.378	14.69
689.564	14.99
689.751	15.32
689.937	15.76
690.124	15.94
690.31	16.48
690.496	16.88
690.683	17.14
690.869	17.4
691.055	17.83
691.242	18.18
691.428	18.65
691.614	19.31
691.8	19.59
691.987	19.97
692.173	20.46
692.359	20.79
692.545	21.16
692.731	21.79
692.918	22.32
693.104	22.69
693.29	23.42
693.476	23.83
693.662	24.56
693.848	25.17
694.034	25.73
694.22	26.1
694.406	26.59
694.592	26.74
694.778	27.15
694.964	27.75
695.15	28.27
695.336	28.86
695.522	29.71
695.708	30.49
695.894	31.1
696.08	31.5
696.265	32.11
696.451	32.53
696.637	32.89
696.823	33.41
697.009	34.06
697.194	34.64
697.38	35.46
697.566	36.11
697.751	36.93
697.937	37.63
698.123	38.31
698.308	38.44
698.494	39.05
698.68	39.13
698.865	39.56
699.051	40.01
699.236	40.84
699.422	41.25
699.607	41.99
699.793	42.55
699.978	42.94
700.164	43.31
700.349	44.03
700.535	44.52
700.72	45.11
700.906	45.89
701.091	46.48
701.276	46.84
701.462	47.49
701.647	48.27
701.832	48.8
702.018	49.49
702.203	49.83
702.388	50.44
702.573	50.75
702.759	51.17
702.944	51.62
703.129	52.3
703.314	52.97
703.499	53.33
703.684	54
703.87	54.05
704.055	54.6
704.24	54.38
704.425	55.12
704.61	55.54
704.795	56.49
704.98	57.12
705.165	58.05
705.35	58.71
705.535	59.21
705.72	59.69
705.905	60.24
706.09	60.61
706.275	60.77
706.459	61.47
706.644	61.49
706.829	61.86
707.014	62.53
707.199	62.73
707.384	62.66
707.568	63.18
707.753	63.36
707.938	63.45
708.123	63.76
708.307	64.17
708.492	65.21
708.677	65.37
708.861	65.91
709.046	66.43
709.231	66.76
709.415	66.54
709.6	66.91
709.784	67.43
709.969	67.75
710.153	67.98
710.338	68.06
710.522	68.77
710.707	68.71
710.891	69.1
711.076	69.51
711.26	70.09
711.445	69.89
711.629	70.31
711.813	70.6
711.998	70.94
712.182	71.11
712.366	71.85
712.551	71.77
712.735	71.5
712.919	71.54
713.103	71.05
713.288	70.73
713.472	70.84
713.656	71.26
713.84	71.41
714.024	72.11
714.208	72.26
714.393	73.03
714.577	73.56
714.761	74.06
714.945	74.18
715.129	74.67
715.313	74.35
715.497	74.73
715.681	74.98
715.865	75.47
716.049	75.67
716.233	76.49
716.417	76.51
716.601	76.2
716.785	76.04
716.968	76.07
717.152	76.05
717.336	76.18
717.52	76.86
717.704	77.38
717.888	78.25
718.071	78.04
718.255	78.15
718.439	78.23
718.622	78.26
718.806	77.99
718.99	78.62
719.174	78.68
719.357	78.88
719.541	79.17
719.724	79.35
719.908	79.34
720.092	79.29
720.275	79.57
720.459	79.61
720.642	79.96
720.826	80.22
721.009	80.72
721.193	80.89
721.376	81.39
721.559	81.41
721.743	81.35
721.926	81.33
722.11	81.29
722.293	81.15
722.476	81.08
722.66	81.39
722.843	81.56
723.026	81.93
723.21	82.41
723.393	82.21
723.576	82.37
723.759	82.29
723.942	82.4
724.126	82.36
724.309	83.17
724.492	82.97
724.675	83.34
724.858	83.36
725.041	83.78
725.224	84.03
725.407	84.11
725.59	84.38
725.774	85
725.957	85.19
726.14	85.15
726.322	85.61
726.505	85.51
726.688	85.61
726.871	85.2
727.054	85.95
727.237	85.95
727.42	86.63
727.603	86.45
727.786	86.82
727.968	86.4
728.151	86.18
728.334	86.16
728.517	85.88
728.699	86.32
728.882	86.21
729.065	86.47
729.248	85.72
729.43	86.28
729.613	86.36
729.796	86.37
729.978	87.48
730.161	88.04
730.343	87.89
730.526	88.32
730.708	88.87
730.891	88.91
731.073	89.7
731.256	90.55
731.438	89.71
731.621	89.99
731.803	89
731.986	89.15
732.168	88.91
732.35	89.17
732.533	88.55
732.715	89.33
732.898	88.99
733.08	88.91
733.262	89.36
733.444	89.4
733.627	89.55
733.809	90.07
733.991	90.28
734.173	90.44
734.355	91.5
734.538	90.95
734.72	91.33
734.902	91.95
735.084	91.82
735.266	90.85
735.448	92.06
735.63	91.7
735.812	91.39
735.994	91.35
736.176	91.77
736.358	92.31
736.54	92.27
736.722	92.69
736.904	93.63
737.086	93.22
737.268	92.59
737.45	92.61
737.632	92.47
737.814	92.01
737.995	93.38
738.177	92.98
738.359	93.22
738.541	93.07
738.723	93.26
738.904	93.29
739.086	93.35
739.268	94.08
739.449	94.74
739.631	94.31
739.813	94.77
739.994	96.2
740.176	96.09
740.358	95.27
740.539	96.76
740.721	95.95
740.902	95.59
741.084	95.27
741.265	95.24
741.447	94.4
741.628	93.99
741.81	93.38
741.991	92.96
742.172	93.59
742.354	94.73
742.535	95.92
742.717	95.95
742.898	96.42
743.079	96.31
743.261	95.8
743.442	95.34
743.623	95.34
743.804	94.76
743.986	94.98
744.167	94.71
744.348	94.01
744.529	93.44
744.71	94.57
744.891	93.99
745.073	93.03
745.254	94.28
745.435	94.77
745.616	94.09
745.797	94.27
745.978	94.92
746.159	95.89
746.34	96.27
746.521	96.66
746.702	96.34
746.883	96.32
747.064	94.01
747.245	94.53
747.426	93.88
747.606	93.48
747.787	93.71
747.968	93.86
748.149	92.77
748.33	92.77
748.51	94.94
748.691	94.13
748.872	95.11
749.053	96.1
749.233	96.14
749.414	93.33
749.595	93.55
749.775	94.03
749.956	93.33
750.137	94.38
750.317	95.63
750.498	96.86
750.678	96.26
750.859	96.7
751.04	94.96
751.22	95.2
751.4	94.1
751.581	94.08
751.761	92.94
751.942	93.78
752.122	93.65
752.303	92.18
752.483	92.06
752.663	91.62
752.844	91.51
753.024	91.8
753.204	92.8
753.385	92.43
753.565	94.55
753.745	96.23
753.925	95.47
754.106	96.53
754.286	96.18
754.466	95.05
754.646	93.66
754.826	92.71
755.006	92.08
755.187	92.68
755.367	92.37
755.547	91.71
755.727	91.84
755.907	91.72
756.087	91.14
756.267	91.58
756.447	92.94
756.627	95.23
756.807	95.79
756.987	94.6
757.167	94.98
757.346	94.84
757.526	93.19
757.706	92.8
757.886	93.14
758.066	92.81
758.246	92.81
758.425	92.98
758.605	92.95
758.785	93.93
758.965	95.27
759.144	96.16
759.324	96.8
759.504	97.81
759.683	97.99
759.863	96.9
760.043	94.95
760.222	93.24
760.402	92.26
760.581	92.75
760.761	90.57
760.94	90.3
761.12	92.8
761.299	92.56
761.479	91.94
761.658	92.66
761.838	92.33
762.017	91.09
762.197	89.35
762.376	90.04
762.555	89.44
762.735	91.41
762.914	89.39
763.093	90.12
763.273	88.67
763.452	89.66
763.631	87.43
763.81	89.93
763.99	92.4
764.169	94.98
764.348	96.3
764.527	95.91
764.706	93.77
764.885	91.66
765.064	90.95
765.243	90.69
765.423	91.28
765.602	91.19
765.781	93.29
765.96	91.02
766.139	89.4
766.318	89.56
766.497	91.91
766.676	90.59
766.854	92.41
767.033	93.41
767.212	94.72
767.391	93.52
767.57	94.8
767.749	92.97
767.928	92.7
768.106	92.98
768.285	92.79
768.464	90.59
768.643	93.02
768.821	92.48
769	92.22
769.179	92.46
769.357	93.65
769.536	91.24
769.715	90.57
769.893	91.19
770.072	91.13
770.25	91.22
770.429	91.9
770.607	91.54
770.786	92.12
770.964	90.74
771.143	90.17
771.321	90.1
771.5	92.85
771.678	90.97
771.857	91.7
772.035	93.59
772.213	94.35
772.392	91.93
772.57	91.41
772.748	91.02
772.927	90
773.105	88.19
773.283	88.18
773.461	88.32
773.64	88.63
773.818	89.49
773.996	89.18
774.174	89.51
774.352	88.38
774.531	88.58
774.709	86.34
774.887	88.27
775.065	88.37
775.243	89.86
775.421	88.69
775.599	87.22
775.777	88.11
775.955	86.82
776.133	87.56
776.311	88.33
776.489	90.27
776.667	89.5
776.844	90.89
777.022	89.93
777.2	90.63
777.378	89
777.556	85.71
777.734	84.08
777.911	83.64
778.089	85.42
778.267	85.06
778.445	86.18
778.622	86.54
778.8	86.71
778.978	83.38
779.155	81.78
779.333	80.69
779.511	79.83
779.688	78.59
779.866	78.21
780.043	84
780.221	85.53
780.398	87.36
780.576	88.88
780.753	90.41
780.931	86.38
781.108	86.43
781.286	85.27
781.463	83.66
781.64	85.63
781.818	87.12
781.995	85.55
782.172	85.18
782.35	86.22
782.527	84.15
782.704	84.81
782.882	86.21
783.059	87.46
783.236	85.94
783.413	85.37
783.59	80.94
783.768	80.01
783.945	82.27
784.122	84.24
784.299	85.27
784.476	87.6
784.653	88.38
784.83	86.53
785.007	86.92
785.184	87.32
785.361	87.28
785.538	84.02
785.715	83.32
785.892	82.16
786.069	82.66
786.246	83.84
786.423	90.08
786.6	90.92
786.776	89.84
786.953	88.2
787.13	89.52
787.307	86.04
787.484	84.48
787.66	86.93
787.837	86.11
788.014	87.09
788.191	88.11
788.367	90.7
788.544	90.86
788.721	89.63
788.897	86.44
789.074	84.69
789.25	79.97
789.427	77.38
789.603	75.07
789.78	73.76
789.956	74.4
790.133	78
790.309	81.13
790.486	82.01
790.662	84.99
790.839	84.85
791.015	82.14
791.192	78.33
791.368	82.8
791.544	74.97
791.721	74.67
791.897	77.22
792.073	80.08
792.249	76.67
792.426	82.45
792.602	81.85
792.778	82.8
792.954	80.76
793.13	81.28
793.307	83
793.483	83.91
793.659	81.99
793.835	82.43
794.011	84.36
794.187	82.59
794.363	80.46
794.539	77.41
794.715	76.85
794.891	79.29
795.067	74.28
795.243	75.65
795.419	78.91
795.595	82.41
795.771	78.97
795.947	85.21
796.122	87.2
796.298	83.51
796.474	80.44
796.65	79.56
796.826	77.32
797.001	74.37
797.177	75.15
797.353	73.14
797.529	74.37
797.704	75.55
797.88	74.58
798.056	77.61
798.231	81.46
798.407	77.84
798.582	77.9
798.758	79.03
798.934	82.26
799.109	77.57
799.285	80.14
799.46	84.64
799.636	84.19
799.811	76.66
799.986	79.33
800.162	78.16
800.337	74.94
800.513	77.26
800.688	78.82
800.863	73.5
801.039	70.67
801.214	75.32
801.389	75.94
801.565	72.82
801.74	82.83
801.915	91.18
802.09	86.19
802.265	87.41
802.441	91.67
802.616	82.06
802.791	77.42
802.966	79.59
803.141	75.05
803.316	71.24
803.491	78.33
803.666	83.18
803.841	82.01
804.016	81.66
804.191	87.36
804.366	91.16
804.541	88.41
804.716	83.1
804.891	84.81
805.066	88.93
805.241	80.19
805.416	72.31
805.591	69.17
805.765	69.72
805.94	62.42
806.115	62.58
806.29	64.35
806.464	70.22
806.639	71.38
806.814	71.84
806.989	68.35
807.163	68.04
807.338	68.53
807.512	65.65
807.687	70.07
807.862	69.69
808.036	72.53
808.211	74.53
808.385	77.17
808.56	75.58
808.734	73.31
808.909	72.37
809.083	65.33
809.258	62.76
809.432	68.14
809.606	73.1
809.781	67.85
809.955	70.4
810.13	69.82
810.304	64.05
810.478	60.86
810.652	64.59
810.827	66.79
811.001	67.4
811.175	68.05
811.349	74.2
811.524	72.28
811.698	65.31
811.872	66.48
812.046	68.98
812.22	60.86
812.394	64.01
812.568	71.85
812.742	72.05
812.916	67.68
813.09	72.93
813.264	76.25
813.438	72.57
813.612	76.1
813.786	70.99
813.96	76.63
814.134	70.81
814.308	70.56
814.482	67.82
814.656	77.06
814.83	80.57
815.003	89.9
815.177	90.82
815.351	94.04
815.525	97.76
815.698	92.75
815.872	79.17
816.046	81.5
816.219	70.1
816.393	69.24
816.567	76.74
816.74	83.62
816.914	88.48
817.088	87.01
817.261	82.53
817.435	81.79
817.608	87.42
817.782	78.11
817.955	95.28
818.129	89.79
818.302	81.14
818.475	69.33
818.649	81.59
818.822	75.86
818.996	86.4
819.169	87.41
819.342	87.62
819.516	77.19
819.689	77.75
819.862	74.97
820.035	70.44
820.209	66.03
820.382	73.42
820.555	76.13
820.728	70.68
820.901	67.29
821.075	72.57
821.248	82.82
821.421	79.5
821.594	84.23
821.767	93.45
821.94	89.67
822.113	70.39
822.286	67.62
822.459	64.61
822.632	62.47
822.805	65.93
822.978	73.43
823.151	73.71
823.324	80.78
823.496	78.37
823.669	66.31
823.842	64.75
824.015	66.61
824.188	58.91
824.361	60.49
824.533	79.24
824.706	74.21
824.879	68.78
825.051	68.83
825.224	61.16
825.397	59.48
825.569	56.88
825.742	57.91
825.915	46.58
826.087	60.21
826.26	47.88
826.432	57.73
826.605	52.65
826.777	58.07
826.95	57.11
827.122	51.53
827.295	39.55
827.467	42.35
827.64	36.9
827.812	38.26
827.984	52.87
828.157	64.92
828.329	70.39
828.501	90.42
828.674	82.21
828.846	86.61
829.018	84.1
829.19	82.68
829.363	66.81
829.535	65.23
829.707	48.85
829.879	48.77
830.051	30.68
830.223	42.89
830.395	32.26
830.568	52.76
830.74	55.53
830.912	68.34
831.084	68.13
831.256	63.81
831.428	61.48
831.6	65.14
831.772	67.49
831.943	64.39
832.115	79.06
832.287	70.12
832.459	55.97
832.631	64.43
832.803	66.21
832.975	73.44
833.146	80.34
833.318	77.41
833.49	81.47
833.662	92.25
833.833	70.51
834.005	67.32
834.177	95.56
834.348	85.56
834.52	66.59
834.692	66.47
834.863	72.67
835.035	50.86
835.206	61.16
835.378	55.05
835.549	66.69
835.721	64.77
835.892	76.05
836.064	75.42
836.235	101.71
836.407	91.77
836.578	87.02
836.749	97.59
836.921	93.11
837.092	89.04
837.264	90.47
837.435	94.76
837.606	79.92
837.777	77.41
837.949	62.17
838.12	51.23
838.291	60.56
838.462	75.17
838.633	84.19
838.805	106.72
838.976	127.61
839.147	124.72
839.318	103.77
839.489	100.34
839.66	101.85
839.831	106.59
840.002	80.82
840.173	77.31
840.344	76.96
840.515	92.07
840.686	85.71
840.857	98.84
841.028	112.49
841.199	112.01
841.369	83.27
841.54	99.11
841.711	101.88
841.882	68.5
842.053	64.49
842.223	78.12
842.394	79.19
842.565	71.75
842.736	93.1
842.906	173.72
843.077	159.58
843.248	144.9
843.418	153.88
843.589	101.52
843.759	73.65
843.93	73.71
844.101	89.56
844.271	76.35
844.442	89.92
844.612	100.72
844.783	89.83
844.953	56.04
845.123	52.99
845.294	50.9
845.464	55.75
845.635	75.88
845.805	120.35
845.975	120.45
846.146	134.01
846.316	106.94
846.486	102.59
846.656	61.77
846.827	57.84
846.997	68.74
847.167	69.1
847.337	58.4
847.507	51.63
847.677	61.05
847.848	59.61
848.018	88.14
848.188	109.11
848.358	131.74
848.528	144.55
848.698	149.52
848.868	124.4
849.038	83.67
849.208	36.08
849.378	58.98
849.548	24.37
849.718	39.75
849.887	53.77
850.057	69.97
850.227	67.78
850.397	88.78
850.567	82.49
850.737	73.93
850.906	46.29
851.076	30.31
851.246	39.47
851.415	40.53
851.585	45.9
851.755	53.3
851.924	68.97
852.094	62.76
852.264	45.11
852.433	39.61
852.603	43.25
852.772	32.56
852.942	38.55
853.111	54.36
853.281	64.22
853.45	55.97
853.62	34.54
853.789	22.33
853.959	32.15
854.128	56.7
854.297	50.4
854.467	103.83
854.636	63.04
854.805	42
854.975	18.8
855.144	34.17
855.313	29.85
855.482	40.41
855.652	48.5
855.821	13.89
855.99	8.89
856.159	15.21
856.328	10.14
856.497	14.71
856.667	34.06
856.836	35.48
857.005	27.09
857.174	41.17
857.343	30.52
857.512	54.15
857.681	43.17
857.85	64.86
858.019	-14.74
858.188	-32.7
858.356	-22
858.525	23.25
858.694	40.36
858.863	89.5
859.032	91.13
859.201	85.04
859.369	97.66
859.538	76.41
859.707	44.89
859.876	38.51
860.044	45.74
860.213	32.69
860.382	29.85
860.55	33.82
860.719	22.8
860.888	60.43
861.056	72.19
861.225	89.33
861.393	126.04
861.562	137.21
861.73	125.07
861.899	97.25
862.067	78.49
862.236	50.85
862.404	42.57
862.572	44.14
862.741	40.89
862.909	34.72
863.078	32.18
863.246	32.27
863.414	48.1
863.582	76.38
863.751	76.64
863.919	81.7
864.087	104.98
864.255	85.11
864.424	61.31
864.592	66.63
864.76	63.65
864.928	60.04
865.096	25.55
865.264	42.55
865.432	34.11
865.6	33.99
865.768	26.96
865.936	22.62
866.104	38.98
866.272	43.2
866.44	69.48
866.608	66.81
866.776	134.3
866.944	102.26
867.112	99.15
867.28	75.04
867.448	64.07
867.615	39.21
867.783	24.03
867.951	31.37
868.119	34.65
868.286	63.79
868.454	66.21
868.622	62.81
868.789	77.72
868.957	68.62
869.125	43.09
869.292	39.48
869.46	47.58
869.627	42.26
869.795	57.68
869.963	76.42
870.13	86
870.298	69.32
870.465	78.98
870.632	71.86
870.8	45.29
870.967	72.92
871.135	76.25
871.302	28.94
871.469	32.59
871.637	45.97
871.804	19.19
871.971	31.96
872.139	75.85
872.306	95.34
872.473	108.51
872.64	114.55
872.807	110.04
872.975	70.26
873.142	63.38
873.309	42.05
873.476	58.81
873.643	31.11
873.81	58.24
873.977	64.87
874.144	63.7
874.311	55.48
874.478	68.69
874.645	47.24
874.812	40.84
874.979	43.96
875.146	44.54
875.313	50.18
875.48	52.04
875.647	57.46
875.813	100.47
875.98	77.07
876.147	41.48
876.314	79.61
876.481	59.18
876.647	27.3
876.814	66.26
876.981	87.5
877.147	64.11
877.314	56.92
877.481	56.31
877.647	32.56
877.814	17.42
877.98	28.81
878.147	26.47
878.314	-0.3
878.48	32.73
878.647	53.8
878.813	11.1
878.979	31.54
879.146	32.87
879.312	-7.28
879.479	-33.77
879.645	44.44
879.811	15.99
879.978	26.52
880.144	42.14
880.31	64.2
880.477	36.68
880.643	35.8
880.809	41.52
880.975	65.53
881.142	5.4
881.308	19.77
881.474	85.56
881.64	115.84
881.806	-38.64
881.972	72.21
882.138	111.14
882.304	78.4
882.47	30.48
882.636	36.34
882.802	28.49
882.968	15.38
883.134	6.11
883.3	32.99
883.466	39.86
883.632	79.02
883.798	81.92
883.964	113.56
884.129	238.24
884.295	106.48
884.461	30.27
884.627	17.68
884.793	49.13
884.958	31.21
885.124	47.12
885.29	30.29
885.455	37.83
885.621	21.78
885.787	14.97
885.952	2.87
886.118	47.57
886.283	64.03
886.449	72.49
886.614	58.77
886.78	82.83
886.945	70.78
887.111	75.54
887.276	73.13
887.442	106.25
887.607	99.15
887.773	84.25
887.938	38.05
888.103	20.04
888.269	33.79
888.434	36.31
888.599	43.89
888.764	41.53
888.93	69.35
889.095	29.73
889.26	36.76
889.425	42.79
889.59	51.04
889.756	17.62
889.921	17.49
890.086	-2
890.251	-3.77
890.416	-32.18
890.581	-80.54
890.746	-6.37
890.911	40.27
891.076	42.51
891.241	66.94
891.406	95.93
891.571	62.76
891.736	21.33
891.901	21.94
892.065	25.29
892.23	36.92
892.395	37.5
892.56	-16.38
892.725	-6.74
892.889	9.44
893.054	-5.82
893.219	11.99
893.384	44.62
893.548	49.23
893.713	39.58
893.878	56.29
