Data from Ofav_PP_Phys_362_Reflection_1.txt Node
Date: Tue Jul 27 19:09:24 EDT 2021
User: USUARIO
Spectrometer: FLMT01687
Trigger mode: 0
Integration Time (sec): 8.500000E-1
Scans to average: 2
Electric dark correction enabled: true
Nonlinearity correction enabled: false
Boxcar width: 2
XAxis mode: Wavelengths
Number of Pixels in Spectrum: 3648
>>>>>Begin Spectral Data<<<<<
179.494	-1792.59
179.716	-617.47
179.937	-380.34
180.158	-341.54
180.38	-359.17
180.601	-307.95
180.823	40.62
181.044	64.18
181.265	-4.42
181.486	-147.6
181.708	-37.82
181.929	69.9
182.15	49.22
182.372	-108.46
182.593	-5.4
182.814	69.53
183.035	82.02
183.257	53.97
183.478	55.07
183.699	37.51
183.92	47.15
184.141	44.63
184.363	75.76
184.584	88.3
184.805	113.04
185.026	90.84
185.247	102.78
185.468	64.73
185.689	37.87
185.91	18.93
186.132	10.92
186.353	13.71
186.574	1.74
186.795	12.68
187.016	23.75
187.237	8.27
187.458	17.63
187.679	19.81
187.9	20.31
188.121	18.64
188.342	53.2
188.563	49.85
188.784	86.5
189.005	89.65
189.226	84.5
189.447	68.81
189.667	70.73
189.888	85.98
190.109	84.61
190.33	85.63
190.551	64.97
190.772	54.89
190.993	33.26
191.214	27.78
191.434	35.83
191.655	55.93
191.876	52.87
192.097	41.37
192.318	53.86
192.538	53.89
192.759	42.51
192.98	56.5
193.201	66.26
193.421	68.25
193.642	38.62
193.863	32.17
194.083	16.93
194.304	5.49
194.525	-14.5
194.745	-10.92
194.966	-41.35
195.187	-46.81
195.407	-8.36
195.628	19.74
195.848	13.45
196.069	46.6
196.29	81.82
196.51	66.08
196.731	51.16
196.951	56.24
197.172	45.91
197.392	50.99
197.613	71.57
197.833	63.41
198.054	69.43
198.274	59.89
198.495	57.03
198.715	36.43
198.936	31.62
199.156	31.1
199.377	34.79
199.597	13.27
199.817	39.44
200.038	19.08
200.258	20.01
200.479	18.33
200.699	15.17
200.919	-5.59
201.14	7.83
201.36	3.8
201.58	17.2
201.801	13.16
202.021	27.08
202.241	56.95
202.461	53.93
202.682	23.34
202.902	21.12
203.122	10.4
203.342	-7.79
203.563	24.19
203.783	41.94
204.003	41.58
204.223	48.34
204.443	61.11
204.663	66.99
204.884	62.39
205.104	45.5
205.324	62.17
205.544	42.68
205.764	28.94
205.984	23.47
206.204	37.48
206.424	17.77
206.644	28.96
206.864	57.33
207.084	38.79
207.304	44.5
207.525	50.58
207.745	62.01
207.964	57.3
208.184	69.13
208.404	81.13
208.624	66.82
208.844	68.43
209.064	55.33
209.284	47.29
209.504	36.92
209.724	41.43
209.944	6.63
210.164	54.64
210.384	86.04
210.604	64.15
210.823	48.59
211.043	62.5
211.263	51.64
211.483	71.14
211.703	67.34
211.922	59.39
212.142	80.02
212.362	53.43
212.582	51.54
212.801	65.99
213.021	68.44
213.241	61.29
213.461	57.58
213.68	50.59
213.9	39.61
214.12	58.58
214.339	61.46
214.559	65.76
214.779	53.83
214.998	38.61
215.218	16.89
215.438	15.32
215.657	11.44
215.877	10.33
216.096	17.37
216.316	36.11
216.535	22.15
216.755	37.73
216.974	58.15
217.194	81.65
217.413	68.82
217.633	72.5
217.852	51.44
218.072	36.12
218.291	16.37
218.511	25.25
218.73	34.77
218.95	56.65
219.169	61.58
219.389	59.12
219.608	70.38
219.827	83.89
220.047	71.5
220.266	64.08
220.485	60.94
220.705	62.36
220.924	67.68
221.143	60.98
221.363	55.34
221.582	50.62
221.801	45.67
222.021	35.42
222.24	47.13
222.459	50.61
222.678	56.71
222.897	48.73
223.117	56.84
223.336	33.05
223.555	39.81
223.774	38.52
223.993	40.24
224.213	20.36
224.432	24.46
224.651	33.95
224.87	26.63
225.089	21.97
225.308	19.88
225.527	31.13
225.746	5.61
225.965	27.08
226.184	37.73
226.404	48.18
226.623	45.7
226.842	38.79
227.061	22.77
227.28	19.22
227.499	25.57
227.718	16.25
227.936	29.02
228.155	36.96
228.374	42.84
228.593	50.67
228.812	60.46
229.031	68.71
229.25	70.38
229.469	67.36
229.688	25.17
229.907	-13.98
230.125	-12.03
230.344	8.99
230.563	32.6
230.782	68.5
231.001	70.93
231.22	72.59
231.438	60.86
231.657	32.63
231.876	10.6
232.095	23
232.313	29.34
232.532	36.87
232.751	43.28
232.969	48.67
233.188	38.73
233.407	16.69
233.625	1.83
233.844	17.17
234.063	19.38
234.281	36.2
234.5	33.13
234.719	56.52
234.937	31.01
235.156	36.26
235.374	19.29
235.593	21.35
235.811	10.8
236.03	29.15
236.249	14.46
236.467	15.91
236.686	22.49
236.904	18.18
237.123	21.36
237.341	18.26
237.559	31.13
237.778	36.89
237.996	45.47
238.215	40.39
238.433	43.44
238.652	36.89
238.87	33.96
239.088	23.73
239.307	38.2
239.525	26.17
239.743	18.7
239.962	17.61
240.18	29.87
240.398	6.05
240.617	7.16
240.835	23.52
241.053	32.93
241.271	17.88
241.49	31.2
241.708	44.16
241.926	39.68
242.144	19.75
242.363	37.4
242.581	53
242.799	46.62
243.017	33.16
243.235	49.71
243.453	31.88
243.672	25.98
243.89	7.9
244.108	1.83
244.326	12.93
244.544	-0.53
244.762	1.46
244.98	27.47
245.198	52.52
245.416	50.86
245.634	76.21
245.852	105.2
246.07	91.11
246.288	62.46
246.506	63.24
246.724	53.39
246.942	41.59
247.16	43.07
247.378	40.86
247.596	44.64
247.814	47.7
248.032	35.11
248.25	23.06
248.468	30.14
248.685	22.94
248.903	17.55
249.121	35.13
249.339	43.65
249.557	43.09
249.775	16.09
249.992	5.4
250.21	1.98
250.428	-4.5
250.646	-20.09
250.863	-1.39
251.081	19.79
251.299	36.16
251.517	38.47
251.734	55.9
251.952	59.66
252.17	54.33
252.387	19.07
252.605	39.66
252.823	45.56
253.04	56.21
253.258	69.35
253.475	70.23
253.693	73.35
253.911	81.99
254.128	66.83
254.346	45.47
254.563	52.95
254.781	46.41
254.998	35.98
255.216	26.89
255.433	33.32
255.651	41.27
255.868	31.5
256.086	27.14
256.303	31.85
256.521	46
256.738	43.13
256.956	39.02
257.173	44.11
257.39	41.94
257.608	48.63
257.825	48.96
258.043	47.32
258.26	50.01
258.477	52.85
258.695	43.46
258.912	37.92
259.129	44.62
259.346	43.12
259.564	56.29
259.781	54.61
259.998	42.56
260.216	57.41
260.433	52.96
260.65	54.73
260.867	45.61
261.084	64.37
261.302	39.62
261.519	43.47
261.736	25.52
261.953	33.98
262.17	19.57
262.387	19.98
262.604	29.25
262.822	49.33
263.039	47.45
263.256	67.29
263.473	86.64
263.69	77.6
263.907	54.04
264.124	84.41
264.341	62.31
264.558	63.53
264.775	57.87
264.992	67.03
265.209	46.94
265.426	50.85
265.643	38.16
265.86	38.14
266.077	35.78
266.294	46.68
266.51	56.54
266.727	64.25
266.944	66.46
267.161	48.99
267.378	27.78
267.595	26.49
267.812	23.25
268.028	42.53
268.245	56.52
268.462	64.44
268.679	36.1
268.896	37.1
269.112	9.43
269.329	1.72
269.546	16.52
269.763	8.24
269.979	7.81
270.196	24.11
270.413	51
270.629	46.13
270.846	79.26
271.063	60.86
271.279	59.87
271.496	41.68
271.712	35.07
271.929	11.55
272.146	11.3
272.362	16.24
272.579	10.01
272.795	26.8
273.012	26.88
273.228	34.98
273.445	36.97
273.661	43.96
273.878	35.25
274.094	43.81
274.311	47.4
274.527	42.88
274.744	36.49
274.96	46.01
275.177	26.54
275.393	27.07
275.609	38.07
275.826	39.77
276.042	29.56
276.259	47.53
276.475	28.06
276.691	19.2
276.908	17.15
277.124	19.14
277.34	28.82
277.557	39.24
277.773	55.23
277.989	67.48
278.205	62.29
278.422	47.52
278.638	57.66
278.854	52.23
279.07	50.23
279.286	53.87
279.503	64.35
279.719	60.23
279.935	60.94
280.151	50.26
280.367	54.33
280.583	57.85
280.799	51.24
281.016	46.3
281.232	57.02
281.448	56.3
281.664	44.06
281.88	38.16
282.096	52.11
282.312	52.93
282.528	47.74
282.744	57.48
282.96	64.24
283.176	72.23
283.392	73.01
283.608	81.69
283.824	70.53
284.04	42.47
284.256	36.39
284.471	19.32
284.687	6.94
284.903	-7.78
285.119	14.96
285.335	-3.16
285.551	-1.53
285.767	21.82
285.982	19.93
286.198	13.17
286.414	19.37
286.63	29.61
286.846	-6.57
287.061	0.88
287.277	12.1
287.493	18.54
287.709	21.39
287.924	49.7
288.14	62.04
288.356	57.11
288.571	64.25
288.787	56.54
289.003	47.36
289.218	44.38
289.434	36.8
289.65	27.58
289.865	23.27
290.081	19.19
290.296	16.75
290.512	20.56
290.727	32.43
290.943	44.81
291.159	61.97
291.374	60.19
291.59	58.94
291.805	45.01
292.021	47.11
292.236	49.37
292.451	45.62
292.667	48.08
292.882	40.59
293.098	30.12
293.313	37.73
293.529	51.81
293.744	36.79
293.959	37.82
294.175	53.05
294.39	30.41
294.605	25.07
294.821	32.86
295.036	46.41
295.251	34.17
295.467	62.26
295.682	44.47
295.897	48.76
296.112	51.42
296.328	40.22
296.543	50.35
296.758	56.31
296.973	51.35
297.188	49.28
297.404	51.04
297.619	44.67
297.834	44.68
298.049	33.85
298.264	31.69
298.479	36.4
298.694	35.98
298.909	37.24
299.125	42.22
299.34	36.06
299.555	44.95
299.77	41.65
299.985	35.15
300.2	37.18
300.415	40.6
300.63	12.87
300.845	24.4
301.06	23.36
301.275	18.61
301.49	13.45
301.704	23.44
301.919	28.99
302.134	42.37
302.349	39.62
302.564	41.66
302.779	37.29
302.994	28.21
303.209	36.86
303.423	33.22
303.638	19.62
303.853	12.52
304.068	24.42
304.283	11.28
304.497	21.15
304.712	43.65
304.927	52.62
305.142	72.16
305.356	73.55
305.571	87.92
305.786	74.03
306	63.1
306.215	29.17
306.43	41.89
306.644	35.2
306.859	40.22
307.074	53.93
307.288	55.74
307.503	46.21
307.717	38.79
307.932	33.23
308.147	41.82
308.361	41.37
308.576	47.25
308.79	50.67
309.005	28.11
309.219	9.42
309.434	14.69
309.648	17.38
309.863	15.04
310.077	31.09
310.292	29.71
310.506	23.59
310.72	18.24
310.935	26
311.149	33.02
311.364	44.89
311.578	61.63
311.792	47.6
312.007	46.04
312.221	44.59
312.435	46.49
312.649	37.04
312.864	-3.28
313.078	-32.81
313.292	-54.52
313.507	-42.84
313.721	-4.11
313.935	34.39
314.149	42.06
314.363	45.19
314.578	53.25
314.792	41.07
315.006	52.8
315.22	59.06
315.434	50.62
315.648	46.51
315.862	58.34
316.077	55.45
316.291	49.51
316.505	53.46
316.719	79.33
316.933	62.41
317.147	58.85
317.361	55.17
317.575	52.29
317.789	31.5
318.003	32.89
318.217	35.28
318.431	45.55
318.645	64.61
318.859	58.87
319.073	32.33
319.287	25.49
319.5	17.02
319.714	2.62
319.928	7.37
320.142	24.23
320.356	43.68
320.57	46.14
320.784	48.23
320.997	60.9
321.211	62.82
321.425	54.87
321.639	42.14
321.853	46.69
322.066	41.78
322.28	29.99
322.494	24.07
322.707	28.41
322.921	25.57
323.135	12.39
323.349	16.99
323.562	27.76
323.776	38.99
323.989	26.07
324.203	47.85
324.417	48.61
324.63	46.34
324.844	41.66
325.057	55.09
325.271	39.99
325.485	38.01
325.698	32
325.912	31.06
326.125	40.02
326.339	53.78
326.552	48.83
326.766	53.99
326.979	47.57
327.193	33.85
327.406	17.76
327.619	17.98
327.833	1.88
328.046	10.48
328.26	12.96
328.473	-13.64
328.686	-6.54
328.9	9.76
329.113	2
329.326	-8.76
329.54	43.53
329.753	40.84
329.966	31.99
330.179	39.75
330.393	68.79
330.606	46.17
330.819	51.13
331.032	47.05
331.246	62.81
331.459	47.66
331.672	62.17
331.885	59.47
332.098	73.75
332.311	65.22
332.525	56.83
332.738	34.44
332.951	47.85
333.164	38.03
333.377	21.23
333.59	27.06
333.803	39.41
334.016	16.11
334.229	4.68
334.442	24.12
334.655	28.09
334.868	23.23
335.081	43.9
335.294	67.41
335.507	69.39
335.72	80.6
335.933	73.81
336.146	69.14
336.359	49.18
336.572	54.53
336.785	24.7
336.997	36.93
337.21	34.3
337.423	28.17
337.636	8.44
337.849	25.41
338.062	27.12
338.274	34.73
338.487	53.85
338.7	53.62
338.913	56.37
339.125	68.42
339.338	57.42
339.551	27.43
339.763	28.75
339.976	23.59
340.189	12.88
340.402	14.9
340.614	23.81
340.827	25.13
341.039	26.57
341.252	11.46
341.465	-3.91
341.677	12.97
341.89	9.43
342.102	27.19
342.315	33.42
342.527	41.52
342.74	37.43
342.952	15.02
343.165	25.27
343.377	29.23
343.59	24.58
343.802	25.69
344.015	46.35
344.227	42.98
344.44	26.27
344.652	41.3
344.864	43.97
345.077	23.28
345.289	2.73
345.502	9.03
345.714	2.96
345.926	-17.03
346.139	-0.33
346.351	15.27
346.563	10.25
346.775	22.97
346.988	26.46
347.2	13.9
347.412	13.64
347.624	27.98
347.837	7.35
348.049	27.57
348.261	43.65
348.473	34.74
348.685	42.27
348.897	46.08
349.11	31.88
349.322	8.74
349.534	27.84
349.746	28.58
349.958	32.77
350.17	34.79
350.382	40.1
350.594	21.8
350.806	22.9
351.018	19.69
351.23	9.31
351.442	13.85
351.654	31.29
351.866	19.97
352.078	13.93
352.29	15.07
352.502	18.53
352.714	19.38
352.926	28.88
353.138	37.26
353.35	40.81
353.561	40.03
353.773	32.82
353.985	17.63
354.197	31.05
354.409	40.7
354.621	38.4
354.832	44.61
355.044	40.21
355.256	41.23
355.468	29.13
355.679	48.82
355.891	56.71
356.103	74.3
356.314	70.4
356.526	86.59
356.738	79.4
356.949	64.27
357.161	57.88
357.373	43.94
357.584	31.83
357.796	37.24
358.008	50.33
358.219	54.76
358.431	55.77
358.642	57.95
358.854	51.34
359.065	38.69
359.277	42.47
359.488	47.85
359.7	50.67
359.911	44.12
360.123	46.31
360.334	32.39
360.546	24.87
360.757	23.71
360.969	22.48
361.18	25.17
361.391	36.25
361.603	39.44
361.814	43.33
362.025	55.72
362.237	57.98
362.448	49.69
362.659	39.76
362.871	36.29
363.082	24.55
363.293	33.24
363.504	39.93
363.716	50.87
363.927	36.87
364.138	33.48
364.349	10.6
364.56	-0.96
364.772	4.09
364.983	13.72
365.194	5.61
365.405	12.18
365.616	19.21
365.827	16.66
366.038	25.2
366.25	35.68
366.461	36.21
366.672	22.36
366.883	29.35
367.094	21.2
367.305	15.14
367.516	18.7
367.727	29.18
367.938	26.28
368.149	29.34
368.36	14.66
368.571	17.28
368.781	17.21
368.992	5.39
369.203	-9.21
369.414	7.37
369.625	-0.99
369.836	1.31
370.047	14.76
370.258	32.5
370.468	35.96
370.679	40
370.89	47.14
371.101	43.19
371.312	43.12
371.522	33.66
371.733	42.24
371.944	37.84
372.155	35.8
372.365	18.57
372.576	25.09
372.787	27.92
372.997	33.15
373.208	26.29
373.419	38.74
373.629	37.48
373.84	28.94
374.05	27.36
374.261	26.18
374.472	30.06
374.682	26.06
374.893	32.97
375.103	29.69
375.314	41.42
375.524	49.5
375.735	55.21
375.945	46.53
376.156	43.7
376.366	42.58
376.577	23.98
376.787	26.9
376.997	36.01
377.208	35.77
377.418	29.59
377.629	32.23
377.839	38.04
378.049	39.43
378.26	43.39
378.47	37.09
378.68	43.11
378.89	37.56
379.101	25.69
379.311	17.78
379.521	24.44
379.732	20.14
379.942	26.67
380.152	31.38
380.362	44.75
380.572	38.45
380.783	36.28
380.993	28.89
381.203	22.61
381.413	8.46
381.623	14.2
381.833	20.11
382.043	22.93
382.253	26.43
382.463	32.1
382.674	37
382.884	27.59
383.094	16.06
383.304	16.25
383.514	15
383.724	5.61
383.934	6.19
384.144	9.12
384.353	7.73
384.563	7.19
384.773	11.88
384.983	8.53
385.193	10.37
385.403	14.74
385.613	20.53
385.823	15.59
386.033	21.97
386.242	27.92
386.452	23.55
386.662	23.22
386.872	25.71
387.082	23.45
387.291	10.26
387.501	9.21
387.711	2.07
387.921	2.52
388.13	6.87
388.34	13.26
388.55	15.42
388.759	15.08
388.969	13.93
389.179	13.68
389.388	17.57
389.598	16.26
389.807	14.8
390.017	15.26
390.227	14.39
390.436	12.26
390.646	13.87
390.855	13.56
391.065	10.92
391.274	7.67
391.484	5.65
391.693	3.94
391.903	5.37
392.112	6.33
392.322	5.65
392.531	5.44
392.74	6.32
392.95	7.03
393.159	7.71
393.369	8.11
393.578	9.56
393.787	8.5
393.997	8.15
394.206	8.5
394.415	8.82
394.625	8.22
394.834	7.89
395.043	7.41
395.252	6.93
395.462	7.79
395.671	6.95
395.88	7.88
396.089	8.19
396.298	7.96
396.508	7.6
396.717	8.12
396.926	7.38
397.135	7.29
397.344	7.18
397.553	7.36
397.762	6.83
397.971	7
398.181	6.24
398.39	5.89
398.599	5.54
398.808	5.7
399.017	5.67
399.226	6.43
399.435	6.93
399.644	7.17
399.853	7.33
400.062	7.47
400.27	6.89
400.479	6.42
400.688	6.4
400.897	6.43
401.106	6.25
401.315	6.76
401.524	7.02
401.733	6.9
401.941	6.72
402.15	6.82
402.359	6.31
402.568	6.39
402.777	6.14
402.985	6.17
403.194	6.18
403.403	6.53
403.612	6.26
403.82	6.48
404.029	6.4
404.238	6.35
404.446	6.31
404.655	6.44
404.864	6.42
405.072	6.38
405.281	6.29
405.489	6.13
405.698	6.21
405.906	6.2
406.115	6.16
406.324	6.06
406.532	6.03
406.741	5.77
406.949	5.86
407.158	5.82
407.366	5.78
407.574	5.91
407.783	6.14
407.991	6
408.2	6.03
408.408	6.05
408.617	5.87
408.825	5.68
409.033	5.52
409.242	5.45
409.45	5.41
409.658	5.32
409.867	5.42
410.075	5.44
410.283	5.42
410.491	5.46
410.7	5.55
410.908	5.45
411.116	5.48
411.324	5.48
411.533	5.41
411.741	5.28
411.949	5.19
412.157	5.23
412.365	5.44
412.573	5.45
412.781	5.48
412.99	5.58
413.198	5.69
413.406	5.62
413.614	5.68
413.822	5.69
414.03	5.61
414.238	5.42
414.446	5.36
414.654	5.23
414.862	5.17
415.07	5.15
415.278	5.07
415.486	5
415.694	4.95
415.902	5.02
416.109	5.11
416.317	5.24
416.525	5.19
416.733	5.17
416.941	5.21
417.149	5.05
417.357	5.08
417.564	4.99
417.772	5.06
417.98	5.09
418.188	5.34
418.395	5.2
418.603	5.15
418.811	5.36
419.019	5.35
419.226	5.25
419.434	5.45
419.642	5.71
419.849	5.46
420.057	5.41
420.265	5.37
420.472	5.16
420.68	5.06
420.887	5.19
421.095	5.06
421.302	4.97
421.51	4.91
421.717	4.89
421.925	4.8
422.132	4.86
422.34	4.78
422.547	4.77
422.755	4.87
422.962	4.89
423.17	5
423.377	5.2
423.585	5.42
423.792	5.39
423.999	5.42
424.207	5.33
424.414	5.18
424.621	5.04
424.829	4.72
425.036	4.62
425.243	4.43
425.451	4.55
425.658	4.48
425.865	4.85
426.072	4.93
426.28	5.07
426.487	5.09
426.694	5.02
426.901	4.87
427.108	4.8
427.315	4.82
427.523	4.68
427.73	4.62
427.937	4.51
428.144	4.48
428.351	4.42
428.558	4.5
428.765	4.63
428.972	4.65
429.179	4.73
429.386	4.76
429.593	4.64
429.8	4.63
430.007	4.66
430.214	4.68
430.421	4.78
430.628	4.92
430.835	5.01
431.042	4.89
431.249	5
431.456	4.94
431.662	5.08
431.869	5.18
432.076	5.29
432.283	5.13
432.49	5.06
432.697	4.92
432.903	4.87
433.11	5.09
433.317	5.09
433.524	5.09
433.73	4.96
433.937	4.82
434.144	4.61
434.35	4.7
434.557	4.75
434.764	4.82
434.97	4.9
435.177	5.03
435.384	4.81
435.59	4.77
435.797	4.75
436.003	4.83
436.21	4.57
436.416	4.67
436.623	4.64
436.829	4.47
437.036	4.43
437.242	4.48
437.449	4.56
437.655	4.64
437.862	4.79
438.068	4.58
438.275	4.65
438.481	4.54
438.687	4.52
438.894	4.58
439.1	4.74
439.307	4.64
439.513	4.75
439.719	4.83
439.926	4.69
440.132	4.8
440.338	4.82
440.544	4.76
440.751	4.55
440.957	4.67
441.163	4.48
441.369	4.49
441.575	4.48
441.782	4.71
441.988	4.66
442.194	4.72
442.4	4.78
442.606	4.84
442.812	4.72
443.018	4.66
443.224	4.59
443.431	4.51
443.637	4.48
443.843	4.42
444.049	4.57
444.255	4.61
444.461	4.55
444.667	4.44
444.873	4.44
445.079	4.41
445.284	4.39
445.49	4.38
445.696	4.42
445.902	4.44
446.108	4.35
446.314	4.39
446.52	4.47
446.726	4.54
446.931	4.54
447.137	4.59
447.343	4.5
447.549	4.44
447.755	4.32
447.96	4.4
448.166	4.38
448.372	4.44
448.578	4.47
448.783	4.58
448.989	4.55
449.195	4.5
449.4	4.51
449.606	4.51
449.812	4.48
450.017	4.45
450.223	4.44
450.428	4.45
450.634	4.41
450.84	4.46
451.045	4.53
451.251	4.64
451.456	4.68
451.662	4.68
451.867	4.69
452.073	4.55
452.278	4.48
452.483	4.38
452.689	4.42
452.894	4.37
453.1	4.46
453.305	4.49
453.51	4.51
453.716	4.55
453.921	4.6
454.127	4.57
454.332	4.48
454.537	4.6
454.742	4.48
454.948	4.38
455.153	4.41
455.358	4.53
455.563	4.45
455.769	4.48
455.974	4.45
456.179	4.43
456.384	4.29
456.589	4.3
456.795	4.28
457	4.36
457.205	4.28
457.41	4.36
457.615	4.31
457.82	4.29
458.025	4.28
458.23	4.27
458.435	4.23
458.64	4.08
458.845	4.1
459.05	4
459.255	4.1
459.46	4.13
459.665	4.31
459.87	4.45
460.075	4.7
460.28	4.67
460.485	4.69
460.69	4.65
460.895	4.54
461.099	4.46
461.304	4.47
461.509	4.46
461.714	4.52
461.919	4.64
462.123	4.61
462.328	4.61
462.533	4.58
462.738	4.49
462.942	4.4
463.147	4.4
463.352	4.3
463.556	4.36
463.761	4.37
463.966	4.35
464.17	4.38
464.375	4.49
464.58	4.46
464.784	4.48
464.989	4.49
465.193	4.49
465.398	4.52
465.602	4.59
465.807	4.56
466.011	4.55
466.216	4.49
466.42	4.48
466.625	4.36
466.829	4.34
467.034	4.42
467.238	4.41
467.443	4.44
467.647	4.41
467.851	4.45
468.056	4.4
468.26	4.46
468.464	4.39
468.669	4.41
468.873	4.35
469.077	4.3
469.282	4.24
469.486	4.24
469.69	4.26
469.894	4.35
470.099	4.32
470.303	4.28
470.507	4.26
470.711	4.38
470.915	4.43
471.119	4.55
471.324	4.63
471.528	4.65
471.732	4.57
471.936	4.49
472.14	4.45
472.344	4.51
472.548	4.44
472.752	4.45
472.956	4.49
473.16	4.56
473.364	4.44
473.568	4.52
473.772	4.47
473.976	4.45
474.18	4.34
474.384	4.37
474.588	4.39
474.792	4.34
474.995	4.26
475.199	4.28
475.403	4.3
475.607	4.26
475.811	4.37
476.015	4.42
476.218	4.35
476.422	4.34
476.626	4.35
476.83	4.4
477.033	4.44
477.237	4.53
477.441	4.52
477.644	4.46
477.848	4.31
478.052	4.23
478.255	4.23
478.459	4.24
478.663	4.32
478.866	4.34
479.07	4.45
479.273	4.42
479.477	4.36
479.681	4.43
479.884	4.44
480.088	4.41
480.291	4.43
480.495	4.5
480.698	4.38
480.901	4.4
481.105	4.39
481.308	4.32
481.512	4.3
481.715	4.25
481.919	4.21
482.122	4.23
482.325	4.28
482.529	4.22
482.732	4.24
482.935	4.25
483.138	4.26
483.342	4.19
483.545	4.33
483.748	4.34
483.952	4.44
484.155	4.41
484.358	4.53
484.561	4.48
484.764	4.5
484.967	4.47
485.171	4.49
485.374	4.43
485.577	4.42
485.78	4.46
485.983	4.44
486.186	4.41
486.389	4.42
486.592	4.37
486.795	4.35
486.998	4.45
487.201	4.54
487.404	4.57
487.607	4.66
487.81	4.71
488.013	4.65
488.216	4.65
488.419	4.59
488.622	4.53
488.825	4.54
489.028	4.53
489.231	4.57
489.433	4.62
489.636	4.67
489.839	4.65
490.042	4.59
490.245	4.55
490.447	4.57
490.65	4.58
490.853	4.63
491.056	4.8
491.258	4.77
491.461	4.83
491.664	4.78
491.866	4.79
492.069	4.72
492.272	4.74
492.474	4.78
492.677	4.85
492.879	4.83
493.082	4.81
493.285	4.89
493.487	4.9
493.69	4.94
493.892	4.98
494.095	5.17
494.297	5.18
494.5	5.25
494.702	5.27
494.905	5.33
495.107	5.27
495.309	5.3
495.512	5.26
495.714	5.34
495.917	5.4
496.119	5.47
496.321	5.49
496.524	5.55
496.726	5.58
496.928	5.58
497.13	5.64
497.333	5.71
497.535	5.8
497.737	5.8
497.939	5.85
498.142	5.82
498.344	5.87
498.546	5.83
498.748	5.93
498.95	5.99
499.152	6.05
499.355	6.06
499.557	6.09
499.759	6.03
499.961	6.1
500.163	6.09
500.365	6.09
500.567	6.12
500.769	6.16
500.971	6.11
501.173	6.11
501.375	6.14
501.577	6.2
501.779	6.22
501.981	6.28
502.183	6.37
502.385	6.35
502.587	6.28
502.788	6.29
502.99	6.24
503.192	6.18
503.394	6.19
503.596	6.33
503.798	6.47
503.999	6.56
504.201	6.58
504.403	6.61
504.605	6.54
504.806	6.43
505.008	6.45
505.21	6.4
505.411	6.32
505.613	6.32
505.815	6.32
506.016	6.27
506.218	6.33
506.42	6.37
506.621	6.37
506.823	6.34
507.024	6.33
507.226	6.29
507.427	6.25
507.629	6.2
507.83	6.16
508.032	6.05
508.233	6.05
508.435	6.07
508.636	6.08
508.838	6.11
509.039	6.16
509.24	6.06
509.442	6.01
509.643	5.94
509.845	5.91
510.046	5.9
510.247	5.95
510.448	5.99
510.65	5.99
510.851	5.98
511.052	5.97
511.254	5.96
511.455	5.96
511.656	5.92
511.857	5.85
512.058	5.8
512.26	5.78
512.461	5.77
512.662	5.74
512.863	5.66
513.064	5.61
513.265	5.56
513.466	5.54
513.667	5.6
513.868	5.66
514.069	5.68
514.27	5.64
514.471	5.56
514.672	5.54
514.873	5.64
515.074	5.66
515.275	5.7
515.476	5.64
515.677	5.55
515.878	5.45
516.079	5.42
516.28	5.38
516.481	5.38
516.682	5.43
516.882	5.37
517.083	5.35
517.284	5.32
517.485	5.37
517.686	5.34
517.886	5.35
518.087	5.32
518.288	5.34
518.488	5.31
518.689	5.31
518.89	5.32
519.091	5.41
519.291	5.34
519.492	5.35
519.692	5.35
519.893	5.42
520.094	5.3
520.294	5.36
520.495	5.36
520.695	5.41
520.896	5.34
521.096	5.37
521.297	5.41
521.497	5.35
521.698	5.25
521.898	5.19
522.099	5.28
522.299	5.24
522.499	5.28
522.7	5.29
522.9	5.34
523.101	5.28
523.301	5.26
523.501	5.3
523.702	5.33
523.902	5.32
524.102	5.35
524.302	5.36
524.503	5.31
524.703	5.32
524.903	5.35
525.103	5.34
525.304	5.28
525.504	5.3
525.704	5.27
525.904	5.28
526.104	5.29
526.304	5.39
526.504	5.37
526.705	5.34
526.905	5.34
527.105	5.35
527.305	5.27
527.505	5.24
527.705	5.31
527.905	5.27
528.105	5.18
528.305	5.22
528.505	5.23
528.705	5.22
528.905	5.2
529.105	5.26
529.304	5.2
529.504	5.27
529.704	5.22
529.904	5.25
530.104	5.23
530.304	5.27
530.503	5.31
530.703	5.31
530.903	5.32
531.103	5.36
531.303	5.39
531.502	5.39
531.702	5.41
531.902	5.34
532.101	5.29
532.301	5.3
532.501	5.22
532.7	5.26
532.9	5.3
533.1	5.36
533.299	5.33
533.499	5.38
533.698	5.32
533.898	5.33
534.097	5.31
534.297	5.35
534.496	5.35
534.696	5.39
534.895	5.39
535.095	5.4
535.294	5.4
535.494	5.37
535.693	5.42
535.892	5.46
536.092	5.47
536.291	5.48
536.491	5.54
536.69	5.52
536.889	5.48
537.088	5.43
537.288	5.43
537.487	5.42
537.686	5.45
537.886	5.5
538.085	5.54
538.284	5.56
538.483	5.59
538.682	5.59
538.882	5.59
539.081	5.61
539.28	5.6
539.479	5.59
539.678	5.63
539.877	5.64
540.076	5.64
540.275	5.66
540.474	5.7
540.673	5.63
540.872	5.68
541.071	5.73
541.27	5.72
541.469	5.72
541.668	5.69
541.867	5.69
542.066	5.69
542.265	5.78
542.464	5.69
542.663	5.76
542.862	5.79
543.06	5.79
543.259	5.73
543.458	5.86
543.657	5.93
543.856	5.96
544.054	6
544.253	6.02
544.452	6.02
544.651	5.99
544.849	5.95
545.048	5.96
545.247	6.02
545.445	6.04
545.644	6.03
545.843	6.04
546.041	6.03
546.24	5.98
546.438	5.99
546.637	6.03
546.836	6.08
547.034	6.14
547.233	6.25
547.431	6.26
547.63	6.26
547.828	6.28
548.027	6.26
548.225	6.18
548.423	6.2
548.622	6.2
548.82	6.25
549.019	6.25
549.217	6.3
549.415	6.34
549.614	6.43
549.812	6.35
550.01	6.38
550.209	6.49
550.407	6.55
550.605	6.54
550.803	6.65
551.002	6.72
551.2	6.73
551.398	6.73
551.596	6.79
551.794	6.85
551.993	6.85
552.191	6.8
552.389	6.85
552.587	6.86
552.785	6.87
552.983	6.9
553.181	7.02
553.379	7.08
553.577	7.19
553.775	7.21
553.973	7.25
554.171	7.25
554.369	7.27
554.567	7.28
554.765	7.35
554.963	7.41
555.161	7.46
555.359	7.52
555.557	7.57
555.755	7.66
555.952	7.74
556.15	7.81
556.348	7.82
556.546	7.9
556.744	7.91
556.941	7.96
557.139	8.05
557.337	8.23
557.535	8.17
557.732	8.21
557.93	8.23
558.128	8.21
558.325	8.18
558.523	8.31
558.721	8.41
558.918	8.45
559.116	8.59
559.313	8.65
559.511	8.74
559.708	8.71
559.906	8.83
560.104	8.89
560.301	8.94
560.498	9.02
560.696	9.11
560.893	9.14
561.091	9.17
561.288	9.28
561.486	9.25
561.683	9.31
561.88	9.4
562.078	9.46
562.275	9.44
562.473	9.5
562.67	9.6
562.867	9.62
563.064	9.7
563.262	9.76
563.459	9.92
563.656	9.98
563.853	10.12
564.051	10.1
564.248	10.24
564.445	10.26
564.642	10.31
564.839	10.36
565.036	10.55
565.234	10.54
565.431	10.62
565.628	10.69
565.825	10.63
566.022	10.67
566.219	10.8
566.416	10.8
566.613	10.87
566.81	11.05
567.007	11.02
567.204	10.98
567.401	11.09
567.598	11.13
567.795	11.16
567.991	11.24
568.188	11.47
568.385	11.47
568.582	11.55
568.779	11.56
568.976	11.61
569.172	11.62
569.369	11.64
569.566	11.73
569.763	11.72
569.96	11.85
570.156	11.83
570.353	11.91
570.55	11.9
570.746	12.03
570.943	12.05
571.14	12.11
571.336	12.15
571.533	12.12
571.729	12.1
571.926	12.07
572.123	12.09
572.319	12.18
572.516	12.3
572.712	12.38
572.909	12.4
573.105	12.5
573.302	12.52
573.498	12.54
573.695	12.55
573.891	12.61
574.087	12.53
574.284	12.58
574.48	12.61
574.677	12.59
574.873	12.73
575.069	12.85
575.266	12.86
575.462	12.84
575.658	12.89
575.854	12.89
576.051	12.84
576.247	12.85
576.443	12.93
576.639	13.05
576.835	12.92
577.032	12.9
577.228	12.9
577.424	12.84
577.62	12.77
577.816	12.81
578.012	12.85
578.208	12.93
578.404	12.97
578.6	13.02
578.796	13.03
578.993	13.1
579.189	13
579.384	12.95
579.58	12.85
579.776	12.81
579.972	12.8
580.168	12.89
580.364	12.85
580.56	12.93
580.756	12.95
580.952	12.82
581.148	12.67
581.343	12.74
581.539	12.72
581.735	12.78
581.931	12.86
582.127	12.98
582.322	12.96
582.518	12.9
582.714	12.83
582.909	12.84
583.105	12.85
583.301	12.85
583.496	12.84
583.692	12.8
583.888	12.82
584.083	12.75
584.279	12.7
584.474	12.76
584.67	12.74
584.866	12.69
585.061	12.62
585.257	12.6
585.452	12.62
585.648	12.61
585.843	12.64
586.039	12.72
586.234	12.7
586.429	12.63
586.625	12.63
586.82	12.56
587.015	12.57
587.211	12.56
587.406	12.64
587.601	12.69
587.797	12.75
587.992	12.66
588.187	12.66
588.383	12.61
588.578	12.58
588.773	12.54
588.968	12.59
589.163	12.61
589.359	12.55
589.554	12.51
589.749	12.5
589.944	12.48
590.139	12.53
590.334	12.56
590.529	12.73
590.724	12.8
590.919	12.89
591.114	12.88
591.309	12.91
591.504	12.79
591.699	12.81
591.894	12.7
592.089	12.75
592.284	12.81
592.479	12.89
592.674	12.84
592.869	12.98
593.064	13.05
593.259	13.19
593.454	13.19
593.648	13.2
593.843	13.2
594.038	13.14
594.233	12.97
594.428	13.1
594.622	13.27
594.817	13.43
595.012	13.46
595.206	13.59
595.401	13.77
595.596	13.82
595.79	13.66
595.985	13.8
596.18	13.88
596.374	13.74
596.569	13.66
596.763	13.89
596.958	13.95
597.153	13.96
597.347	14.01
597.542	14.22
597.736	14.16
597.931	14.18
598.125	14.26
598.319	14.24
598.514	14.23
598.708	14.28
598.903	14.25
599.097	14.27
599.291	14.39
599.486	14.3
599.68	14.35
599.874	14.4
600.069	14.49
600.263	14.51
600.457	14.57
600.651	14.55
600.846	14.58
601.04	14.51
601.234	14.47
601.428	14.5
601.622	14.57
601.817	14.54
602.011	14.57
602.205	14.69
602.399	14.78
602.593	14.81
602.787	14.78
602.981	14.8
603.175	14.78
603.369	14.67
603.563	14.58
603.757	14.64
603.951	14.59
604.145	14.42
604.339	14.35
604.533	14.31
604.727	14.25
604.921	14.22
605.115	14.24
605.309	14.25
605.502	14.27
605.696	14.26
605.89	14.26
606.084	14.3
606.278	14.26
606.471	14.13
606.665	14.04
606.859	13.99
607.053	13.94
607.246	13.82
607.44	13.82
607.634	13.83
607.827	13.65
608.021	13.49
608.214	13.44
608.408	13.36
608.602	13.26
608.795	13.33
608.989	13.39
609.182	13.44
609.376	13.42
609.569	13.39
609.763	13.26
609.956	13.2
610.15	13.11
610.343	13.02
610.537	12.98
610.73	12.91
610.923	12.92
611.117	12.91
611.31	12.82
611.504	12.89
611.697	12.91
611.89	12.79
612.083	12.63
612.277	12.58
612.47	12.37
612.663	12.32
612.856	12.13
613.05	12.11
613.243	12.09
613.436	12.04
613.629	11.9
613.822	11.89
614.015	11.89
614.209	11.77
614.402	11.69
614.595	11.67
614.788	11.62
614.981	11.49
615.174	11.48
615.367	11.39
615.56	11.21
615.753	11.19
615.946	11.08
616.139	11.03
616.332	11.02
616.525	10.99
616.718	10.92
616.911	11.02
617.103	11.08
617.296	11.06
617.489	11.08
617.682	11.1
617.875	11.05
618.067	10.81
618.26	10.67
618.453	10.66
618.646	10.66
618.838	10.56
619.031	10.63
619.224	10.71
619.417	10.76
619.609	10.66
619.802	10.66
619.994	10.6
620.187	10.52
620.38	10.42
620.572	10.37
620.765	10.28
620.957	10.27
621.15	10.23
621.342	10.11
621.535	10.12
621.727	10.15
621.92	10.09
622.112	10.09
622.305	10.16
622.497	10.13
622.69	10.05
622.882	10.06
623.074	10
623.267	9.94
623.459	9.86
623.651	9.74
623.844	9.76
624.036	9.71
624.228	9.73
624.42	9.7
624.613	9.71
624.805	9.72
624.997	9.74
625.189	9.72
625.381	9.83
625.574	9.84
625.766	9.82
625.958	9.82
626.15	9.78
626.342	9.61
626.534	9.56
626.726	9.5
626.918	9.42
627.11	9.43
627.302	9.46
627.494	9.57
627.686	9.55
627.878	9.59
628.07	9.47
628.262	9.38
628.454	9.29
628.646	9.24
628.838	9.24
629.029	9.27
629.221	9.29
629.413	9.25
629.605	9.22
629.797	9.2
629.989	9.3
630.18	9.32
630.372	9.3
630.564	9.36
630.755	9.26
630.947	9.16
631.139	9.11
631.33	9.11
631.522	9
631.714	9.02
631.905	8.99
632.097	8.91
632.289	8.81
632.48	8.83
632.672	8.79
632.863	8.73
633.055	8.74
633.246	8.86
633.438	8.84
633.629	8.87
633.821	8.84
634.012	8.87
634.203	8.81
634.395	8.88
634.586	8.96
634.777	8.98
634.969	8.99
635.16	8.97
635.351	8.88
635.543	8.76
635.734	8.83
635.925	8.77
636.117	8.76
636.308	8.72
636.499	8.71
636.69	8.64
636.881	8.66
637.073	8.74
637.264	8.8
637.455	8.82
637.646	8.85
637.837	8.9
638.028	8.81
638.219	8.78
638.41	8.81
638.601	8.75
638.792	8.63
638.983	8.69
639.174	8.71
639.365	8.67
639.556	8.66
639.747	8.7
639.938	8.71
640.129	8.68
640.32	8.64
640.511	8.68
640.701	8.69
640.892	8.66
641.083	8.67
641.274	8.67
641.465	8.66
641.655	8.68
641.846	8.66
642.037	8.61
642.228	8.59
642.418	8.51
642.609	8.44
642.8	8.41
642.99	8.49
643.181	8.48
643.372	8.54
643.562	8.52
643.753	8.55
643.943	8.52
644.134	8.5
644.324	8.42
644.515	8.44
644.705	8.44
644.896	8.38
645.086	8.4
645.277	8.41
645.467	8.43
645.658	8.28
645.848	8.28
646.038	8.24
646.229	8.33
646.419	8.33
646.61	8.41
646.8	8.43
646.99	8.49
647.18	8.44
647.371	8.39
647.561	8.37
647.751	8.33
647.941	8.3
648.132	8.32
648.322	8.3
648.512	8.34
648.702	8.34
648.892	8.28
649.082	8.24
649.272	8.22
649.462	8.14
649.653	8.15
649.843	8.1
650.033	8.05
650.223	8.08
650.413	8.09
650.603	8.04
650.793	7.98
650.983	8
651.172	7.99
651.362	8.01
651.552	7.97
651.742	8
651.932	7.92
652.122	7.88
652.312	7.86
652.502	7.86
652.691	7.82
652.881	7.85
653.071	7.89
653.261	7.81
653.45	7.74
653.64	7.79
653.83	7.73
654.019	7.52
654.209	7.51
654.399	7.45
654.588	7.29
654.778	7.18
654.968	7.1
655.157	7.02
655.347	7.01
655.536	6.96
655.726	6.83
655.915	6.89
656.105	6.76
656.294	6.65
656.484	6.61
656.673	6.58
656.863	6.53
657.052	6.48
657.241	6.35
657.431	6.27
657.62	6.18
657.809	5.97
657.999	5.97
658.188	5.97
658.377	5.95
658.567	5.91
658.756	5.87
658.945	5.74
659.134	5.73
659.324	5.67
659.513	5.64
659.702	5.58
659.891	5.57
660.08	5.42
660.269	5.26
660.458	5.16
660.648	5.27
660.837	5.29
661.026	5.35
661.215	5.42
661.404	5.38
661.593	5.24
661.782	5.04
661.971	4.85
662.16	4.87
662.349	4.91
662.538	4.84
662.726	4.88
662.915	4.95
663.104	4.83
663.293	4.76
663.482	4.78
663.671	4.77
663.86	4.63
664.048	4.68
664.237	4.71
664.426	4.65
664.615	4.65
664.803	4.63
664.992	4.6
665.181	4.59
665.369	4.59
665.558	4.53
665.747	4.66
665.935	4.67
666.124	4.67
666.312	4.73
666.501	4.79
666.69	4.8
666.878	4.84
667.067	4.81
667.255	4.89
667.444	5.02
667.632	5.09
667.82	5.08
668.009	5.12
668.197	5.15
668.386	5.12
668.574	5.12
668.762	5.18
668.951	5.46
669.139	5.54
669.327	5.59
669.516	5.81
669.704	5.94
669.892	5.83
670.08	5.73
670.269	5.76
670.457	5.62
670.645	5.63
670.833	5.7
671.021	5.81
671.21	5.82
671.398	5.79
671.586	5.78
671.774	5.93
671.962	6.06
672.15	6.21
672.338	6.45
672.526	6.65
672.714	6.66
672.902	6.62
673.09	6.75
673.278	6.72
673.466	6.72
673.654	6.92
673.842	7.13
674.03	7.22
674.218	7.36
674.405	7.45
674.593	7.18
674.781	7.14
674.969	7.07
675.157	7.12
675.344	7.18
675.532	7.41
675.72	7.68
675.908	7.76
676.095	7.81
676.283	7.88
676.471	8.05
676.658	8.02
676.846	8.13
677.033	8.27
677.221	8.37
677.409	8.41
677.596	8.49
677.784	8.68
677.971	8.7
678.159	8.83
678.346	8.88
678.534	8.95
678.721	8.93
678.909	9.09
679.096	9.08
679.283	9.25
679.471	9.3
679.658	9.41
679.846	9.49
680.033	9.75
680.22	9.58
680.408	9.57
680.595	9.54
680.782	9.43
680.969	9.4
681.157	9.65
681.344	9.73
681.531	9.88
681.718	10.16
681.905	10.15
682.093	10.12
682.28	10.19
682.467	10.52
682.654	10.42
682.841	10.48
683.028	10.42
683.215	10.6
683.402	10.42
683.589	10.56
683.776	10.77
683.963	11.01
684.15	11.06
684.337	11.15
684.524	11.31
684.711	11.35
684.898	11.36
685.085	11.32
685.271	11.48
685.458	11.53
685.645	11.7
685.832	11.82
686.019	12.03
686.205	12.16
686.392	12.27
686.579	12.43
686.766	12.65
686.952	12.85
687.139	12.83
687.326	13.04
687.512	13.1
687.699	13.22
687.886	13.32
688.072	13.62
688.259	13.7
688.445	13.72
688.632	13.86
688.818	13.99
689.005	14.01
689.191	14.31
689.378	14.67
689.564	14.97
689.751	15.26
689.937	15.71
690.124	15.86
690.31	15.96
690.496	16.38
690.683	16.67
690.869	16.96
691.055	17.32
691.242	17.74
691.428	17.96
691.614	18.2
691.8	18.3
691.987	18.68
692.173	19.18
692.359	19.58
692.545	20.01
692.731	20.52
692.918	20.81
693.104	21.06
693.29	21.23
693.476	21.69
693.662	22.22
693.848	22.58
694.034	22.85
694.22	23.39
694.406	23.56
694.592	23.71
694.778	23.95
694.964	24.45
695.15	24.6
695.336	24.9
695.522	25.43
695.708	25.93
695.894	26.24
696.08	26.64
696.265	27.2
696.451	27.72
696.637	28.01
696.823	28.43
697.009	28.87
697.194	29.25
697.38	29.22
697.566	29.62
697.751	30.04
697.937	30.45
698.123	30.83
698.308	31.14
698.494	31.49
698.68	31.7
698.865	32.01
699.051	32.34
699.236	33.07
699.422	33.34
699.607	33.9
699.793	34.43
699.978	34.69
700.164	34.84
700.349	35.18
700.535	35.37
700.72	35.49
700.906	35.85
701.091	36.23
701.276	36.55
701.462	36.87
701.647	37.34
701.832	37.81
702.018	38.12
702.203	38.58
702.388	38.9
702.573	38.98
702.759	38.91
702.944	39.08
703.129	39.45
703.314	39.82
703.499	40.36
703.684	41.01
703.87	41.23
704.055	41.42
704.24	41.34
704.425	41.52
704.61	41.74
704.795	42.28
704.98	42.33
705.165	42.85
705.35	43.3
705.535	43.64
705.72	43.72
705.905	44.39
706.09	44.71
706.275	44.7
706.459	44.77
706.644	44.81
706.829	45.07
707.014	45.71
707.199	45.82
707.384	46.14
707.568	46.79
707.753	46.84
707.938	46.37
708.123	46.72
708.307	46.83
708.492	47.27
708.677	47.34
708.861	47.98
709.046	48.35
709.231	48.81
709.415	48.52
709.6	48.72
709.784	48.85
709.969	49
710.153	49.28
710.338	49.87
710.522	50.61
710.707	50.73
710.891	50.98
711.076	51.14
711.26	51.35
711.445	51.83
711.629	52.46
711.813	53.09
711.998	53.55
712.182	53.5
712.366	53.64
712.551	53.76
712.735	53.44
712.919	53.85
713.103	54.3
713.288	54.08
713.472	54.45
713.656	55.07
713.84	55.02
714.024	55.52
714.208	56
714.393	56.52
714.577	56.54
714.761	56.97
714.945	57.45
715.129	57.64
715.313	57.65
715.497	58.75
715.681	58.97
715.865	59.64
716.049	60.15
716.233	61.23
716.417	61.48
716.601	62.13
716.785	62.18
716.968	62.97
717.152	63.03
717.336	63.72
717.52	64.15
717.704	64.57
717.888	65.63
718.071	65.79
718.255	65.87
718.439	66.23
718.622	66.14
718.806	65.7
718.99	66.42
719.174	66.83
719.357	67.42
719.541	68.34
719.724	68.76
719.908	68.99
720.092	69.98
720.275	70.54
720.459	70.88
720.642	71.53
720.826	72.1
721.009	72.04
721.193	72.28
721.376	72.73
721.559	73.04
721.743	73.29
721.926	73.67
722.11	73.67
722.293	74.11
722.476	74.21
722.66	74.4
722.843	74.55
723.026	75.58
723.21	76.14
723.393	76.62
723.576	77.17
723.759	77.48
723.942	77.6
724.126	78.04
724.309	78.96
724.492	79.38
724.675	80.07
724.858	80.4
725.041	80.29
725.224	80.48
725.407	81.2
725.59	81.36
725.774	81.72
725.957	82.64
726.14	82.75
726.322	82.81
726.505	83.56
726.688	84.33
726.871	83.92
727.054	84.83
727.237	85.21
727.42	85.92
727.603	86.21
727.786	86.91
727.968	86.52
728.151	86.35
728.334	85.52
728.517	85.65
728.699	85.96
728.882	86.21
729.065	86.9
729.248	87.74
729.43	87.75
729.613	88.1
729.796	88.47
729.978	88.97
730.161	89.48
730.343	89.88
730.526	91.2
730.708	91.54
730.891	91.92
731.073	91.96
731.256	92.49
731.438	91.43
731.621	91.95
731.803	92.03
731.986	92.37
732.168	92.69
732.35	93.42
732.533	93.05
732.715	93.64
732.898	94.28
733.08	93.98
733.262	94.25
733.444	94.46
733.627	94.7
733.809	94.27
733.991	95.27
734.173	94.96
734.355	95.87
734.538	95.4
734.72	96.16
734.902	95.97
735.084	96.94
735.266	96.99
735.448	97.28
735.63	96.86
735.812	96.84
735.994	96
736.176	96.07
736.358	97.56
736.54	96.71
736.722	97.52
736.904	97.76
737.086	97.43
737.268	95.44
737.45	96.44
737.632	96.05
737.814	96.42
737.995	97.28
738.177	97.91
738.359	98.67
738.541	98.03
738.723	99.2
738.904	98.78
739.086	99.38
739.268	98.82
739.449	99.44
739.631	98.53
739.813	99.18
739.994	99.22
740.176	99.22
740.358	99.36
740.539	100.25
740.721	100.79
740.902	99.53
741.084	100.39
741.265	100.21
741.447	100.48
741.628	99.16
741.81	100.13
741.991	99.7
742.172	100.39
742.354	99.53
742.535	100.99
742.717	101.4
742.898	101.73
743.079	101.24
743.261	100.6
743.442	99.68
743.623	99.16
743.804	99.04
743.986	100.09
744.167	101.8
744.348	101.6
744.529	102.32
744.71	102.29
744.891	102.61
745.073	101.61
745.254	103.17
745.435	103.6
745.616	103.7
745.797	102.2
745.978	101.82
746.159	101.88
746.34	101.29
746.521	101.09
746.702	101.72
746.883	102.41
747.064	99.84
747.245	100.26
747.426	100.27
747.606	99.28
747.787	99.06
747.968	100.25
748.149	99.51
748.33	100.46
748.51	102.41
748.691	101.15
748.872	102.03
749.053	102.78
749.233	102.28
749.414	99.8
749.595	102.19
749.775	102.96
749.956	102.49
750.137	101.89
750.317	102.47
750.498	102.28
750.678	100.74
750.859	102.14
751.04	102.7
751.22	103.77
751.4	102.92
751.581	103.16
751.761	101.61
751.942	99.94
752.122	99.91
752.303	98.99
752.483	99.39
752.663	101.28
752.844	101.94
753.024	101.64
753.204	103.21
753.385	102.18
753.565	101.22
753.745	103.57
753.925	103.14
754.106	103.44
754.286	104.82
754.466	104.16
754.646	103.37
754.826	104.3
755.006	104.61
755.187	104.33
755.367	104.15
755.547	102.85
755.727	100.87
755.907	99.51
756.087	100.17
756.267	99.83
756.447	99.9
756.627	102.4
756.807	102.86
756.987	99.97
757.167	101.43
757.346	103.12
757.526	101.61
757.706	100.06
757.886	100.51
758.066	100.05
758.246	98.81
758.425	100.1
758.605	102.19
758.785	104.07
758.965	104.84
759.144	105.76
759.324	105.15
759.504	104.77
759.683	104.79
759.863	102.49
760.043	101.87
760.222	99.37
760.402	97.97
760.581	97.7
760.761	97.76
760.94	96
761.12	98.78
761.299	99.63
761.479	99.73
761.658	100.27
761.838	101.22
762.017	101.03
762.197	100.15
762.376	99.75
762.555	98.29
762.735	99.45
762.914	98.41
763.093	98.71
763.273	97.62
763.452	98.14
763.631	95.79
763.81	96.49
763.99	99.05
764.169	101.48
764.348	103.12
764.527	104.85
764.706	103.72
764.885	101.38
765.064	100.09
765.243	101.55
765.423	101.74
765.602	102.13
765.781	103.76
765.96	102.42
766.139	99.99
766.318	99.04
766.497	99.41
766.676	98.56
766.854	99.9
767.033	99.99
767.212	100.64
767.391	99
767.57	99.68
767.749	97.86
767.928	98.35
768.106	98.98
768.285	98.84
768.464	97.12
768.643	100.25
768.821	100.01
769	100.55
769.179	102.59
769.357	101.39
769.536	97.87
769.715	96.13
769.893	95.67
770.072	94.76
770.25	96.12
770.429	98.9
770.607	99.25
770.786	99.83
770.964	99.04
771.143	99.24
771.321	96.96
771.5	100.11
771.678	98.15
771.857	98.29
772.035	100.44
772.213	100.5
772.392	98.94
772.57	99.73
772.748	99.59
772.927	97.08
773.105	98.82
773.283	98.84
773.461	99.31
773.64	100.18
773.818	100.58
773.996	97.24
774.174	97.57
774.352	94.67
774.531	94.47
774.709	94.71
774.887	100.16
775.065	99.75
775.243	101.64
775.421	102.19
775.599	98.9
775.777	96.46
775.955	94.31
776.133	95.64
776.311	95.93
776.489	98.71
776.667	97.68
776.844	100.9
777.022	99.82
777.2	100.4
777.378	97.46
777.556	99.01
777.734	96.98
777.911	96.91
778.089	96.44
778.267	98.41
778.445	93.65
778.622	93.6
778.8	94.95
778.978	92.91
779.155	91.42
779.333	94.54
779.511	92.34
779.688	88.89
779.866	86.18
780.043	88.53
780.221	89.61
780.398	89.42
780.576	91.2
780.753	96.43
780.931	93.72
781.108	93.52
781.286	95.57
781.463	93.99
781.64	95.1
781.818	97.68
781.995	94.92
782.172	97.51
782.35	99.36
782.527	101.03
782.704	98.87
782.882	101.81
783.059	99.35
783.236	97.87
783.413	94.16
783.59	93.67
783.768	89.96
783.945	91.63
784.122	91.46
784.299	91.74
784.476	93.6
784.653	97.53
784.83	93.93
785.007	94.71
785.184	91.58
785.361	92.27
785.538	91.3
785.715	89.02
785.892	85.99
786.069	89.63
786.246	89.43
786.423	90.04
786.6	96.02
786.776	100.52
786.953	99.56
787.13	99.46
787.307	101.99
787.484	100.71
787.66	102.98
787.837	100.99
788.014	99.06
788.191	98.9
788.367	100.53
788.544	99.02
788.721	100.23
788.897	100.37
789.074	96.17
789.25	91.81
789.427	89.15
789.603	88.47
789.78	88.59
789.956	86.88
790.133	88.82
790.309	87.48
790.486	84.17
790.662	88.22
790.839	91.83
791.015	89.63
791.192	94.53
791.368	100.98
791.544	92.01
791.721	92.04
791.897	93.46
792.073	91.8
792.249	86
792.426	92
792.602	90.88
792.778	92.29
792.954	89.14
793.13	89.63
793.307	92.32
793.483	90.05
793.659	90.12
793.835	93.73
794.011	99.39
794.187	96.84
794.363	100.19
794.539	94.01
794.715	92.29
794.891	91.97
795.067	86.42
795.243	86.04
795.419	92.17
795.595	93.41
795.771	92.44
795.947	98.27
796.122	93.14
796.298	92.13
796.474	90.51
796.65	87.63
796.826	88.36
797.001	95.51
797.177	88.83
797.353	85.52
797.529	89.27
797.704	88.36
797.88	84.76
798.056	89.56
798.231	95.77
798.407	91.77
798.582	93.64
798.758	94.81
798.934	97.88
799.109	94.35
799.285	95.99
799.46	95.74
799.636	93.79
799.811	88.59
799.986	91.85
800.162	95.49
800.337	93.48
800.513	91.66
800.688	94.84
800.863	88.44
801.039	88.66
801.214	89.29
801.389	94.6
801.565	87.45
801.74	96.65
801.915	93.99
802.09	90.85
802.265	86.84
802.441	92.83
802.616	84.72
802.791	82.07
802.966	86.81
803.141	87.12
803.316	86.44
803.491	90.19
803.666	91.49
803.841	91.59
804.016	93.6
804.191	89.53
804.366	98.18
804.541	100.88
804.716	95.9
804.891	98.59
805.066	111.91
805.241	102.22
805.416	96.15
805.591	91.63
805.765	84.65
805.94	70.97
806.115	71.78
806.29	72.45
806.464	81.69
806.639	85.09
806.814	89.32
806.989	90.54
807.163	85.68
807.338	82.4
807.512	82.88
807.687	84.17
807.862	79.93
808.036	85.34
808.211	81.66
808.385	82.4
808.56	83.21
808.734	81.53
808.909	77.78
809.083	75.13
809.258	74.62
809.432	82.8
809.606	77.22
809.781	80
809.955	82.54
810.13	79.56
810.304	65.89
810.478	76.22
810.652	75
810.827	76.17
811.001	83.87
811.175	92.07
811.349	89.96
811.524	89.83
811.698	89.94
811.872	84.39
812.046	86.13
812.22	82.21
812.394	89.94
812.568	92.37
812.742	97.75
812.916	94.38
813.09	94.23
813.264	93.14
813.438	101.7
813.612	102.38
813.786	92.13
813.96	100.95
814.134	95.34
814.308	86.21
814.482	82.27
814.656	89.63
814.83	85.33
815.003	87.96
815.177	80.89
815.351	83.47
815.525	94.52
815.698	95.46
815.872	90.74
816.046	100.27
816.219	92.18
816.393	94.83
816.567	95.98
816.74	97.74
816.914	94.61
817.088	93.01
817.261	83.75
817.435	87.45
817.608	87.69
817.782	82.11
817.955	104.34
818.129	117.49
818.302	110.25
818.475	121.27
818.649	126.67
818.822	112.82
818.996	109.73
819.169	111.84
819.342	100.04
819.516	82.83
819.689	79.87
819.862	81.33
820.035	78.68
820.209	74.67
820.382	97.26
820.555	94.97
820.728	90.06
820.901	80.37
821.075	85.94
821.248	91.92
821.421	103.5
821.594	98.95
821.767	110.2
821.94	110.73
822.113	87.23
822.286	83.57
822.459	89.57
822.632	90.77
822.805	90.88
822.978	95.99
823.151	96
823.324	93.84
823.496	82.1
823.669	71.99
823.842	71.93
824.015	70.99
824.188	57.76
824.361	69.13
824.533	83.62
824.706	82.03
824.879	79.8
825.051	72.84
825.224	77.66
825.397	88.03
825.569	82.57
825.742	85.22
825.915	88.56
826.087	98.3
826.26	77.8
826.432	94.59
826.605	83.88
826.777	99.31
826.95	84.36
827.122	79.52
827.295	63.82
827.467	66.61
827.64	49.49
827.812	53.83
827.984	50.56
828.157	66.19
828.329	77.31
828.501	113.68
828.674	107.24
828.846	109.05
829.018	100.37
829.19	95.41
829.363	70.46
829.535	71.95
829.707	86.09
829.879	95.75
830.051	91.1
830.223	115.7
830.395	108.21
830.568	87.83
830.74	90.01
830.912	91.78
831.084	79.46
831.256	75.95
831.428	82.75
831.6	76.31
831.772	77.49
831.943	72.58
832.115	87.6
832.287	86.76
832.459	82.53
832.631	95.88
832.803	116.65
832.975	126.83
833.146	126.95
833.318	135.76
833.49	138.84
833.662	131.5
833.833	100.06
834.005	99.73
834.177	110.85
834.348	110.56
834.52	99.6
834.692	108.67
834.863	103.84
835.035	102.71
835.206	99.3
835.378	84.93
835.549	87.78
835.721	87.62
835.892	79.16
836.064	85.4
836.235	100.58
836.407	96.57
836.578	83.48
836.749	80.67
836.921	62.59
837.092	61.03
837.264	57.43
837.435	59.53
837.606	64.86
837.777	66.03
837.949	57.93
838.12	49.21
838.291	57.94
838.462	54.75
838.633	61.24
838.805	97.43
838.976	118.98
839.147	127.54
839.318	109.73
839.489	107.69
839.66	115.95
839.831	139.3
840.002	129.3
840.173	162.85
840.344	147.88
840.515	129
840.686	96.9
840.857	99.5
841.028	114.28
841.199	92.44
841.369	68.74
841.54	93.04
841.711	99.71
841.882	66.64
842.053	73.96
842.223	95.4
842.394	83.25
842.565	69.89
842.736	103.14
842.906	111.21
843.077	89.16
843.248	130.13
843.418	134.01
843.589	71.04
843.759	77.15
843.93	81.25
844.101	73.55
844.271	67
844.442	88.8
844.612	102.91
844.783	82.59
844.953	72.92
845.123	81.23
845.294	61.86
845.464	47.9
845.635	57.93
845.805	87.81
845.975	77.88
846.146	115.32
846.316	87.22
846.486	110.37
846.656	84.8
846.827	89.77
846.997	74.93
847.167	78.53
847.337	61.19
847.507	52.93
847.677	73.87
847.848	93.08
848.018	124.55
848.188	128.84
848.358	151.86
848.528	156.86
848.698	186.44
848.868	153.7
849.038	193.3
849.208	109.8
849.378	117.95
849.548	64.07
849.718	87.08
849.887	59.48
850.057	75.7
850.227	67.04
850.397	62.15
850.567	61.8
850.737	63.83
850.906	51.93
851.076	42.4
851.246	54.34
851.415	44.64
851.585	56.09
851.755	62.99
851.924	73.53
852.094	77.41
852.264	72.16
852.433	63.93
852.603	82.09
852.772	69.87
852.942	67.2
853.111	69.58
853.281	81.05
853.45	66.84
853.62	61.2
853.789	50.12
853.959	71.76
854.128	70.09
854.297	86.65
854.467	154.97
854.636	156.9
854.805	118.76
854.975	127.29
855.144	72.54
855.313	57.1
855.482	66.02
855.652	49.24
855.821	42.5
855.99	57.91
856.159	65.96
856.328	73.32
856.497	82.83
856.667	72.37
856.836	106.32
857.005	95.41
857.174	69.48
857.343	76.03
857.512	78.24
857.681	-10.2
857.85	25.48
858.019	14.31
858.188	8.18
858.356	-12.61
858.525	25.68
858.694	19.55
858.863	30.34
859.032	51.37
859.201	62.86
859.369	94.59
859.538	95.51
859.707	93.23
859.876	87.12
860.044	79.85
860.213	78.75
860.382	89.19
860.55	119
860.719	151.65
860.888	160.1
861.056	131.65
861.225	122.73
861.393	120.04
861.562	100.79
861.73	105.9
861.899	84.99
862.067	81.17
862.236	64.7
862.404	57.04
862.572	48.39
862.741	43.75
862.909	39.33
863.078	53.08
863.246	56.23
863.414	80.9
863.582	123.2
863.751	114.67
863.919	114.57
864.087	166.02
864.255	106.18
864.424	74.15
864.592	49.57
864.76	39.06
864.928	34.4
865.096	23.63
865.264	49.82
865.432	68.22
865.6	71.79
865.768	56.26
865.936	57.09
866.104	43.93
866.272	27.34
866.44	19.94
866.608	10.97
866.776	30.82
866.944	57.04
867.112	95.73
867.28	88.89
867.448	103.42
867.615	70.02
867.783	60.55
867.951	28.18
868.119	32.94
868.286	19.71
868.454	39.92
868.622	39.34
868.789	60.77
868.957	63.72
869.125	53.01
869.292	44.59
869.46	39.08
869.627	48.51
869.795	47.25
869.963	65.81
870.13	59.8
870.298	48.13
870.465	33.23
870.632	8.8
870.8	28.26
870.967	80.08
871.135	108.81
871.302	95.67
871.469	133.15
871.637	128.76
871.804	80.51
871.971	87.42
872.139	110.86
872.306	88.04
872.473	91.15
872.64	101.36
872.807	90.08
872.975	61.67
873.142	52.65
873.309	59.26
873.476	62.17
873.643	63.36
873.81	83.96
873.977	72.35
874.144	71.31
874.311	79.84
874.478	70.56
874.645	41.28
874.812	60.03
874.979	41.35
875.146	38
875.313	51.58
875.48	94.96
875.647	125.12
875.813	132.47
875.98	125.14
876.147	127.23
876.314	113.12
876.481	92.01
876.647	86.68
876.814	78.06
876.981	76.89
877.147	87.4
877.314	51.31
877.481	64.81
877.647	36.89
877.814	28.67
877.98	20.92
878.147	45.99
878.314	26.3
878.48	71.3
878.647	61.35
878.813	46.36
878.979	13.9
879.146	42.71
879.312	47.22
879.479	72.48
879.645	94.32
879.811	99.3
879.978	59.92
880.144	67.45
880.31	62.4
880.477	40.04
880.643	50.56
880.809	56.67
880.975	45.6
881.142	-17.07
881.308	15.01
881.474	163.87
881.64	215.92
881.806	188.84
881.972	233.4
882.138	278.35
882.304	128.64
882.47	73.36
882.636	64.66
882.802	54.16
882.968	37.05
883.134	43.66
883.3	59.56
883.466	73.42
883.632	99.77
883.798	106.37
883.964	55.43
884.129	142.54
884.295	72.92
884.461	35.21
884.627	46.64
884.793	70.78
884.958	47.67
885.124	53.48
885.29	39.22
885.455	28.66
885.621	19.24
885.787	39.51
885.952	39.05
886.118	52.94
886.283	67.29
886.449	63.23
886.614	46.57
886.78	73.19
886.945	103.41
887.111	84.11
887.276	83.92
887.442	106.34
887.607	104.2
887.773	97.41
887.938	86.92
888.103	103.43
888.269	103.41
888.434	72.14
888.599	61.06
888.764	58.41
888.93	46.69
889.095	20.23
889.26	37.74
889.425	34.77
889.59	59.53
889.756	57.58
889.921	48.69
890.086	46.41
890.251	29.34
890.416	20.07
890.581	-26.18
890.746	28.19
890.911	42.67
891.076	71.78
891.241	83.27
891.406	118.41
891.571	96.7
891.736	65.85
891.901	50.7
892.065	70.18
892.23	74.22
892.395	73.03
892.56	31.51
892.725	65.51
892.889	-6.35
893.054	12.46
893.219	23.99
893.384	50.01
893.548	39.01
893.713	42.29
893.878	29.53
