Data from Ofav_PP_Phys_9GT46_Reflection_3.txt Node
Date: Tue Jul 27 19:03:48 EDT 2021
User: USUARIO
Spectrometer: FLMT01687
Trigger mode: 0
Integration Time (sec): 8.500000E-1
Scans to average: 2
Electric dark correction enabled: true
Nonlinearity correction enabled: false
Boxcar width: 2
XAxis mode: Wavelengths
Number of Pixels in Spectrum: 3648
>>>>>Begin Spectral Data<<<<<
179.494	-399.26
179.716	-223.12
179.937	-136.98
180.158	-95.5
180.38	-112.29
180.601	-190.15
180.823	18.38
181.044	9.43
181.265	49.47
181.486	40.47
181.708	-39.27
181.929	114.93
182.15	55.51
182.372	34.02
182.593	-14.14
182.814	12.25
183.035	31.36
183.257	22.76
183.478	53.36
183.699	60.15
183.92	70.81
184.141	66.72
184.363	66.78
184.584	63.7
184.805	83.41
185.026	75.09
185.247	81.27
185.468	77.22
185.689	53.21
185.91	19.6
186.132	-7.63
186.353	7.15
186.574	15.51
186.795	27.23
187.016	26.7
187.237	41.6
187.458	23.13
187.679	21.93
187.9	8.42
188.121	11.32
188.342	21.55
188.563	40.04
188.784	59.47
189.005	67.78
189.226	75.77
189.447	57.78
189.667	44.71
189.888	35.85
190.109	24
190.33	7.39
190.551	14.66
190.772	13.95
190.993	10.23
191.214	21.44
191.434	16.08
191.655	33.48
191.876	42.18
192.097	29.06
192.318	33.82
192.538	51
192.759	47.52
192.98	49.03
193.201	57.05
193.421	65.41
193.642	46.87
193.863	39
194.083	50.54
194.304	39.13
194.525	27.08
194.745	10.13
194.966	-20.27
195.187	-69.43
195.407	-36.83
195.628	-24.22
195.848	30.25
196.069	45.43
196.29	99.59
196.51	140.03
196.731	116.46
196.951	97.08
197.172	87.93
197.392	65.91
197.613	34.79
197.833	32.55
198.054	27.42
198.274	42.77
198.495	53.58
198.715	80.61
198.936	71.41
199.156	84.16
199.377	85.69
199.597	55.39
199.817	29.13
200.038	-5.87
200.258	-18.18
200.479	-10.92
200.699	4.09
200.919	8.37
201.14	35.85
201.36	22.87
201.58	51.47
201.801	47.32
202.021	39.94
202.241	19.79
202.461	-3.13
202.682	-31.13
202.902	-32.84
203.122	-9.73
203.342	10.47
203.563	54.65
203.783	67.55
204.003	53.93
204.223	44.77
204.443	21.85
204.663	10.19
204.884	10.39
205.104	21.39
205.324	25.86
205.544	28.79
205.764	21.54
205.984	0.31
206.204	-25.94
206.424	-24.45
206.644	13.15
206.864	3.09
207.084	17.31
207.304	31.7
207.525	31.57
207.745	39.55
207.964	44.26
208.184	47.99
208.404	41.58
208.624	36.07
208.844	27.07
209.064	44.83
209.284	46.12
209.504	42.97
209.724	43.3
209.944	35.31
210.164	45.82
210.384	45.22
210.604	63.33
210.823	52.22
211.043	48.46
211.263	38.97
211.483	48.39
211.703	51.03
211.922	40.84
212.142	59.82
212.362	19.38
212.582	-11.18
212.801	9.96
213.021	26.07
213.241	3.52
213.461	4.54
213.68	5.19
213.9	-23.25
214.12	-17.84
214.339	9.75
214.559	22.52
214.779	28.79
214.998	28.24
215.218	10.8
215.438	1.36
215.657	20.2
215.877	23.6
216.096	30.96
216.316	52.99
216.535	57.97
216.755	58.97
216.974	67.09
217.194	65.78
217.413	54.95
217.633	53.5
217.852	46.53
218.072	35.75
218.291	38.36
218.511	47.74
218.73	50.43
218.95	38.89
219.169	43.27
219.389	28.35
219.608	24.07
219.827	16.35
220.047	26.55
220.266	41.06
220.485	46.03
220.705	37.61
220.924	44.24
221.143	46.52
221.363	31.84
221.582	25.43
221.801	35.37
222.021	41.69
222.24	36.41
222.459	33.39
222.678	52.83
222.897	46.71
223.117	35.61
223.336	31.18
223.555	36.05
223.774	22.88
223.993	12.38
224.213	-1.7
224.432	4.38
224.651	18.28
224.87	24.6
225.089	21.93
225.308	33.7
225.527	43.62
225.746	19.45
225.965	26.58
226.184	24.65
226.404	-3.79
226.623	-11.64
226.842	7.49
227.061	-8.71
227.28	1.11
227.499	28.48
227.718	32.16
227.936	25.44
228.155	33.68
228.374	39
228.593	52.25
228.812	39.36
229.031	32.48
229.25	29.41
229.469	10.19
229.688	-53.29
229.907	-48.29
230.125	1.53
230.344	0.09
230.563	14.91
230.782	30.2
231.001	36.29
231.22	37.46
231.438	38.07
231.657	40.88
231.876	46.71
232.095	41.66
232.313	54.42
232.532	59.81
232.751	64.51
232.969	56.63
233.188	70.94
233.407	41.89
233.625	36.14
233.844	15.13
234.063	35.28
234.281	39.73
234.5	44.71
234.719	60.01
234.937	63.73
235.156	24.94
235.374	10.43
235.593	21.66
235.811	16
236.03	25.84
236.249	52.64
236.467	70.2
236.686	57.29
236.904	50.99
237.123	47.5
237.341	45.06
237.559	46.76
237.778	42.73
237.996	43.52
238.215	37.64
238.433	40.02
238.652	21.36
238.87	34.52
239.088	19.07
239.307	34.1
239.525	19.24
239.743	31.29
239.962	10.81
240.18	14.48
240.398	5.84
240.617	14.67
240.835	31.1
241.053	39.83
241.271	50.28
241.49	54.77
241.708	58.38
241.926	40.07
242.144	16.93
242.363	-3.57
242.581	1.01
242.799	-4.03
243.017	-44.29
243.235	-26.28
243.453	11.39
243.672	18.03
243.89	19.99
244.108	35.74
244.326	31.98
244.544	20.25
244.762	18.08
244.98	18.98
245.198	20.38
245.416	24.7
245.634	40.87
245.852	39.76
246.07	46.33
246.288	60.38
246.506	56.76
246.724	47.47
246.942	46.69
247.16	41.11
247.378	32.67
247.596	31.71
247.814	34.15
248.032	15.07
248.25	2.92
248.468	9.81
248.685	-8.86
248.903	-3.08
249.121	17.38
249.339	25.51
249.557	21.74
249.775	24.48
249.992	13.12
250.21	2.57
250.428	6.39
250.646	-6.6
250.863	7.67
251.081	8.29
251.299	23.54
251.517	23.41
251.734	44.06
251.952	34.21
252.17	60.12
252.387	29.08
252.605	56.26
252.823	52.78
253.04	55.86
253.258	51.49
253.475	55.48
253.693	62.74
253.911	56.45
254.128	45.87
254.346	38.36
254.563	49.59
254.781	19.21
254.998	32.22
255.216	21.44
255.433	14.33
255.651	-2.18
255.868	-6.12
256.086	-20.77
256.303	0.88
256.521	25.32
256.738	36.83
256.956	34.64
257.173	37.42
257.39	34.4
257.608	28.58
257.825	31.99
258.043	50.03
258.26	63.57
258.477	57.65
258.695	49.91
258.912	42.48
259.129	42.96
259.346	20.86
259.564	49.09
259.781	64.24
259.998	62.3
260.216	46.66
260.433	45.75
260.65	41.96
260.867	32.1
261.084	38.21
261.302	17.52
261.519	13.33
261.736	15.45
261.953	20.61
262.17	11.48
262.387	22.36
262.604	34.08
262.822	28.28
263.039	26.37
263.256	42.02
263.473	43.96
263.69	37.28
263.907	16.61
264.124	-3.52
264.341	6.57
264.558	16.65
264.775	7.48
264.992	30.17
265.209	38.17
265.426	34.11
265.643	33.39
265.86	44.22
266.077	47.8
266.294	75.25
266.51	72.86
266.727	66.46
266.944	55.08
267.161	51.13
267.378	34.16
267.595	34.95
267.812	51
268.028	63.96
268.245	65.65
268.462	63.95
268.679	74.94
268.896	49.72
269.112	31.93
269.329	37.05
269.546	39.74
269.763	16.21
269.979	21.5
270.196	33
270.413	33
270.629	30.91
270.846	53.82
271.063	38.22
271.279	20.19
271.496	3.46
271.712	-19.46
271.929	-47.97
272.146	-28.08
272.362	14.31
272.579	20.87
272.795	47.56
273.012	47.89
273.228	39.53
273.445	36.54
273.661	35.42
273.878	21.57
274.094	10.4
274.311	10.9
274.527	2.3
274.744	5.95
274.96	-4.35
275.177	12.94
275.393	23.2
275.609	35.8
275.826	30.8
276.042	25.52
276.259	27.21
276.475	17.95
276.691	10.69
276.908	8.65
277.124	12.53
277.34	10.19
277.557	-2.54
277.773	3.28
277.989	13.77
278.205	14.93
278.422	16.39
278.638	18.71
278.854	23.71
279.07	31.92
279.286	43.04
279.503	33.64
279.719	41.34
279.935	54.41
280.151	49.2
280.367	45.65
280.583	54.56
280.799	57.37
281.016	46
281.232	52.54
281.448	54.89
281.664	37.2
281.88	22.73
282.096	26.25
282.312	4.33
282.528	14.55
282.744	28.43
282.96	32.94
283.176	44.53
283.392	59.75
283.608	67.89
283.824	44.37
284.04	13.72
284.256	9.41
284.471	5.9
284.687	-6.31
284.903	1.38
285.119	24.82
285.335	22.93
285.551	9.77
285.767	13.15
285.982	11.71
286.198	22.49
286.414	14.84
286.63	11.91
286.846	5.47
287.061	2.68
287.277	-1.7
287.493	-13.28
287.709	2.12
287.924	7.11
288.14	3.56
288.356	14.59
288.571	30.63
288.787	32.59
289.003	19.69
289.218	34.01
289.434	30.1
289.65	21.97
289.865	-6.35
290.081	8.33
290.296	0.48
290.512	-6.49
290.727	8.37
290.943	18.7
291.159	23.78
291.374	16.68
291.59	16.83
291.805	14.63
292.021	17.61
292.236	19.94
292.451	21.04
292.667	26.83
292.882	9.02
293.098	13.54
293.313	18.6
293.529	35.94
293.744	33.6
293.959	52.98
294.175	54.71
294.39	45.16
294.605	38.18
294.821	41.06
295.036	26.73
295.251	5.4
295.467	-1
295.682	-30.68
295.897	-5.52
296.112	10.74
296.328	12.17
296.543	32.54
296.758	38.94
296.973	25.42
297.188	26.29
297.404	25.76
297.619	24.35
297.834	16.34
298.049	20.36
298.264	24.01
298.479	43.63
298.694	42.96
298.909	50.6
299.125	51.94
299.34	44.88
299.555	42.11
299.77	39.24
299.985	40.62
300.2	35.66
300.415	30.79
300.63	19.66
300.845	28.36
301.06	25.67
301.275	35.43
301.49	30.73
301.704	22.01
301.919	23.03
302.134	32.05
302.349	35.2
302.564	33.66
302.779	28.05
302.994	17.67
303.209	9.05
303.423	2.23
303.638	-3.38
303.853	8.44
304.068	21.17
304.283	15.41
304.497	15.81
304.712	34.49
304.927	35.77
305.142	27.98
305.356	22.21
305.571	28.74
305.786	15.52
306	4.88
306.215	13.44
306.43	15.42
306.644	24.31
306.859	28.98
307.074	39.96
307.288	34.45
307.503	39.37
307.717	30.49
307.932	32.8
308.147	39.12
308.361	45.12
308.576	58.55
308.79	55.89
309.005	37.02
309.219	14.77
309.434	-0.26
309.648	-8.89
309.863	-15.03
310.077	-8.33
310.292	1.97
310.506	-0.4
310.72	3.06
310.935	7.77
311.149	9.93
311.364	13.21
311.578	24.81
311.792	6.06
312.007	16.09
312.221	20.39
312.435	21.15
312.649	24.78
312.864	-9.25
313.078	-26.97
313.292	-55.17
313.507	-46.89
313.721	-28.39
313.935	18.95
314.149	27.48
314.363	31.34
314.578	30.2
314.792	13.79
315.006	28.26
315.22	23.82
315.434	31.9
315.648	47.28
315.862	44.87
316.077	39.65
316.291	45.88
316.505	29.05
316.719	30.92
316.933	50.59
317.147	54.07
317.361	51.51
317.575	45.96
317.789	38.97
318.003	30.94
318.217	26.23
318.431	22.53
318.645	37.27
318.859	49.57
319.073	35.25
319.287	24.08
319.5	20.21
319.714	11.12
319.928	5.59
320.142	10.28
320.356	37.06
320.57	53.55
320.784	63.23
320.997	64.37
321.211	63.51
321.425	53.57
321.639	26.37
321.853	14.58
322.066	7.19
322.28	-6.35
322.494	-14.46
322.707	9.53
322.921	8.32
323.135	9.08
323.349	19.44
323.562	26.87
323.776	17.18
323.989	24.23
324.203	30.4
324.417	30.81
324.63	44.35
324.844	35.21
325.057	32.75
325.271	11.48
325.485	26.82
325.698	20.29
325.912	33.62
326.125	41.79
326.339	52.88
326.552	50.78
326.766	47.58
326.979	38.33
327.193	24.09
327.406	17.72
327.619	6.91
327.833	3.76
328.046	16.49
328.26	24.54
328.473	15.31
328.686	20.26
328.9	25.97
329.113	26.26
329.326	-0.61
329.54	6.23
329.753	-0.69
329.966	1.7
330.179	17.67
330.393	40.47
330.606	20.74
330.819	25.41
331.032	18.7
331.246	7.54
331.459	2.95
331.672	25.79
331.885	19.48
332.098	34.06
332.311	44.26
332.525	38.98
332.738	9.18
332.951	20.12
333.164	2.34
333.377	-12.86
333.59	9.77
333.803	32.21
334.016	23.25
334.229	27.73
334.442	38.08
334.655	38.77
334.868	32.99
335.081	32.54
335.294	39.91
335.507	28.77
335.72	19.89
335.933	22.56
336.146	37.32
336.359	37.61
336.572	46.87
336.785	41.69
336.997	64.53
337.21	61.35
337.423	38.04
337.636	26.41
337.849	32.81
338.062	23.39
338.274	31.39
338.487	50.84
338.7	47.28
338.913	61.13
339.125	65.48
339.338	46.76
339.551	30.3
339.763	23.33
339.976	-4.94
340.189	-5.14
340.402	-7.03
340.614	-2.83
340.827	-2.67
341.039	-11.37
341.252	-13.19
341.465	-14.4
341.677	-20.03
341.89	-14.98
342.102	11.94
342.315	19.99
342.527	29.26
342.74	36.14
342.952	32.08
343.165	40.93
343.377	31.92
343.59	26.4
343.802	19.77
344.015	31.29
344.227	28.18
344.44	11.33
344.652	13.89
344.864	12.84
345.077	10.22
345.289	-7.05
345.502	13.67
345.714	16.31
345.926	26.99
346.139	22.74
346.351	27.91
346.563	14.81
346.775	24.82
346.988	12.52
347.2	5.65
347.412	6.84
347.624	15.51
347.837	-25.3
348.049	-14.56
348.261	-2.51
348.473	-11.83
348.685	5.22
348.897	8.07
349.11	2.14
349.322	-15.56
349.534	3.36
349.746	2.33
349.958	0.21
350.17	13.59
350.382	29.76
350.594	17.03
350.806	21.86
351.018	40.79
351.23	30.21
351.442	24
351.654	49.53
351.866	31.33
352.078	32.73
352.29	32.03
352.502	20.03
352.714	14.78
352.926	20.25
353.138	30.62
353.35	21.12
353.561	25.53
353.773	10.42
353.985	5.4
354.197	-8.03
354.409	5.29
354.621	10.98
354.832	27.11
355.044	27.67
355.256	25.65
355.468	31.67
355.679	45.73
355.891	32.18
356.103	15.01
356.314	31.91
356.526	33.72
356.738	11.39
356.949	17.31
357.161	35.3
357.373	32.71
357.584	30.88
357.796	41.09
358.008	50.95
358.219	51.24
358.431	40.86
358.642	38.39
358.854	38.35
359.065	22.67
359.277	37.52
359.488	40.48
359.7	41.45
359.911	35.33
360.123	50.74
360.334	32.01
360.546	10.37
360.757	14.06
360.969	-3.64
361.18	-14.42
361.391	0.91
361.603	26.34
361.814	20.31
362.025	36.03
362.237	43.71
362.448	28.18
362.659	16.16
362.871	20.25
363.082	15.66
363.293	13.31
363.504	2.22
363.716	7.44
363.927	3.23
364.138	7.32
364.349	9.82
364.56	19.99
364.772	15.05
364.983	11.76
365.194	3.04
365.405	15.13
365.616	15.88
365.827	21.5
366.038	21.7
366.25	27.32
366.461	11.17
366.672	15.02
366.883	18.16
367.094	16.46
367.305	20.56
367.516	9.74
367.727	18.7
367.938	17.34
368.149	19.44
368.36	23.09
368.571	24.06
368.781	20.96
368.992	17.87
369.203	8.31
369.414	8.99
369.625	20.75
369.836	13.93
370.047	12.28
370.258	30.38
370.468	21.74
370.679	19.95
370.89	9.44
371.101	8.17
371.312	4.36
371.522	9.43
371.733	3.54
371.944	9.71
372.155	27.14
372.365	21.23
372.576	19.9
372.787	29.71
372.997	39.06
373.208	28.76
373.419	32.72
373.629	38.75
373.84	36.2
374.05	40.39
374.261	35.75
374.472	36.9
374.682	31.82
374.893	28.88
375.103	22.39
375.314	31.72
375.524	36
375.735	24.61
375.945	23.74
376.156	20.8
376.366	16.2
376.577	3.96
376.787	13.55
376.997	24.66
377.208	29.97
377.418	22.86
377.629	28.82
377.839	28.58
378.049	23.72
378.26	21.34
378.47	32.99
378.68	45.07
378.89	41.04
379.101	28.06
379.311	23.3
379.521	15.17
379.732	10.58
379.942	23.13
380.152	25.63
380.362	32.08
380.572	35.91
380.783	26.33
380.993	21.38
381.203	19.76
381.413	18.02
381.623	19.82
381.833	30.25
382.043	29.79
382.253	32.77
382.463	22
382.674	27.61
382.884	19.18
383.094	6.1
383.304	11.96
383.514	19.08
383.724	8.45
383.934	3.23
384.144	7.85
384.353	7.71
384.563	10.43
384.773	10.32
384.983	12.6
385.193	8.93
385.403	6.31
385.613	6.58
385.823	7.22
386.033	9.26
386.242	18.06
386.452	18.41
386.662	22.92
386.872	24.18
387.082	23.95
387.291	16.28
387.501	15.24
387.711	11.46
387.921	13.12
388.13	11.31
388.34	12.42
388.55	8.95
388.759	4.36
388.969	4.63
389.179	8.45
389.388	11.36
389.598	15.86
389.807	17.25
390.017	14.85
390.227	13.94
390.436	11.37
390.646	8.99
390.855	7.44
391.065	6.19
391.274	4.99
391.484	3.97
391.693	3.45
391.903	5.75
392.112	6.89
392.322	5.9
392.531	7.28
392.74	8.17
392.95	7.65
393.159	6.96
393.369	6.33
393.578	6.01
393.787	4.67
393.997	4.53
394.206	5.7
394.415	6.09
394.625	5.96
394.834	6.43
395.043	6.05
395.252	5.59
395.462	6.47
395.671	6.13
395.88	7.37
396.089	8.59
396.298	8.35
396.508	7.5
396.717	8.91
396.926	7.28
397.135	6.02
397.344	5.88
397.553	6.33
397.762	4.92
397.971	5.64
398.181	6
398.39	5.9
398.599	6.07
398.808	6.42
399.017	6.42
399.226	6.29
399.435	6.72
399.644	6.92
399.853	7.01
400.062	7.04
400.27	6.85
400.479	6.24
400.688	5.95
400.897	6.02
401.106	6.15
401.315	6.52
401.524	7
401.733	6.9
401.941	6.84
402.15	6.63
402.359	6.45
402.568	6.2
402.777	6.15
402.985	6.06
403.194	6.23
403.403	6.23
403.612	6.3
403.82	6.36
404.029	6.62
404.238	6.56
404.446	6.67
404.655	6.75
404.864	6.84
405.072	6.65
405.281	6.53
405.489	6.3
405.698	6.23
405.906	6.11
406.115	5.95
406.324	5.72
406.532	5.73
406.741	5.65
406.949	5.78
407.158	5.89
407.366	5.91
407.574	6.13
407.783	6.11
407.991	5.82
408.2	5.85
408.408	6.04
408.617	5.91
408.825	5.84
409.033	6
409.242	5.9
409.45	5.85
409.658	5.79
409.867	5.86
410.075	5.81
410.283	5.88
410.491	5.73
410.7	5.69
410.908	5.74
411.116	5.68
411.324	5.6
411.533	5.65
411.741	5.61
411.949	5.46
412.157	5.44
412.365	5.64
412.573	5.62
412.781	5.63
412.99	5.62
413.198	5.85
413.406	5.7
413.614	5.77
413.822	5.89
414.03	5.88
414.238	5.63
414.446	5.63
414.654	5.61
414.862	5.56
415.07	5.53
415.278	5.56
415.486	5.41
415.694	5.27
415.902	5.16
416.109	5.32
416.317	5.37
416.525	5.29
416.733	5.31
416.941	5.4
417.149	5.18
417.357	5.19
417.564	5.21
417.772	5.29
417.98	5.27
418.188	5.4
418.395	5.24
418.603	5.31
418.811	5.28
419.019	5.09
419.226	5.15
419.434	5.3
419.642	5.39
419.849	5.39
420.057	5.54
420.265	5.58
420.472	5.5
420.68	5.44
420.887	5.57
421.095	5.5
421.302	5.35
421.51	5.31
421.717	5.31
421.925	5.02
422.132	5.15
422.34	5.08
422.547	5.12
422.755	5.27
422.962	5.22
423.17	5.11
423.377	5.1
423.585	5.08
423.792	4.98
423.999	5.04
424.207	5.04
424.414	5.06
424.621	5.02
424.829	4.92
425.036	5.03
425.243	5.02
425.451	4.85
425.658	4.84
425.865	4.93
426.072	4.89
426.28	4.88
426.487	4.94
426.694	4.86
426.901	4.75
427.108	4.66
427.315	4.57
427.523	4.55
427.73	4.54
427.937	4.56
428.144	4.69
428.351	4.73
428.558	4.9
428.765	4.92
428.972	4.89
429.179	4.83
429.386	4.86
429.593	4.72
429.8	4.65
430.007	4.69
430.214	4.72
430.421	4.77
430.628	4.93
430.835	4.98
431.042	4.82
431.249	4.68
431.456	4.67
431.662	4.71
431.869	4.83
432.076	5.02
432.283	5.07
432.49	5.02
432.697	4.86
432.903	4.91
433.11	5.05
433.317	5.04
433.524	5.13
433.73	5.09
433.937	4.92
434.144	4.82
434.35	4.8
434.557	4.73
434.764	4.75
434.97	4.87
435.177	4.87
435.384	4.72
435.59	4.72
435.797	4.75
436.003	4.64
436.21	4.6
436.416	4.7
436.623	4.68
436.829	4.58
437.036	4.63
437.242	4.54
437.449	4.58
437.655	4.63
437.862	4.81
438.068	4.74
438.275	4.82
438.481	4.84
438.687	4.84
438.894	4.84
439.1	4.87
439.307	4.82
439.513	4.82
439.719	4.84
439.926	4.68
440.132	4.79
440.338	4.76
440.544	4.66
440.751	4.56
440.957	4.67
441.163	4.53
441.369	4.63
441.575	4.65
441.782	4.8
441.988	4.71
442.194	4.74
442.4	4.76
442.606	4.72
442.812	4.61
443.018	4.62
443.224	4.54
443.431	4.34
443.637	4.51
443.843	4.46
444.049	4.52
444.255	4.51
444.461	4.49
444.667	4.35
444.873	4.35
445.079	4.42
445.284	4.5
445.49	4.71
445.696	4.75
445.902	4.79
446.108	4.72
446.314	4.68
446.52	4.64
446.726	4.66
446.931	4.7
447.137	4.66
447.343	4.59
447.549	4.46
447.755	4.43
447.96	4.34
448.166	4.34
448.372	4.42
448.578	4.5
448.783	4.56
448.989	4.6
449.195	4.54
449.4	4.57
449.606	4.6
449.812	4.5
450.017	4.45
450.223	4.48
450.428	4.43
450.634	4.41
450.84	4.43
451.045	4.53
451.251	4.71
451.456	4.81
451.662	4.78
451.867	4.84
452.073	4.8
452.278	4.66
452.483	4.59
452.689	4.73
452.894	4.74
453.1	4.73
453.305	4.73
453.51	4.69
453.716	4.54
453.921	4.55
454.127	4.55
454.332	4.59
454.537	4.64
454.742	4.63
454.948	4.48
455.153	4.54
455.358	4.48
455.563	4.49
455.769	4.5
455.974	4.53
456.179	4.45
456.384	4.41
456.589	4.52
456.795	4.51
457	4.55
457.205	4.43
457.41	4.46
457.615	4.33
457.82	4.24
458.025	4.22
458.23	4.43
458.435	4.44
458.64	4.37
458.845	4.57
459.05	4.61
459.255	4.43
459.46	4.49
459.665	4.6
459.87	4.48
460.075	4.51
460.28	4.62
460.485	4.54
460.69	4.48
460.895	4.58
461.099	4.57
461.304	4.51
461.509	4.55
461.714	4.64
461.919	4.64
462.123	4.61
462.328	4.59
462.533	4.57
462.738	4.44
462.942	4.29
463.147	4.29
463.352	4.34
463.556	4.42
463.761	4.49
463.966	4.56
464.17	4.63
464.375	4.65
464.58	4.6
464.784	4.57
464.989	4.57
465.193	4.57
465.398	4.59
465.602	4.58
465.807	4.6
466.011	4.59
466.216	4.48
466.42	4.51
466.625	4.47
466.829	4.46
467.034	4.56
467.238	4.67
467.443	4.68
467.647	4.72
467.851	4.78
468.056	4.74
468.26	4.71
468.464	4.61
468.669	4.65
468.873	4.61
469.077	4.6
469.282	4.57
469.486	4.6
469.69	4.5
469.894	4.46
470.099	4.4
470.303	4.37
470.507	4.4
470.711	4.58
470.915	4.67
471.119	4.74
471.324	4.74
471.528	4.73
471.732	4.66
471.936	4.66
472.14	4.58
472.344	4.65
472.548	4.62
472.752	4.56
472.956	4.49
473.16	4.68
473.364	4.66
473.568	4.64
473.772	4.64
473.976	4.64
474.18	4.46
474.384	4.39
474.588	4.47
474.792	4.62
474.995	4.6
475.199	4.64
475.403	4.66
475.607	4.64
475.811	4.5
476.015	4.52
476.218	4.51
476.422	4.47
476.626	4.42
476.83	4.43
477.033	4.56
477.237	4.62
477.441	4.71
477.644	4.79
477.848	4.79
478.052	4.69
478.255	4.64
478.459	4.65
478.663	4.63
478.866	4.57
479.07	4.66
479.273	4.73
479.477	4.72
479.681	4.78
479.884	4.83
480.088	4.72
480.291	4.69
480.495	4.68
480.698	4.63
480.901	4.68
481.105	4.73
481.308	4.67
481.512	4.63
481.715	4.59
481.919	4.51
482.122	4.45
482.325	4.49
482.529	4.48
482.732	4.46
482.935	4.43
483.138	4.51
483.342	4.49
483.545	4.55
483.748	4.64
483.952	4.74
484.155	4.68
484.358	4.77
484.561	4.82
484.764	4.74
484.967	4.72
485.171	4.76
485.374	4.75
485.577	4.67
485.78	4.69
485.983	4.67
486.186	4.59
486.389	4.55
486.592	4.55
486.795	4.59
486.998	4.66
487.201	4.66
487.404	4.73
487.607	4.75
487.81	4.77
488.013	4.71
488.216	4.82
488.419	4.68
488.622	4.61
488.825	4.61
489.028	4.62
489.231	4.54
489.433	4.58
489.636	4.63
489.839	4.61
490.042	4.58
490.245	4.58
490.447	4.63
490.65	4.65
490.853	4.59
491.056	4.64
491.258	4.63
491.461	4.62
491.664	4.57
491.866	4.65
492.069	4.66
492.272	4.7
492.474	4.72
492.677	4.79
492.879	4.77
493.082	4.63
493.285	4.62
493.487	4.65
493.69	4.59
493.892	4.62
494.095	4.76
494.297	4.82
494.5	4.83
494.702	4.9
494.905	4.9
495.107	4.88
495.309	4.75
495.512	4.69
495.714	4.71
495.917	4.67
496.119	4.68
496.321	4.77
496.524	4.8
496.726	4.83
496.928	4.87
497.13	4.96
497.333	5
497.535	5.02
497.737	4.94
497.939	5
498.142	4.94
498.344	4.97
498.546	4.98
498.748	5.01
498.95	5
499.152	5.02
499.355	4.96
499.557	4.96
499.759	5.04
499.961	5.06
500.163	5.1
500.365	5.13
500.567	5.12
500.769	5.16
500.971	5.21
501.173	5.24
501.375	5.33
501.577	5.42
501.779	5.41
501.981	5.41
502.183	5.4
502.385	5.39
502.587	5.32
502.788	5.38
502.99	5.39
503.192	5.33
503.394	5.35
503.596	5.45
503.798	5.37
503.999	5.38
504.201	5.44
504.403	5.4
504.605	5.37
504.806	5.4
505.008	5.4
505.21	5.39
505.411	5.39
505.613	5.34
505.815	5.41
506.016	5.43
506.218	5.49
506.42	5.48
506.621	5.58
506.823	5.53
507.024	5.51
507.226	5.52
507.427	5.49
507.629	5.44
507.83	5.41
508.032	5.33
508.233	5.37
508.435	5.38
508.636	5.41
508.838	5.44
509.039	5.51
509.24	5.42
509.442	5.44
509.643	5.39
509.845	5.38
510.046	5.39
510.247	5.44
510.448	5.48
510.65	5.49
510.851	5.47
511.052	5.42
511.254	5.46
511.455	5.44
511.656	5.43
511.857	5.45
512.058	5.47
512.26	5.44
512.461	5.5
512.662	5.47
512.863	5.41
513.064	5.37
513.265	5.35
513.466	5.33
513.667	5.38
513.868	5.43
514.069	5.48
514.27	5.46
514.471	5.43
514.672	5.41
514.873	5.51
515.074	5.49
515.275	5.5
515.476	5.48
515.677	5.47
515.878	5.38
516.079	5.36
516.28	5.34
516.481	5.37
516.682	5.42
516.882	5.4
517.083	5.42
517.284	5.47
517.485	5.42
517.686	5.4
517.886	5.4
518.087	5.41
518.288	5.36
518.488	5.4
518.689	5.41
518.89	5.42
519.091	5.48
519.291	5.54
519.492	5.53
519.692	5.5
519.893	5.52
520.094	5.46
520.294	5.47
520.495	5.49
520.695	5.54
520.896	5.52
521.096	5.52
521.297	5.5
521.497	5.49
521.698	5.39
521.898	5.42
522.099	5.49
522.299	5.49
522.499	5.48
522.7	5.52
522.9	5.55
523.101	5.48
523.301	5.5
523.501	5.54
523.702	5.56
523.902	5.51
524.102	5.56
524.302	5.54
524.503	5.53
524.703	5.62
524.903	5.65
525.103	5.61
525.304	5.64
525.504	5.61
525.704	5.56
525.904	5.58
526.104	5.55
526.304	5.5
526.504	5.52
526.705	5.52
526.905	5.5
527.105	5.56
527.305	5.56
527.505	5.55
527.705	5.53
527.905	5.51
528.105	5.49
528.305	5.5
528.505	5.49
528.705	5.52
528.905	5.56
529.105	5.6
529.304	5.62
529.504	5.69
529.704	5.67
529.904	5.68
530.104	5.65
530.304	5.65
530.503	5.66
530.703	5.69
530.903	5.72
531.103	5.76
531.303	5.77
531.502	5.75
531.702	5.74
531.902	5.67
532.101	5.68
532.301	5.73
532.501	5.7
532.7	5.74
532.9	5.77
533.1	5.81
533.299	5.84
533.499	5.92
533.698	5.87
533.898	5.88
534.097	5.84
534.297	5.76
534.496	5.71
534.696	5.74
534.895	5.75
535.095	5.79
535.294	5.85
535.494	5.86
535.693	5.93
535.892	5.9
536.092	5.9
536.291	5.88
536.491	5.89
536.69	5.9
536.889	5.96
537.088	5.99
537.288	6.01
537.487	6.01
537.686	5.98
537.886	6.04
538.085	6.05
538.284	6.03
538.483	6.09
538.682	6.1
538.882	6.08
539.081	6.07
539.28	6.12
539.479	6.11
539.678	6.13
539.877	6.15
540.076	6.14
540.275	6.15
540.474	6.14
540.673	6.15
540.872	6.18
541.071	6.24
541.27	6.3
541.469	6.34
541.668	6.35
541.867	6.34
542.066	6.34
542.265	6.44
542.464	6.47
542.663	6.54
542.862	6.57
543.06	6.59
543.259	6.57
543.458	6.57
543.657	6.59
543.856	6.69
544.054	6.7
544.253	6.68
544.452	6.72
544.651	6.75
544.849	6.68
545.048	6.76
545.247	6.8
545.445	6.83
545.644	6.81
545.843	6.86
546.041	6.84
546.24	6.88
546.438	6.9
546.637	6.97
546.836	6.97
547.034	7.01
547.233	7.12
547.431	7.17
547.63	7.21
547.828	7.32
548.027	7.36
548.225	7.32
548.423	7.37
548.622	7.36
548.82	7.39
549.019	7.46
549.217	7.45
549.415	7.41
549.614	7.5
549.812	7.51
550.01	7.48
550.209	7.59
550.407	7.72
550.605	7.69
550.803	7.69
551.002	7.72
551.2	7.73
551.398	7.76
551.596	7.9
551.794	7.95
551.993	8
552.191	8
552.389	8.05
552.587	8.09
552.785	8.13
552.983	8.19
553.181	8.26
553.379	8.3
553.577	8.33
553.775	8.44
553.973	8.51
554.171	8.55
554.369	8.62
554.567	8.66
554.765	8.66
554.963	8.67
555.161	8.73
555.359	8.71
555.557	8.8
555.755	8.9
555.952	8.95
556.15	9
556.348	9.03
556.546	8.97
556.744	9.03
556.941	9.07
557.139	9.14
557.337	9.23
557.535	9.37
557.732	9.36
557.93	9.4
558.128	9.42
558.325	9.49
558.523	9.46
558.721	9.54
558.918	9.57
559.116	9.67
559.313	9.7
559.511	9.79
559.708	9.83
559.906	9.96
560.104	9.99
560.301	10
560.498	10.03
560.696	10
560.893	9.98
561.091	10.03
561.288	10.19
561.486	10.19
561.683	10.24
561.88	10.31
562.078	10.34
562.275	10.27
562.473	10.4
562.67	10.48
562.867	10.54
563.064	10.58
563.262	10.6
563.459	10.64
563.656	10.64
563.853	10.75
564.051	10.81
564.248	10.84
564.445	10.9
564.642	10.96
564.839	10.96
565.036	10.96
565.234	11.03
565.431	11.04
565.628	11.11
565.825	11.09
566.022	11.2
566.219	11.3
566.416	11.3
566.613	11.32
566.81	11.37
567.007	11.38
567.204	11.38
567.401	11.47
567.598	11.59
567.795	11.66
567.991	11.66
568.188	11.71
568.385	11.74
568.582	11.82
568.779	11.94
568.976	12.04
569.172	12.13
569.369	12.17
569.566	12.08
569.763	12.03
569.96	12.09
570.156	12.1
570.353	12.2
570.55	12.29
570.746	12.39
570.943	12.42
571.14	12.49
571.336	12.56
571.533	12.52
571.729	12.55
571.926	12.59
572.123	12.58
572.319	12.6
572.516	12.76
572.712	12.87
572.909	12.86
573.105	12.94
573.302	12.99
573.498	13.02
573.695	13.04
573.891	13.08
574.087	13.07
574.284	13.14
574.48	13.27
574.677	13.3
574.873	13.4
575.069	13.52
575.266	13.49
575.462	13.48
575.658	13.51
575.854	13.6
576.051	13.6
576.247	13.65
576.443	13.69
576.639	13.79
576.835	13.75
577.032	13.74
577.228	13.89
577.424	13.96
577.62	14.05
577.816	14.13
578.012	14.16
578.208	14.12
578.404	14.1
578.6	14.07
578.796	14.04
578.993	14.2
579.189	14.16
579.384	14.19
579.58	14.19
579.776	14.24
579.972	14.24
580.168	14.25
580.364	14.25
580.56	14.25
580.756	14.32
580.952	14.23
581.148	14.3
581.343	14.36
581.539	14.29
581.735	14.27
581.931	14.32
582.127	14.33
582.322	14.26
582.518	14.26
582.714	14.25
582.909	14.28
583.105	14.26
583.301	14.33
583.496	14.4
583.692	14.45
583.888	14.49
584.083	14.46
584.279	14.46
584.474	14.43
584.67	14.32
584.866	14.27
585.061	14.37
585.257	14.39
585.452	14.48
585.648	14.54
585.843	14.45
586.039	14.46
586.234	14.38
586.429	14.31
586.625	14.3
586.82	14.39
587.015	14.36
587.211	14.38
587.406	14.44
587.601	14.49
587.797	14.53
587.992	14.54
588.187	14.52
588.383	14.5
588.578	14.55
588.773	14.49
588.968	14.54
589.163	14.61
589.359	14.65
589.554	14.53
589.749	14.58
589.944	14.56
590.139	14.66
590.334	14.69
590.529	14.88
590.724	14.9
590.919	14.96
591.114	14.92
591.309	14.9
591.504	14.84
591.699	14.93
591.894	14.86
592.089	14.86
592.284	14.94
592.479	14.95
592.674	14.93
592.869	15.08
593.064	15.15
593.259	15.23
593.454	15.32
593.648	15.33
593.843	15.3
594.038	15.4
594.233	15.39
594.428	15.47
594.622	15.49
594.817	15.59
595.012	15.58
595.206	15.65
595.401	15.65
595.596	15.69
595.79	15.68
595.985	15.77
596.18	15.81
596.374	15.94
596.569	16.04
596.763	16.12
596.958	16.13
597.153	16.09
597.347	16.1
597.542	16.27
597.736	16.31
597.931	16.31
598.125	16.51
598.319	16.55
598.514	16.54
598.708	16.52
598.903	16.61
599.097	16.68
599.291	16.71
599.486	16.69
599.68	16.81
599.874	16.89
600.069	16.88
600.263	16.88
600.457	16.99
600.651	16.95
600.846	16.98
601.04	17.01
601.234	17.03
601.428	17.01
601.622	17.1
601.817	16.99
602.011	16.92
602.205	16.99
602.399	17.04
602.593	17.1
602.787	17.18
602.981	17.22
603.175	17.32
603.369	17.25
603.563	17.19
603.757	17.15
603.951	17.1
604.145	16.86
604.339	16.84
604.533	16.83
604.727	16.77
604.921	16.78
605.115	16.81
605.309	16.82
605.502	16.83
605.696	16.86
605.89	16.86
606.084	16.95
606.278	16.86
606.471	16.74
606.665	16.6
606.859	16.51
607.053	16.4
607.246	16.31
607.44	16.28
607.634	16.34
607.827	16.24
608.021	16.11
608.214	16.07
608.408	16.02
608.602	15.97
608.795	15.99
608.989	15.98
609.182	15.97
609.376	15.89
609.569	15.73
609.763	15.61
609.956	15.63
610.15	15.61
610.343	15.54
610.537	15.49
610.73	15.43
610.923	15.4
611.117	15.31
611.31	15.23
611.504	15.27
611.697	15.17
611.89	15
612.083	14.86
612.277	14.87
612.47	14.77
612.663	14.78
612.856	14.62
613.05	14.58
613.243	14.46
613.436	14.31
613.629	14.21
613.822	14.18
614.015	14.18
614.209	14.07
614.402	14.04
614.595	13.95
614.788	13.96
614.981	13.94
615.174	13.93
615.367	13.87
615.56	13.74
615.753	13.62
615.946	13.45
616.139	13.47
616.332	13.43
616.525	13.42
616.718	13.43
616.911	13.46
617.103	13.34
617.296	13.28
617.489	13.29
617.682	13.2
617.875	13.1
618.067	13
618.26	12.96
618.453	12.87
618.646	12.78
618.838	12.8
619.031	12.8
619.224	12.85
619.417	12.91
619.609	12.97
619.802	12.88
619.994	12.86
620.187	12.71
620.38	12.59
620.572	12.56
620.765	12.49
620.957	12.43
621.15	12.44
621.342	12.43
621.535	12.44
621.727	12.46
621.92	12.43
622.112	12.45
622.305	12.43
622.497	12.32
622.69	12.24
622.882	12.25
623.074	12.26
623.267	12.24
623.459	12.18
623.651	12.11
623.844	12.14
624.036	12.12
624.228	12.15
624.42	12.14
624.613	12.18
624.805	12.06
624.997	12.02
625.189	11.91
625.381	11.99
625.574	11.95
625.766	12.03
625.958	11.95
626.15	11.95
626.342	11.86
626.534	11.87
626.726	11.79
626.918	11.74
627.11	11.81
627.302	11.83
627.494	11.83
627.686	11.84
627.878	11.9
628.07	11.78
628.262	11.69
628.454	11.64
628.646	11.55
628.838	11.53
629.029	11.56
629.221	11.59
629.413	11.58
629.605	11.58
629.797	11.54
629.989	11.45
630.18	11.41
630.372	11.39
630.564	11.38
630.755	11.37
630.947	11.36
631.139	11.35
631.33	11.29
631.522	11.26
631.714	11.19
631.905	11.15
632.097	11.12
632.289	11.08
632.48	11.03
632.672	11.01
632.863	11.01
633.055	10.93
633.246	11.05
633.438	11.12
633.629	11.05
633.821	11.04
634.012	11.1
634.203	11.04
634.395	11.01
634.586	11.17
634.777	11.16
634.969	11.12
635.16	11.06
635.351	11
635.543	10.95
635.734	10.95
635.925	10.96
636.117	10.94
636.308	10.99
636.499	10.93
636.69	10.95
636.881	10.96
637.073	11.05
637.264	11.01
637.455	11.03
637.646	11.02
637.837	10.93
638.028	10.81
638.219	10.86
638.41	10.9
638.601	10.9
638.792	10.92
638.983	11.02
639.174	10.95
639.365	10.93
639.556	10.9
639.747	10.92
639.938	10.89
640.129	10.89
640.32	10.87
640.511	10.88
640.701	10.86
640.892	10.85
641.083	10.87
641.274	10.85
641.465	10.82
641.655	10.83
641.846	10.82
642.037	10.72
642.228	10.71
642.418	10.67
642.609	10.59
642.8	10.55
642.99	10.61
643.181	10.63
643.372	10.71
643.562	10.78
643.753	10.77
643.943	10.73
644.134	10.63
644.324	10.53
644.515	10.54
644.705	10.49
644.896	10.46
645.086	10.49
645.277	10.56
645.467	10.48
645.658	10.48
645.848	10.49
646.038	10.48
646.229	10.48
646.419	10.52
646.61	10.52
646.8	10.51
646.99	10.51
647.18	10.47
647.371	10.38
647.561	10.31
647.751	10.32
647.941	10.3
648.132	10.29
648.322	10.32
648.512	10.36
648.702	10.36
648.892	10.29
649.082	10.27
649.272	10.18
649.462	10.21
649.653	10.13
649.843	10.12
650.033	10.06
650.223	10.06
650.413	9.89
650.603	9.88
650.793	9.83
650.983	9.82
651.172	9.84
651.362	9.87
651.552	9.76
651.742	9.76
651.932	9.72
652.122	9.7
652.312	9.66
652.502	9.59
652.691	9.58
652.881	9.56
653.071	9.47
653.261	9.45
653.45	9.52
653.64	9.51
653.83	9.36
654.019	9.3
654.209	9.28
654.399	9.21
654.588	9.02
654.778	8.9
654.968	8.85
655.157	8.73
655.347	8.65
655.536	8.61
655.726	8.63
655.915	8.58
656.105	8.44
656.294	8.4
656.484	8.32
656.673	8.26
656.863	8.13
657.052	8.07
657.241	7.86
657.431	7.7
657.62	7.54
657.809	7.28
657.999	7.24
658.188	7.21
658.377	7.2
658.567	7.15
658.756	7.21
658.945	7.17
659.134	7.05
659.324	6.98
659.513	6.92
659.702	6.75
659.891	6.58
660.08	6.48
660.269	6.33
660.458	6.17
660.648	6.17
660.837	6.13
661.026	6.15
661.215	6.1
661.404	6.04
661.593	5.87
661.782	5.67
661.971	5.55
662.16	5.5
662.349	5.37
662.538	5.33
662.726	5.36
662.915	5.25
663.104	5.15
663.293	5.08
663.482	5.02
663.671	5
663.86	4.96
664.048	4.84
664.237	4.84
664.426	4.84
664.615	4.8
664.803	4.65
664.992	4.69
665.181	4.73
665.369	4.65
665.558	4.64
665.747	4.75
665.935	4.8
666.124	4.77
666.312	4.72
666.501	4.71
666.69	4.71
666.878	4.66
667.067	4.5
667.255	4.58
667.444	4.63
667.632	4.64
667.82	4.63
668.009	4.69
668.197	4.67
668.386	4.59
668.574	4.53
668.762	4.43
668.951	4.56
669.139	4.67
669.327	4.63
669.516	4.75
669.704	4.88
669.892	4.85
670.08	4.77
670.269	4.79
670.457	4.66
670.645	4.66
670.833	4.65
671.021	4.66
671.21	4.62
671.398	4.67
671.586	4.67
671.774	4.69
671.962	4.68
672.15	4.75
672.338	4.78
672.526	4.87
672.714	5.04
672.902	5.07
673.09	5.16
673.278	5.19
673.466	5.19
673.654	5.2
673.842	5.29
674.03	5.27
674.218	5.32
674.405	5.44
674.593	5.41
674.781	5.45
674.969	5.46
675.157	5.45
675.344	5.4
675.532	5.41
675.72	5.44
675.908	5.57
676.095	5.66
676.283	5.71
676.471	5.85
676.658	5.93
676.846	5.94
677.033	6.01
677.221	6
677.409	5.98
677.596	5.97
677.784	6.17
677.971	6.1
678.159	6.26
678.346	6.18
678.534	6.25
678.721	6.22
678.909	6.42
679.096	6.35
679.283	6.55
679.471	6.48
679.658	6.49
679.846	6.48
680.033	6.58
680.22	6.55
680.408	6.62
680.595	6.63
680.782	6.71
680.969	6.78
681.157	6.9
681.344	6.93
681.531	7
681.718	7
681.905	7
682.093	7.03
682.28	7.1
682.467	7.38
682.654	7.34
682.841	7.43
683.028	7.35
683.215	7.51
683.402	7.28
683.589	7.53
683.776	7.61
683.963	7.83
684.15	7.95
684.337	8.18
684.524	8.29
684.711	8.4
684.898	8.46
685.085	8.48
685.271	8.62
685.458	8.63
685.645	8.69
685.832	8.81
686.019	8.89
686.205	8.96
686.392	9.16
686.579	9.24
686.766	9.55
686.952	9.6
687.139	9.65
687.326	9.79
687.512	9.99
687.699	9.97
687.886	10.37
688.072	10.61
688.259	10.73
688.445	10.93
688.632	11.17
688.818	11.41
689.005	11.5
689.191	11.75
689.378	12.03
689.564	12.49
689.751	12.62
689.937	13.16
690.124	13.42
690.31	13.74
690.496	13.95
690.683	14.36
690.869	14.5
691.055	15
691.242	15.39
691.428	15.67
691.614	16.02
691.8	16.4
691.987	16.76
692.173	17.22
692.359	17.81
692.545	18.26
692.731	18.82
692.918	19.15
693.104	19.46
693.29	19.94
693.476	20.34
693.662	20.87
693.848	21.56
694.034	22.04
694.22	22.35
694.406	22.83
694.592	23.22
694.778	23.57
694.964	24.18
695.15	24.72
695.336	25.11
695.522	25.8
695.708	26.52
695.894	26.95
696.08	27.52
696.265	28.43
696.451	29.05
696.637	29.48
696.823	30
697.009	30.67
697.194	31.25
697.38	31.87
697.566	32.52
697.751	33.48
697.937	34.13
698.123	34.51
698.308	34.98
698.494	35.58
698.68	35.89
698.865	36.36
699.051	36.94
699.236	37.64
699.422	38.1
699.607	38.82
699.793	39.38
699.978	40.02
700.164	40.39
700.349	40.82
700.535	41.2
700.72	41.8
700.906	42.45
701.091	43.12
701.276	43.81
701.462	44.67
701.647	45.37
701.832	46.06
702.018	46.56
702.203	47.06
702.388	47.43
702.573	47.86
702.759	48.46
702.944	49.13
703.129	50.1
703.314	50.92
703.499	51.54
703.684	52
703.87	52.54
704.055	52.85
704.24	53.12
704.425	53.69
704.61	54.16
704.795	54.53
704.98	55.09
705.165	55.74
705.35	56.16
705.535	56.86
705.72	57.54
705.905	58.19
706.09	58.68
706.275	59.31
706.459	59.79
706.644	60.05
706.829	60.34
707.014	60.75
707.199	60.73
707.384	60.81
707.568	61.59
707.753	62.08
707.938	62.41
708.123	62.91
708.307	63.13
708.492	63.52
708.677	64.03
708.861	64.67
709.046	65.45
709.231	66.32
709.415	66.1
709.6	66.2
709.784	66.17
709.969	66.24
710.153	66.24
710.338	67.04
710.522	67.89
710.707	68.04
710.891	68.66
711.076	69.23
711.26	69.37
711.445	69.46
711.629	70.26
711.813	70.6
711.998	70.8
712.182	71.12
712.366	71.67
712.551	71.75
712.735	71.76
712.919	72.17
713.103	72.56
713.288	72.25
713.472	72.49
713.656	72.74
713.84	73.05
714.024	73.53
714.208	73.91
714.393	74.46
714.577	74.77
714.761	75.02
714.945	75.2
715.129	75.19
715.313	74.75
715.497	75.59
715.681	75.72
715.865	75.74
716.049	76.43
716.233	77.33
716.417	77.3
716.601	77.38
716.785	77.68
716.968	77.75
717.152	78.21
717.336	78.52
717.52	78.63
717.704	78.71
717.888	79.14
718.071	78.79
718.255	78.62
718.439	78.57
718.622	78.57
718.806	78.33
718.99	78.5
719.174	78.62
719.357	78.99
719.541	79.59
719.724	79.84
719.908	80.21
720.092	80.28
720.275	81.15
720.459	80.69
720.642	81.1
720.826	81.49
721.009	81.7
721.193	81.43
721.376	82.29
721.559	82.21
721.743	82.25
721.926	82.37
722.11	82.34
722.293	82.29
722.476	82.53
722.66	82.59
722.843	83.28
723.026	83.75
723.21	83.55
723.393	82.86
723.576	83.2
723.759	82.89
723.942	83.22
724.126	83.9
724.309	85.39
724.492	85.32
724.675	85.18
724.858	84.81
725.041	84.34
725.224	84.14
725.407	83.74
725.59	84.47
725.774	84.52
725.957	84.94
726.14	85.15
726.322	85.72
726.505	85.63
726.688	86.29
726.871	86.28
727.054	86.57
727.237	86.33
727.42	86.28
727.603	85.62
727.786	85.71
727.968	84.85
728.151	85.26
728.334	85.86
728.517	86.33
728.699	86.51
728.882	86.93
729.065	87.48
729.248	87.46
729.43	88.06
729.613	89.32
729.796	89.03
729.978	89.33
730.161	88.97
730.343	88.29
730.526	88.08
730.708	88.98
730.891	88.95
731.073	89.33
731.256	90.63
731.438	89.83
731.621	90.24
731.803	90.08
731.986	90.65
732.168	89.82
732.35	89.9
732.533	89.56
732.715	89.94
732.898	89.65
733.08	90.73
733.262	91.22
733.444	90.99
733.627	90.96
733.809	90.97
733.991	90.62
734.173	91.32
734.355	92.17
734.538	92.71
734.72	92.78
734.902	92.97
735.084	92.45
735.266	91.99
735.448	91.76
735.63	92.48
735.812	92.47
735.994	91.38
736.176	91.1
736.358	91.31
736.54	90.69
736.722	91.54
736.904	93.3
737.086	94.03
737.268	94.04
737.45	94.16
737.632	93.63
737.814	92.21
737.995	93.08
738.177	92.06
738.359	92.64
738.541	92
738.723	92.61
738.904	92.12
739.086	93.03
739.268	92.99
739.449	92.81
739.631	93.01
739.813	92.72
739.994	92.47
740.176	92.26
740.358	93.32
740.539	94.03
740.721	94.65
740.902	94.79
741.084	94.44
741.265	94.13
741.447	94.29
741.628	93.45
741.81	93.57
741.991	93.62
742.172	93.99
742.354	93.97
742.535	94.97
742.717	95.29
742.898	95.59
743.079	94.89
743.261	94.47
743.442	93.37
743.623	92.37
743.804	92.08
743.986	91.9
744.167	91.98
744.348	91.83
744.529	92.51
744.71	92.92
744.891	93.45
745.073	93.4
745.254	94.43
745.435	94.22
745.616	94.38
745.797	94.14
745.978	94.13
746.159	94.62
746.34	94.41
746.521	93.64
746.702	93.49
746.883	92.88
747.064	91.29
747.245	92.22
747.426	91.85
747.606	91.74
747.787	92.8
747.968	93.06
748.149	93.09
748.33	93.14
748.51	93.94
748.691	92.38
748.872	92.74
749.053	93.12
749.233	93.05
749.414	92.25
749.595	92.83
749.775	93.39
749.956	92.64
750.137	92.81
750.317	92.39
750.498	93.57
750.678	93.55
750.859	93.68
751.04	93.68
751.22	94.6
751.4	93.51
751.581	92.93
751.761	92.57
751.942	92.84
752.122	93.25
752.303	92.79
752.483	92.52
752.663	91.66
752.844	91.16
753.024	90.34
753.204	90.51
753.385	91.18
753.565	92.53
753.745	94.39
753.925	94.4
754.106	95.09
754.286	94.07
754.466	93.28
754.646	92.73
754.826	91.96
755.006	91.61
755.187	93.3
755.367	93.04
755.547	92.03
755.727	92.61
755.907	91.7
756.087	91.45
756.267	90.88
756.447	92.12
756.627	92.93
756.807	93.56
756.987	91.15
757.167	91.73
757.346	91.72
757.526	89.63
757.706	90
757.886	90.12
758.066	91.41
758.246	90.84
758.425	92.22
758.605	92.15
758.785	94.01
758.965	94.04
759.144	95.98
759.324	95.94
759.504	96.34
759.683	95.88
759.863	95.21
760.043	94.38
760.222	94.08
760.402	93.35
760.581	94.45
760.761	93.77
760.94	92.81
761.12	92.46
761.299	91.44
761.479	90.84
761.658	90.33
761.838	89.3
762.017	90.36
762.197	90.23
762.376	90.51
762.555	90.89
762.735	92.42
762.914	90.69
763.093	90.95
763.273	90.18
763.452	89.16
763.631	86.54
763.81	89.31
763.99	92.37
764.169	94.34
764.348	95.79
764.527	96.78
764.706	92.19
764.885	90.56
765.064	89.6
765.243	89.88
765.423	90.84
765.602	92.8
765.781	93.23
765.96	91.84
766.139	92.51
766.318	92.02
766.497	93.4
766.676	92.86
766.854	93.79
767.033	92.91
767.212	92.99
767.391	91.4
767.57	91.87
767.749	90.15
767.928	92.06
768.106	91.85
768.285	91.48
768.464	90.5
768.643	92.27
768.821	90.27
769	90.93
769.179	92.72
769.357	92.33
769.536	91.08
769.715	89.95
769.893	90.99
770.072	89.54
770.25	90.2
770.429	91.01
770.607	88.96
770.786	88.24
770.964	87.43
771.143	85.91
771.321	85.13
771.5	87.55
771.678	87.54
771.857	87.71
772.035	91.56
772.213	91.34
772.392	91.56
772.57	91.27
772.748	92.61
772.927	90.99
773.105	91.97
773.283	91.75
773.461	91.51
773.64	90.05
773.818	90.12
773.996	88.32
774.174	87.99
774.352	84.97
774.531	86.61
774.709	86.81
774.887	88.1
775.065	89.87
775.243	93.26
775.421	91.56
775.599	89.14
775.777	88.77
775.955	86.84
776.133	87.36
776.311	90.02
776.489	91.27
776.667	92.25
776.844	93.43
777.022	91.99
777.2	91.51
777.378	90.47
777.556	89.64
777.734	87.49
777.911	88.11
778.089	87.93
778.267	89.03
778.445	88.53
778.622	89.43
778.8	89.87
778.978	88.55
779.155	87.79
779.333	84.21
779.511	81.84
779.688	79.84
779.866	79.76
780.043	79.8
780.221	83.17
780.398	84.14
780.576	86.35
780.753	86.64
780.931	85.96
781.108	86.19
781.286	86.77
781.463	84.83
781.64	86.39
781.818	86
781.995	85.16
782.172	85.33
782.35	86.22
782.527	87.09
782.704	86.67
782.882	88.04
783.059	87.57
783.236	83.95
783.413	82.21
783.59	82.11
783.768	81.27
783.945	84.36
784.122	87.42
784.299	88.74
784.476	88.91
784.653	87.74
784.83	85.37
785.007	86.44
785.184	84.38
785.361	87.05
785.538	88.43
785.715	86.56
785.892	84.38
786.069	84.45
786.246	81.97
786.423	80.87
786.6	83.67
786.776	86.36
786.953	87.29
787.13	86.29
787.307	87.46
787.484	89.62
787.66	87.56
787.837	86.71
788.014	88.67
788.191	84.91
788.367	82.3
788.544	84.23
788.721	78.3
788.897	76.2
789.074	77.95
789.25	75.57
789.427	72.87
789.603	77.35
789.78	75.84
789.956	76.85
790.133	78.24
790.309	81.43
790.486	82.05
790.662	87.12
790.839	88.41
791.015	88.4
791.192	86.52
791.368	91.24
791.544	87.93
791.721	86.93
791.897	85.58
792.073	85.52
792.249	80.58
792.426	82.92
792.602	79.55
792.778	82.12
792.954	85.5
793.13	86.12
793.307	85.23
793.483	86.74
793.659	84.42
793.835	78.5
794.011	80.24
794.187	75.58
794.363	77.69
794.539	74.47
794.715	76.56
794.891	77.4
795.067	77.81
795.243	76.12
795.419	81.55
795.595	82.55
795.771	83.5
795.947	86.36
796.122	86.21
796.298	86.04
796.474	84.57
796.65	80.85
796.826	86.51
797.001	89.83
797.177	85.54
797.353	83.02
797.529	81.07
797.704	73.67
797.88	71.58
798.056	74.98
798.231	80.31
798.407	83.5
798.582	84.77
798.758	83.49
798.934	84.87
799.109	80.04
799.285	78.82
799.46	84.8
799.636	88.47
799.811	84.02
799.986	84.43
800.162	84.19
800.337	79.24
800.513	74.56
800.688	78.31
800.863	78.41
801.039	83.63
801.214	84.65
801.389	85.72
801.565	75.72
801.74	76.82
801.915	78.18
802.09	75.59
802.265	82.47
802.441	89.39
802.616	83.49
802.791	73.96
802.966	74.37
803.141	68.75
803.316	67.21
803.491	72.28
803.666	77.86
803.841	79.31
804.016	80.07
804.191	80.77
804.366	89.13
804.541	91.15
804.716	85.68
804.891	86.18
805.066	93.84
805.241	79.1
805.416	75.81
805.591	76.98
805.765	76.8
805.94	76.66
806.115	77.67
806.29	78.79
806.464	83.25
806.639	80.9
806.814	71.53
806.989	71.6
807.163	65.21
807.338	62.48
807.512	61.93
807.687	71.58
807.862	69.89
808.036	73.26
808.211	75.83
808.385	74.87
808.56	66.19
808.734	66.53
808.909	70.02
809.083	67.29
809.258	69.17
809.432	80.77
809.606	79.95
809.781	67.4
809.955	73.64
810.13	71.97
810.304	62.46
810.478	64.61
810.652	74.57
810.827	72.73
811.001	80.82
811.175	85.27
811.349	90.76
811.524	78.89
811.698	71.45
811.872	71.9
812.046	70.94
812.22	63.48
812.394	71.73
812.568	77.62
812.742	74.17
812.916	79.15
813.09	75.31
813.264	79.99
813.438	80
813.612	79.87
813.786	67.37
813.96	71.4
814.134	66.66
814.308	72.97
814.482	71.41
814.656	77.4
814.83	87.25
815.003	96.71
815.177	90.05
815.351	98.27
815.525	100.63
815.698	102.69
815.872	94.7
816.046	93.81
816.219	80.25
816.393	85.91
816.567	79.29
816.74	78.47
816.914	75.62
817.088	75.81
817.261	74.33
817.435	80.39
817.608	90.32
817.782	88.83
817.955	101.74
818.129	101.4
818.302	95.21
818.475	88.39
818.649	100.58
818.822	93.52
818.996	84.57
819.169	82.62
819.342	75.88
819.516	67.05
819.689	65.87
819.862	71.23
820.035	67.58
820.209	67.89
820.382	75.28
820.555	85.89
820.728	90.03
820.901	88.47
821.075	96.62
821.248	108.95
821.421	96.86
821.594	89.86
821.767	97.67
821.94	94.91
822.113	71.6
822.286	74.27
822.459	71.89
822.632	66.84
822.805	66.75
822.978	70.18
823.151	65.84
823.324	71
823.496	70.54
823.669	60.95
823.842	62.25
824.015	64.45
824.188	52.4
824.361	60.88
824.533	78.96
824.706	69.56
824.879	73.76
825.051	84.43
825.224	72.49
825.397	71.81
825.569	85.16
825.742	73.67
825.915	72.9
826.087	78.45
826.26	77.59
826.432	84.28
826.605	89.23
826.777	74.17
826.95	66.94
827.122	62.44
827.295	48.39
827.467	56.43
827.64	54.37
827.812	54.97
827.984	47.69
828.157	49.54
828.329	46.04
828.501	59.15
828.674	63.47
828.846	80.24
829.018	84.55
829.19	77.32
829.363	66.34
829.535	73.2
829.707	67.4
829.879	69.72
830.051	69.54
830.223	82.29
830.395	68.54
830.568	56.86
830.74	54.92
830.912	53.82
831.084	57.35
831.256	64.15
831.428	64.71
831.6	70.78
831.772	79.47
831.943	77.93
832.115	77.23
832.287	73.01
832.459	58.01
832.631	56.52
832.803	62.56
832.975	63.16
833.146	68.41
833.318	76.13
833.49	91.26
833.662	78.45
833.833	69.61
834.005	69.72
834.177	82.2
834.348	70.7
834.52	59.52
834.692	62.18
834.863	63.56
835.035	65.22
835.206	57.97
835.378	59.73
835.549	55.91
835.721	57.73
835.892	56.38
836.064	65.97
836.235	74.95
836.407	84.07
836.578	89.57
836.749	72.93
836.921	54.03
837.092	62.66
837.264	58.25
837.435	56.32
837.606	64.2
837.777	72.26
837.949	60.61
838.12	70.21
838.291	74.41
838.462	79.93
838.633	112.72
838.805	127.91
838.976	108.27
839.147	101.64
839.318	92.88
839.489	79.26
839.66	81.81
839.831	123.38
840.002	127.92
840.173	170.19
840.344	142.87
840.515	138.09
840.686	109.37
840.857	115.45
841.028	102.8
841.199	94.94
841.369	63.56
841.54	57.09
841.711	45.31
841.882	47.26
842.053	55.46
842.223	84.25
842.394	87.22
842.565	89.04
842.736	109.08
842.906	166.46
843.077	151.94
843.248	154.56
843.418	113.6
843.589	76.08
843.759	66.94
843.93	50.92
844.101	59.32
844.271	61.19
844.442	66.37
844.612	68.31
844.783	66.2
844.953	42.57
845.123	55.67
845.294	40.79
845.464	37.49
845.635	46
845.805	71.87
845.975	63.61
846.146	84.57
846.316	91.93
846.486	105.17
846.656	91.91
846.827	92.79
846.997	95.47
847.167	75.43
847.337	67.95
847.507	65.51
847.677	51.57
847.848	63.26
848.018	100.05
848.188	103.57
848.358	84.3
848.528	113.9
848.698	136.25
848.868	96.83
849.038	105.04
849.208	89.06
849.378	70.21
849.548	37.17
849.718	62.31
849.887	63.43
850.057	79.44
850.227	89.09
850.397	92.61
850.567	90.56
850.737	70.41
850.906	53.45
851.076	39.17
851.246	40.43
851.415	29.97
851.585	40.61
851.755	34.69
851.924	59.82
852.094	68.4
852.264	62.13
852.433	55.91
852.603	75.75
852.772	67.35
852.942	51.89
853.111	61.09
853.281	60.77
853.45	42.89
853.62	16.03
853.789	8.82
853.959	35.9
854.128	49.5
854.297	62.01
854.467	154.02
854.636	165.02
854.805	104.39
854.975	108.81
855.144	79.49
855.313	56.66
855.482	55.98
855.652	44.98
855.821	65.28
855.99	65.35
856.159	80.85
856.328	84.41
856.497	104.83
856.667	93.55
856.836	154.65
857.005	154.38
857.174	127.33
857.343	121.3
857.512	103.72
857.681	60.41
857.85	38.4
858.019	10.8
858.188	-16.8
858.356	-14.12
858.525	6.09
858.694	-1.15
858.863	35.54
859.032	59.36
859.201	49.86
859.369	56.65
859.538	48.21
859.707	25.96
859.876	19.99
860.044	45.75
860.213	43.73
860.382	33.97
860.55	43.44
860.719	48.19
860.888	60.82
861.056	75.13
861.225	108.49
861.393	98.1
861.562	93.3
861.73	94.82
861.899	63.67
862.067	46.12
862.236	48.33
862.404	55.95
862.572	53.52
862.741	52.77
862.909	65.72
863.078	65.68
863.246	59.51
863.414	65.55
863.582	103.71
863.751	86.52
863.919	95.97
864.087	110.57
864.255	79.88
864.424	58.89
864.592	60.94
864.76	64.52
864.928	63.11
865.096	52.65
865.264	64.56
865.432	66
865.6	52.2
865.768	47.73
865.936	35.35
866.104	26.31
866.272	21.67
866.44	28.14
866.608	7.4
866.776	62.5
866.944	91.43
867.112	76.61
867.28	92.75
867.448	115.08
867.615	78.37
867.783	53.98
867.951	70.38
868.119	65.01
868.286	79.63
868.454	90.03
868.622	91.64
868.789	114.51
868.957	110.37
869.125	103.03
869.292	87.51
869.46	86.19
869.627	82.97
869.795	76.47
869.963	72.21
870.13	83.1
870.298	67.99
870.465	66.23
870.632	54.68
870.8	39.42
870.967	29.76
871.135	54.43
871.302	20.74
871.469	53.57
871.637	72
871.804	66.97
871.971	53.32
872.139	79.09
872.306	67.3
872.473	72.31
872.64	85.76
872.807	88.2
872.975	59.84
873.142	56.74
873.309	28
873.476	34.5
873.643	19.93
873.81	36.66
873.977	41.38
874.144	50.77
874.311	31.63
874.478	45.17
874.645	39.36
874.812	60.66
874.979	71.34
875.146	101.7
875.313	90.65
875.48	105.82
875.647	112.02
875.813	111.27
875.98	97.65
876.147	82.13
876.314	70.66
876.481	45.31
876.647	70.41
876.814	76.36
876.981	92.48
877.147	90.26
877.314	80.38
877.481	64.52
877.647	33.58
877.814	15.84
877.98	27.14
878.147	-13.39
878.314	-29.46
878.48	43.06
878.647	42.27
878.813	40.04
878.979	73.59
879.146	68.59
879.312	-23.45
879.479	23.62
879.645	16.89
879.811	17.79
879.978	30.4
880.144	63.71
880.31	64.22
880.477	63.44
880.643	55.32
880.809	67.32
880.975	55.93
881.142	33.33
881.308	26.94
881.474	89.27
881.64	100.17
881.806	123.13
881.972	110.19
882.138	125.79
882.304	63.32
882.47	19.73
882.636	30.24
882.802	28.33
882.968	35.23
883.134	32.93
883.3	65.35
883.466	77.13
883.632	101.26
883.798	109.8
883.964	169.36
884.129	209.51
884.295	108.39
884.461	72.84
884.627	95.58
884.793	83.5
884.958	84.36
885.124	95.27
885.29	83.85
885.455	66.38
885.621	91.21
885.787	93.67
885.952	80.34
886.118	97.41
886.283	106.67
886.449	41.96
886.614	17.05
886.78	43.96
886.945	60.88
887.111	57.32
887.276	73.86
887.442	89.75
887.607	49.24
887.773	32.39
887.938	-14.56
888.103	27.94
888.269	47.57
888.434	57.24
888.599	25.84
888.764	20.17
888.93	20.3
889.095	-0.16
889.26	34.12
889.425	52.3
889.59	77.37
889.756	48.15
889.921	30.7
890.086	2.23
890.251	3.99
890.416	-11.3
890.581	3.17
890.746	67.66
890.911	77.85
891.076	112.17
891.241	113.35
891.406	108.88
891.571	67.4
891.736	47.81
891.901	58.11
892.065	58.25
892.23	58.24
892.395	33.6
892.56	-35.98
892.725	16.06
892.889	41.91
893.054	56.39
893.219	85.27
893.384	99.51
893.548	64.7
893.713	52.92
893.878	30.57
