Data from Ofav_PP_Phys_362_Reflection_3.txt Node
Date: Tue Jul 27 19:09:43 EDT 2021
User: USUARIO
Spectrometer: FLMT01687
Trigger mode: 0
Integration Time (sec): 8.500000E-1
Scans to average: 2
Electric dark correction enabled: true
Nonlinearity correction enabled: false
Boxcar width: 2
XAxis mode: Wavelengths
Number of Pixels in Spectrum: 3648
>>>>>Begin Spectral Data<<<<<
179.494	-1641.48
179.716	-522.31
179.937	-345.89
180.158	-315.23
180.38	-249.68
180.601	-107.24
180.823	65.3
181.044	58.88
181.265	23.44
181.486	204.66
181.708	115.39
181.929	87.45
182.15	79.24
182.372	98.79
182.593	112.3
182.814	98.46
183.035	81.08
183.257	70.39
183.478	65.19
183.699	69.41
183.92	74.94
184.141	69.21
184.363	74.43
184.584	79.07
184.805	90.59
185.026	79.01
185.247	80.6
185.468	69.06
185.689	58.03
185.91	43.31
186.132	36.9
186.353	57.45
186.574	66.63
186.795	75.05
187.016	85.52
187.237	83.65
187.458	50.77
187.679	58.86
187.9	49.9
188.121	65.31
188.342	74.34
188.563	111.87
188.784	76.6
189.005	65.57
189.226	52.81
189.447	39.44
189.667	42.19
189.888	51.03
190.109	82.79
190.33	115.64
190.551	112.47
190.772	86.92
190.993	67.11
191.214	49.62
191.434	20.51
191.655	21.94
191.876	14.73
192.097	-9.35
192.318	5.35
192.538	4.67
192.759	11.38
192.98	9.58
193.201	26.99
193.421	25.95
193.642	42.15
193.863	37.57
194.083	65.61
194.304	61.2
194.525	49.45
194.745	3.16
194.966	-24.64
195.187	-111.5
195.407	-70.02
195.628	-67.5
195.848	15.11
196.069	41.21
196.29	114.12
196.51	119.36
196.731	93.78
196.951	74.92
197.172	72.32
197.392	70.15
197.613	53.8
197.833	59.42
198.054	88.58
198.274	76.06
198.495	74.69
198.715	101.15
198.936	74.99
199.156	78.75
199.377	88.85
199.597	73.3
199.817	44.22
200.038	41.52
200.258	65.18
200.479	20.34
200.699	22.44
200.919	8.88
201.14	26.77
201.36	25.94
201.58	69.22
201.801	59.13
202.021	91.19
202.241	108.94
202.461	68.51
202.682	32.23
202.902	55.07
203.122	34.26
203.342	43.06
203.563	58.03
203.783	73.81
204.003	58.1
204.223	59.51
204.443	61.57
204.663	30.34
204.884	50.01
205.104	33.48
205.324	44.52
205.544	23.14
205.764	30.68
205.984	20.36
206.204	42.9
206.424	24.48
206.644	44.23
206.864	59.94
207.084	52.21
207.304	73.51
207.525	83.74
207.745	84.61
207.964	84.69
208.184	96.93
208.404	74.15
208.624	50.56
208.844	62.85
209.064	64.79
209.284	35.31
209.504	44.99
209.724	41.98
209.944	1.55
210.164	1.99
210.384	63.93
210.604	17.52
210.823	67.95
211.043	68.1
211.263	54.69
211.483	55.73
211.703	63.28
211.922	50.01
212.142	66.61
212.362	67.13
212.582	79.96
212.801	81.22
213.021	81.94
213.241	56.83
213.461	60.73
213.68	32.31
213.9	21.35
214.12	46.53
214.339	76.06
214.559	70.28
214.779	69.52
214.998	50.9
215.218	31.11
215.438	32.34
215.657	27.51
215.877	31.59
216.096	41.45
216.316	58.2
216.535	50.37
216.755	60.33
216.974	82.86
217.194	83.56
217.413	77.15
217.633	75.77
217.852	67.5
218.072	52.62
218.291	56.77
218.511	40.59
218.73	36.95
218.95	19.26
219.169	26.15
219.389	22.46
219.608	35.63
219.827	54.57
220.047	80.93
220.266	70.78
220.485	66.58
220.705	68.78
220.924	79.29
221.143	70.75
221.363	56.19
221.582	52.26
221.801	45.28
222.021	42.75
222.24	50.61
222.459	59.46
222.678	53.94
222.897	34.96
223.117	17.68
223.336	6.39
223.555	15.7
223.774	6.02
223.993	8.6
224.213	3.97
224.432	20.78
224.651	36.52
224.87	37.57
225.089	39.08
225.308	32.02
225.527	42.56
225.746	34.65
225.965	58.25
226.184	46.27
226.404	46.67
226.623	28.2
226.842	7.54
227.061	-6.57
227.28	6.7
227.499	30.18
227.718	33.44
227.936	41.7
228.155	55.24
228.374	60.27
228.593	53.31
228.812	61.65
229.031	72.19
229.25	65.67
229.469	48.66
229.688	41.54
229.907	0.21
230.125	8.77
230.344	26.91
230.563	50.42
230.782	43.95
231.001	46.53
231.22	45.98
231.438	34.07
231.657	12.54
231.876	15.12
232.095	12.04
232.313	15.62
232.532	9.78
232.751	32.45
232.969	44.58
233.188	61.29
233.407	50.86
233.625	64.24
233.844	55.09
234.063	62.16
234.281	70.36
234.5	60.06
234.719	80.62
234.937	73.05
235.156	67.68
235.374	55.5
235.593	77.76
235.811	48.96
236.03	55.09
236.249	34.32
236.467	43.4
236.686	27.88
236.904	41.91
237.123	37.51
237.341	48.43
237.559	43.37
237.778	45.63
237.996	35.92
238.215	34.22
238.433	44.38
238.652	45.15
238.87	46.29
239.088	18.56
239.307	29.91
239.525	5.34
239.743	-7.53
239.962	-2.48
240.18	27.68
240.398	30.83
240.617	39.79
240.835	65.79
241.053	72.29
241.271	68.72
241.49	54.6
241.708	68.97
241.926	31.14
242.144	0.92
242.363	8.25
242.581	26.12
242.799	-5.42
243.017	-21.68
243.235	12.8
243.453	14.42
243.672	9.33
243.89	36.37
244.108	66.7
244.326	57.2
244.544	53.77
244.762	55.48
244.98	62.92
245.198	63.93
245.416	75.69
245.634	76.84
245.852	99.31
246.07	62.88
246.288	46.6
246.506	31.05
246.724	24.71
246.942	25.34
247.16	39.37
247.378	45.32
247.596	58.67
247.814	59.37
248.032	55.49
248.25	46.54
248.468	63.87
248.685	50.65
248.903	54.56
249.121	46.99
249.339	52.7
249.557	44
249.775	22.01
249.992	8.37
250.21	13.4
250.428	-0.23
250.646	-14.49
250.863	15.49
251.081	37.7
251.299	46.1
251.517	55.55
251.734	72.67
251.952	71.03
252.17	73.15
252.387	51.48
252.605	57.51
252.823	37.38
253.04	47.1
253.258	50.95
253.475	66.27
253.693	69.87
253.911	92.19
254.128	69.09
254.346	61.77
254.563	60.8
254.781	62.77
254.998	59.76
255.216	41.82
255.433	38.41
255.651	32.25
255.868	21.36
256.086	1.88
256.303	11.5
256.521	30.11
256.738	35.91
256.956	29.77
257.173	36.74
257.39	43.66
257.608	35.33
257.825	34.89
258.043	42.74
258.26	45.07
258.477	45.55
258.695	42.82
258.912	48.6
259.129	49.11
259.346	62.45
259.564	91.24
259.781	121.23
259.998	87.85
260.216	92.58
260.433	90.22
260.65	73.63
260.867	45.89
261.084	57.58
261.302	30.17
261.519	36.66
261.736	22.01
261.953	38.12
262.17	27.77
262.387	43.98
262.604	46.09
262.822	65.54
263.039	65.28
263.256	83.85
263.473	76.07
263.69	87.21
263.907	60.23
264.124	48.44
264.341	37.12
264.558	45.98
264.775	24.19
264.992	43.5
265.209	48.69
265.426	51.11
265.643	49.06
265.86	39.79
266.077	20.2
266.294	17.41
266.51	18.11
266.727	13.53
266.944	22.63
267.161	40.84
267.378	32.55
267.595	55.82
267.812	57.26
268.028	68.81
268.245	67.41
268.462	64.66
268.679	22.93
268.896	36.11
269.112	14.25
269.329	8.34
269.546	35.04
269.763	28.54
269.979	19.03
270.196	41.32
270.413	63.16
270.629	54.51
270.846	79.09
271.063	71.18
271.279	68.1
271.496	43.16
271.712	22.11
271.929	-16.28
272.146	-25.01
272.362	14.57
272.579	18.23
272.795	36.74
273.012	48.65
273.228	60.04
273.445	45.92
273.661	50.08
273.878	39.11
274.094	36.18
274.311	33.46
274.527	30.85
274.744	21.09
274.96	28.5
275.177	2.38
275.393	5.95
275.609	2.71
275.826	17.95
276.042	20.84
276.259	63.18
276.475	38.14
276.691	49.54
276.908	34.89
277.124	40.02
277.34	40.65
277.557	46.26
277.773	33.69
277.989	42.56
278.205	30.48
278.422	33.18
278.638	33.47
278.854	56.81
279.07	58.7
279.286	67.71
279.503	51.84
279.719	61.46
279.935	45.17
280.151	57.47
280.367	53.82
280.583	59.36
280.799	61.84
281.016	66.91
281.232	51.32
281.448	53.7
281.664	43.48
281.88	25.88
282.096	27.22
282.312	20.85
282.528	14.77
282.744	9.15
282.96	12.28
283.176	17.55
283.392	2.79
283.608	10.41
283.824	24.29
284.04	-1.78
284.256	6.69
284.471	18.46
284.687	7.72
284.903	11.95
285.119	47.76
285.335	42.74
285.551	22.14
285.767	44.58
285.982	35.38
286.198	36.5
286.414	30.39
286.63	47.27
286.846	24.74
287.061	28.86
287.277	20
287.493	18.86
287.709	28.01
287.924	45.41
288.14	60.13
288.356	74.96
288.571	83.03
288.787	70.86
289.003	65.44
289.218	61.9
289.434	49.53
289.65	45.16
289.865	24.01
290.081	36.93
290.296	32.15
290.512	33.84
290.727	30.65
290.943	60.3
291.159	60.48
291.374	62.1
291.59	51.87
291.805	56.23
292.021	52.91
292.236	52.06
292.451	45.21
292.667	49.22
292.882	42.76
293.098	37.99
293.313	47.82
293.529	54.14
293.744	56.78
293.959	65.38
294.175	77.23
294.39	63.33
294.605	63.91
294.821	52.2
295.036	53.61
295.251	33.95
295.467	36.01
295.682	8.01
295.897	28.61
296.112	43.82
296.328	46.55
296.543	57.11
296.758	60.12
296.973	63.63
297.188	65.67
297.404	54.73
297.619	51.85
297.834	50.94
298.049	44.38
298.264	31.8
298.479	40.09
298.694	28.14
298.909	28.99
299.125	31.97
299.34	22.3
299.555	23.37
299.77	21.81
299.985	21.02
300.2	7.37
300.415	3.85
300.63	7.33
300.845	17.71
301.06	22.07
301.275	26.94
301.49	52.76
301.704	45.17
301.919	49.75
302.134	60.53
302.349	61.59
302.564	43.96
302.779	38.56
302.994	30.06
303.209	26.51
303.423	27.18
303.638	21.18
303.853	33.92
304.068	45.25
304.283	40.97
304.497	30.17
304.712	44.14
304.927	37.71
305.142	40.54
305.356	35.95
305.571	59.26
305.786	47.21
306	40.72
306.215	32.09
306.43	41.29
306.644	49.4
306.859	50.86
307.074	59.47
307.288	54.9
307.503	40.95
307.717	21.71
307.932	29.11
308.147	35.8
308.361	45.69
308.576	51.27
308.79	49.02
309.005	50.25
309.219	23.14
309.434	19.39
309.648	29.37
309.863	37.61
310.077	20.29
310.292	25.88
310.506	11.84
310.72	5.75
310.935	-0.06
311.149	18.93
311.364	12.72
311.578	18.52
311.792	25.02
312.007	35.05
312.221	30.59
312.435	33.07
312.649	33.19
312.864	24.17
313.078	-5.75
313.292	-8.45
313.507	22.53
313.721	47.18
313.935	43.83
314.149	45.28
314.363	37.34
314.578	33.36
314.792	24.65
315.006	31.26
315.22	50.95
315.434	58.12
315.648	46.67
315.862	44.59
316.077	33.32
316.291	26.22
316.505	19.7
316.719	50.11
316.933	64.2
317.147	55.21
317.361	39.17
317.575	36.68
317.789	23.42
318.003	8.17
318.217	30.95
318.431	40.75
318.645	55.05
318.859	58.87
319.073	46.44
319.287	42.34
319.5	43.63
319.714	33.77
319.928	50.64
320.142	54.64
320.356	65.05
320.57	63.41
320.784	62.04
320.997	60.43
321.211	68.41
321.425	53.6
321.639	29.92
321.853	25.67
322.066	4.21
322.28	-11.12
322.494	1.73
322.707	15.06
322.921	17.63
323.135	21.31
323.349	33.14
323.562	28.61
323.776	34.61
323.989	24.57
324.203	24.64
324.417	18.89
324.63	33.48
324.844	32.04
325.057	39.05
325.271	62.53
325.485	63.21
325.698	54.03
325.912	56.44
326.125	71.36
326.339	58.92
326.552	52.67
326.766	53.27
326.979	49.49
327.193	45.14
327.406	39.94
327.619	35.86
327.833	33.27
328.046	47.27
328.26	38.71
328.473	33.77
328.686	50.08
328.9	59.67
329.113	48.55
329.326	52.94
329.54	68.98
329.753	54.4
329.966	52.66
330.179	88.82
330.393	77.27
330.606	49.91
330.819	48.89
331.032	38.99
331.246	32.46
331.459	22.98
331.672	33.89
331.885	46
332.098	62.84
332.311	67.42
332.525	72.77
332.738	60.2
332.951	48.99
333.164	30.04
333.377	14.3
333.59	22.28
333.803	27.72
334.016	23.7
334.229	37.35
334.442	51.74
334.655	58.35
334.868	68.38
335.081	74.66
335.294	68.37
335.507	75
335.72	76.6
335.933	62.97
336.146	73.25
336.359	68.78
336.572	71.82
336.785	51.82
336.997	64.95
337.21	71.8
337.423	71.47
337.636	43.48
337.849	36.32
338.062	35.68
338.274	27.86
338.487	37.49
338.7	42.5
338.913	51.17
339.125	60.32
339.338	52.37
339.551	42
339.763	47.03
339.976	59.41
340.189	44.57
340.402	44.49
340.614	47.19
340.827	46.97
341.039	34.08
341.252	23.14
341.465	14.42
341.677	19.38
341.89	0.15
342.102	9.97
342.315	22.37
342.527	32.55
342.74	36.55
342.952	21.35
343.165	31.47
343.377	40.44
343.59	31.26
343.802	25.3
344.015	37.85
344.227	37.71
344.44	9.31
344.652	29.2
344.864	47.77
345.077	52.71
345.289	42.81
345.502	37.22
345.714	31.09
345.926	18.69
346.139	17.31
346.351	13.47
346.563	14.84
346.775	17.56
346.988	24.88
347.2	20.46
347.412	29.94
347.624	35.89
347.837	12.62
348.049	-0.05
348.261	1.76
348.473	-6.36
348.685	0.39
348.897	22.54
349.11	19.43
349.322	4.99
349.534	15.15
349.746	32.06
349.958	22.13
350.17	42.44
350.382	50.68
350.594	46.42
350.806	41.03
351.018	35.27
351.23	17.99
351.442	15.14
351.654	46.44
351.866	20.13
352.078	21.67
352.29	16.95
352.502	19.3
352.714	12.08
352.926	20.43
353.138	37.42
353.35	48.11
353.561	58.42
353.773	66.86
353.985	55.93
354.197	49.36
354.409	33.78
354.621	30.31
354.832	19.42
355.044	28.76
355.256	26.24
355.468	39.02
355.679	40.68
355.891	47.6
356.103	47.17
356.314	62.11
356.526	66.65
356.738	72.36
356.949	66.69
357.161	68.99
357.373	52.69
357.584	43.68
357.796	37.67
358.008	37.09
358.219	31.4
358.431	34.07
358.642	31.25
358.854	41.81
359.065	41.85
359.277	45.5
359.488	48.63
359.7	48.68
359.911	45.46
360.123	46.52
360.334	37.07
360.546	30.03
360.757	41.66
360.969	43.57
361.18	48.84
361.391	56.39
361.603	58.37
361.814	60.56
362.025	56.37
362.237	49.81
362.448	40.48
362.659	41.18
362.871	43.53
363.082	37.38
363.293	38.05
363.504	49.84
363.716	47.69
363.927	21.57
364.138	23.81
364.349	24.05
364.56	14.6
364.772	15.8
364.983	34.57
365.194	32.43
365.405	35.95
365.616	31.2
365.827	39.39
366.038	31.51
366.25	31.13
366.461	27.06
366.672	31.89
366.883	16.84
367.094	34.19
367.305	39.61
367.516	24.3
367.727	32.99
367.938	31.52
368.149	25.36
368.36	29.94
368.571	29.91
368.781	25.83
368.992	23.76
369.203	16.07
369.414	15.6
369.625	16.46
369.836	18.59
370.047	23.32
370.258	25.08
370.468	14.68
370.679	16.12
370.89	11.56
371.101	-2.04
371.312	-3.31
371.522	-3.46
371.733	6.58
371.944	9.74
372.155	27.17
372.365	13.52
372.576	15.77
372.787	12.77
372.997	18.38
373.208	23.68
373.419	41.05
373.629	42.3
373.84	41.23
374.05	34.87
374.261	28.63
374.472	31.68
374.682	31.85
374.893	35.68
375.103	38.11
375.314	35.35
375.524	35.02
375.735	24.25
375.945	17.35
376.156	26.29
376.366	31.19
376.577	15.63
376.787	19.16
376.997	18.04
377.208	13.2
377.418	11.17
377.629	25.78
377.839	37.45
378.049	52.47
378.26	57.34
378.47	58.41
378.68	62.42
378.89	60.14
379.101	39.87
379.311	36.24
379.521	32.6
379.732	20.92
379.942	26.67
380.152	38.72
380.362	44.43
380.572	38.99
380.783	33.96
380.993	23.83
381.203	14.35
381.413	-0.43
381.623	13.6
381.833	23.38
382.043	26.75
382.253	28.63
382.463	35.18
382.674	34.66
382.884	22.43
383.094	14.17
383.304	18.56
383.514	21.49
383.724	13.32
383.934	20.49
384.144	17.25
384.353	15.1
384.563	15.64
384.773	19.95
384.983	16.04
385.193	14.99
385.403	12.07
385.613	10.74
385.823	7.91
386.033	9.51
386.242	19.99
386.452	22.64
386.662	27.57
386.872	31.08
387.082	28.65
387.291	15.24
387.501	14.43
387.711	6.08
387.921	2.56
388.13	4.51
388.34	9.77
388.55	7.26
388.759	5.61
388.969	5.72
389.179	5.67
389.388	7.85
389.598	11.55
389.807	10.94
390.017	12.71
390.227	14.58
390.436	13.17
390.646	10.93
390.855	11.03
391.065	8.15
391.274	6.55
391.484	4.62
391.693	4.62
391.903	5.57
392.112	5.92
392.322	5.06
392.531	6
392.74	5.4
392.95	5.85
393.159	6.74
393.369	7.08
393.578	8.38
393.787	9.19
393.997	8.94
394.206	8.37
394.415	7.75
394.625	6.94
394.834	4.99
395.043	5.23
395.252	5.68
395.462	6.83
395.671	6.07
395.88	7.68
396.089	7.68
396.298	6.9
396.508	6.61
396.717	6.61
396.926	5.6
397.135	4.87
397.344	5.34
397.553	4.89
397.762	4.4
397.971	4.53
398.181	4.54
398.39	3.7
398.599	3.54
398.808	3.53
399.017	4.13
399.226	4.39
399.435	4.84
399.644	5.34
399.853	6.04
400.062	6.29
400.27	6.18
400.479	5.88
400.688	5.26
400.897	5.31
401.106	5
401.315	5.2
401.524	5.26
401.733	5.09
401.941	4.75
402.15	4.35
402.359	4.01
402.568	4.15
402.777	4.43
402.985	4.29
403.194	4.62
403.403	4.71
403.612	4.41
403.82	4.32
404.029	4.34
404.238	4.27
404.446	4.29
404.655	4.48
404.864	4.62
405.072	4.73
405.281	4.65
405.489	4.45
405.698	4.38
405.906	4.35
406.115	4.17
406.324	4.13
406.532	4.07
406.741	4.02
406.949	4.06
407.158	4.07
407.366	3.91
407.574	4.13
407.783	4.05
407.991	3.87
408.2	3.87
408.408	4.12
408.617	4.05
408.825	4.15
409.033	4.17
409.242	4.18
409.45	4
409.658	3.96
409.867	3.88
410.075	3.79
410.283	3.75
410.491	3.74
410.7	3.62
410.908	3.64
411.116	3.69
411.324	3.65
411.533	3.66
411.741	3.66
411.949	3.56
412.157	3.59
412.365	3.74
412.573	3.69
412.781	3.73
412.99	3.71
413.198	3.8
413.406	3.75
413.614	3.99
413.822	4.08
414.03	4.17
414.238	3.93
414.446	3.78
414.654	3.53
414.862	3.44
415.07	3.5
415.278	3.58
415.486	3.57
415.694	3.5
415.902	3.57
416.109	3.48
416.317	3.6
416.525	3.63
416.733	3.62
416.941	3.68
417.149	3.53
417.357	3.52
417.564	3.46
417.772	3.53
417.98	3.44
418.188	3.6
418.395	3.43
418.603	3.36
418.811	3.49
419.019	3.37
419.226	3.44
419.434	3.65
419.642	3.99
419.849	3.88
420.057	3.93
420.265	3.87
420.472	3.68
420.68	3.42
420.887	3.49
421.095	3.39
421.302	3.14
421.51	3.15
421.717	3.25
421.925	3.28
422.132	3.36
422.34	3.59
422.547	3.5
422.755	3.49
422.962	3.45
423.17	3.6
423.377	3.64
423.585	3.83
423.792	3.74
423.999	3.61
424.207	3.48
424.414	3.33
424.621	3.35
424.829	3.17
425.036	3.27
425.243	3.21
425.451	3.2
425.658	3.16
425.865	3.59
426.072	3.46
426.28	3.49
426.487	3.6
426.694	3.48
426.901	3.27
427.108	3.39
427.315	3.3
427.523	3.22
427.73	3.12
427.937	2.95
428.144	2.91
428.351	3
428.558	3.15
428.765	3.24
428.972	3.29
429.179	3.32
429.386	3.35
429.593	3.24
429.8	3.28
430.007	3.24
430.214	3.25
430.421	3.31
430.628	3.27
430.835	3.29
431.042	3.3
431.249	3.31
431.456	3.33
431.662	3.5
431.869	3.57
432.076	3.65
432.283	3.58
432.49	3.47
432.697	3.24
432.903	3.26
433.11	3.5
433.317	3.52
433.524	3.59
433.73	3.56
433.937	3.37
434.144	3.13
434.35	3.15
434.557	3.03
434.764	3.16
434.97	3.24
435.177	3.28
435.384	3.21
435.59	3.33
435.797	3.26
436.003	3.3
436.21	3.21
436.416	3.23
436.623	3.09
436.829	3.08
437.036	3.07
437.242	3.1
437.449	3.03
437.655	3.11
437.862	3.26
438.068	3.13
438.275	3.32
438.481	3.3
438.687	3.31
438.894	3.32
439.1	3.4
439.307	3.23
439.513	3.34
439.719	3.5
439.926	3.35
440.132	3.55
440.338	3.51
440.544	3.44
440.751	3.22
440.957	3.24
441.163	2.98
441.369	3.12
441.575	3.08
441.782	3.25
441.988	3.22
442.194	3.29
442.4	3.24
442.606	3.31
442.812	3.22
443.018	3.18
443.224	3.08
443.431	3.01
443.637	2.97
443.843	2.88
444.049	2.9
444.255	2.91
444.461	2.84
444.667	2.75
444.873	2.7
445.079	2.83
445.284	2.83
445.49	2.89
445.696	2.94
445.902	2.94
446.108	2.88
446.314	2.95
446.52	3.05
446.726	3.04
446.931	3.13
447.137	3.13
447.343	3.04
447.549	2.82
447.755	2.8
447.96	2.85
448.166	2.87
448.372	2.94
448.578	2.99
448.783	3.12
448.989	3.14
449.195	3.02
449.4	3.02
449.606	3.01
449.812	2.89
450.017	2.82
450.223	2.86
450.428	2.84
450.634	2.93
450.84	2.94
451.045	3.07
451.251	3.14
451.456	3.17
451.662	3.1
451.867	3.22
452.073	2.97
452.278	2.89
452.483	2.86
452.689	2.91
452.894	2.85
453.1	2.94
453.305	2.96
453.51	3.01
453.716	3.01
453.921	3.05
454.127	3.13
454.332	3.04
454.537	2.99
454.742	2.93
454.948	2.8
455.153	2.8
455.358	2.87
455.563	2.91
455.769	3.01
455.974	3.07
456.179	2.98
456.384	2.86
456.589	2.9
456.795	2.85
457	2.77
457.205	2.65
457.41	2.75
457.615	2.62
457.82	2.58
458.025	2.61
458.23	2.79
458.435	2.81
458.64	2.78
458.845	2.84
459.05	2.79
459.255	2.83
459.46	2.82
459.665	2.93
459.87	2.96
460.075	3.14
460.28	3.13
460.485	3.17
460.69	3.08
460.895	2.96
461.099	2.86
461.304	2.79
461.509	2.74
461.714	2.78
461.919	2.89
462.123	2.84
462.328	2.92
462.533	2.91
462.738	2.97
462.942	2.92
463.147	2.98
463.352	2.85
463.556	2.95
463.761	2.85
463.966	2.82
464.17	2.84
464.375	2.92
464.58	2.83
464.784	2.88
464.989	2.89
465.193	2.91
465.398	2.92
465.602	3.02
465.807	2.96
466.011	2.97
466.216	2.88
466.42	2.93
466.625	2.92
466.829	2.93
467.034	3.03
467.238	3.16
467.443	3.17
467.647	3.11
467.851	3.12
468.056	3.02
468.26	3
468.464	2.92
468.669	2.91
468.873	2.91
469.077	2.89
469.282	2.77
469.486	2.84
469.69	2.81
469.894	2.88
470.099	2.94
470.303	3.03
470.507	2.94
470.711	3.06
470.915	3.12
471.119	3.17
471.324	3.16
471.528	3.18
471.732	3.2
471.936	3.13
472.14	3.05
472.344	3.12
472.548	3.1
472.752	3.06
472.956	3.06
473.16	3.19
473.364	3.09
473.568	3.09
473.772	3.07
473.976	3.04
474.18	2.9
474.384	2.97
474.588	2.95
474.792	2.94
474.995	2.94
475.199	2.96
475.403	2.88
475.607	2.92
475.811	2.96
476.015	2.94
476.218	2.89
476.422	2.97
476.626	2.92
476.83	2.9
477.033	2.93
477.237	2.97
477.441	2.93
477.644	2.95
477.848	2.89
478.052	2.81
478.255	2.89
478.459	2.9
478.663	2.88
478.866	2.93
479.07	3.02
479.273	2.93
479.477	2.89
479.681	3.02
479.884	3
480.088	2.93
480.291	3.04
480.495	3.05
480.698	2.97
480.901	3.01
481.105	3.07
481.308	2.98
481.512	3.01
481.715	2.97
481.919	2.92
482.122	2.9
482.325	2.93
482.529	2.96
482.732	2.98
482.935	2.95
483.138	3.04
483.342	2.95
483.545	2.99
483.748	3.01
483.952	3.08
484.155	3.04
484.358	3.13
484.561	3.08
484.764	2.99
484.967	2.99
485.171	3.01
485.374	2.91
485.577	2.94
485.78	3.02
485.983	2.97
486.186	2.92
486.389	2.96
486.592	2.88
486.795	2.92
486.998	3.05
487.201	3.05
487.404	3.09
487.607	3.22
487.81	3.21
488.013	3.08
488.216	3.22
488.419	3.19
488.622	3.1
488.825	3.07
489.028	3.14
489.231	3.01
489.433	3.03
489.636	3.05
489.839	3.1
490.042	3.04
490.245	3.03
490.447	3.06
490.65	3.07
490.853	3.01
491.056	3.1
491.258	3.14
491.461	3.14
491.664	3.11
491.866	3.14
492.069	3.14
492.272	3.12
492.474	3.18
492.677	3.21
492.879	3.22
493.082	3.15
493.285	3.2
493.487	3.12
493.69	3.07
493.892	3.06
494.095	3.19
494.297	3.19
494.5	3.27
494.702	3.35
494.905	3.38
495.107	3.33
495.309	3.32
495.512	3.3
495.714	3.4
495.917	3.44
496.119	3.44
496.321	3.47
496.524	3.5
496.726	3.43
496.928	3.42
497.13	3.5
497.333	3.58
497.535	3.58
497.737	3.55
497.939	3.58
498.142	3.49
498.344	3.5
498.546	3.51
498.748	3.61
498.95	3.67
499.152	3.72
499.355	3.64
499.557	3.57
499.759	3.6
499.961	3.64
500.163	3.7
500.365	3.74
500.567	3.84
500.769	3.78
500.971	3.7
501.173	3.63
501.375	3.72
501.577	3.8
501.779	3.86
501.981	3.95
502.183	4.06
502.385	3.99
502.587	3.86
502.788	3.86
502.99	3.78
503.192	3.7
503.394	3.72
503.596	3.82
503.798	3.91
503.999	3.91
504.201	3.95
504.403	3.99
504.605	4
504.806	3.93
505.008	4.02
505.21	4.01
505.411	3.94
505.613	3.92
505.815	3.92
506.016	3.86
506.218	3.88
506.42	3.88
506.621	3.9
506.823	3.93
507.024	3.87
507.226	3.87
507.427	3.84
507.629	3.76
507.83	3.7
508.032	3.71
508.233	3.75
508.435	3.82
508.636	3.91
508.838	3.89
509.039	3.92
509.24	3.85
509.442	3.86
509.643	3.75
509.845	3.77
510.046	3.79
510.247	3.82
510.448	3.78
510.65	3.85
510.851	3.83
511.052	3.83
511.254	3.88
511.455	3.92
511.656	3.92
511.857	3.9
512.058	3.88
512.26	3.82
512.461	3.82
512.662	3.73
512.863	3.73
513.064	3.71
513.265	3.65
513.466	3.66
513.667	3.7
513.868	3.71
514.069	3.74
514.27	3.75
514.471	3.72
514.672	3.72
514.873	3.79
515.074	3.81
515.275	3.83
515.476	3.8
515.677	3.73
515.878	3.65
516.079	3.64
516.28	3.66
516.481	3.73
516.682	3.8
516.882	3.79
517.083	3.77
517.284	3.77
517.485	3.73
517.686	3.71
517.886	3.76
518.087	3.8
518.288	3.81
518.488	3.79
518.689	3.78
518.89	3.76
519.091	3.79
519.291	3.7
519.492	3.73
519.692	3.76
519.893	3.81
520.094	3.68
520.294	3.73
520.495	3.72
520.695	3.75
520.896	3.69
521.096	3.75
521.297	3.81
521.497	3.81
521.698	3.77
521.898	3.81
522.099	3.85
522.299	3.85
522.499	3.85
522.7	3.83
522.9	3.86
523.101	3.85
523.301	3.83
523.501	3.86
523.702	3.96
523.902	3.96
524.102	4
524.302	4.02
524.503	4.01
524.703	4.01
524.903	4.01
525.103	3.96
525.304	3.94
525.504	3.92
525.704	3.86
525.904	3.82
526.104	3.84
526.304	3.89
526.504	3.93
526.705	3.97
526.905	4.04
527.105	4.01
527.305	3.99
527.505	4.01
527.705	4
527.905	3.91
528.105	3.95
528.305	3.95
528.505	3.94
528.705	3.9
528.905	3.89
529.105	3.94
529.304	3.9
529.504	3.93
529.704	3.95
529.904	3.99
530.104	3.98
530.304	4
530.503	4.05
530.703	4.04
530.903	4.11
531.103	4.12
531.303	4.16
531.502	4.14
531.702	4.11
531.902	4.05
532.101	4
532.301	4.02
532.501	3.96
532.7	4.04
532.9	4.05
533.1	4.13
533.299	4.12
533.499	4.2
533.698	4.16
533.898	4.18
534.097	4.17
534.297	4.17
534.496	4.18
534.696	4.22
534.895	4.28
535.095	4.29
535.294	4.31
535.494	4.26
535.693	4.29
535.892	4.3
536.092	4.31
536.291	4.3
536.491	4.35
536.69	4.33
536.889	4.26
537.088	4.24
537.288	4.21
537.487	4.25
537.686	4.28
537.886	4.4
538.085	4.44
538.284	4.52
538.483	4.52
538.682	4.51
538.882	4.49
539.081	4.45
539.28	4.45
539.479	4.45
539.678	4.48
539.877	4.5
540.076	4.53
540.275	4.54
540.474	4.53
540.673	4.53
540.872	4.51
541.071	4.58
541.27	4.6
541.469	4.67
541.668	4.68
541.867	4.72
542.066	4.7
542.265	4.76
542.464	4.71
542.663	4.78
542.862	4.81
543.06	4.81
543.259	4.82
543.458	4.88
543.657	4.92
543.856	4.94
544.054	5.01
544.253	4.95
544.452	4.97
544.651	4.94
544.849	4.9
545.048	4.9
545.247	4.99
545.445	5.05
545.644	5.05
545.843	5.07
546.041	5.08
546.24	5.07
546.438	5.04
546.637	5.14
546.836	5.19
547.034	5.23
547.233	5.31
547.431	5.4
547.63	5.43
547.828	5.53
548.027	5.56
548.225	5.56
548.423	5.53
548.622	5.54
548.82	5.52
549.019	5.56
549.217	5.52
549.415	5.59
549.614	5.57
549.812	5.58
550.01	5.58
550.209	5.72
550.407	5.74
550.605	5.84
550.803	5.86
551.002	5.85
551.2	5.9
551.398	5.94
551.596	5.92
551.794	5.99
551.993	6.02
552.191	6
552.389	6
552.587	6.1
552.785	6.17
552.983	6.21
553.181	6.28
553.379	6.34
553.577	6.41
553.775	6.47
553.973	6.54
554.171	6.51
554.369	6.64
554.567	6.66
554.765	6.74
554.963	6.82
555.161	6.88
555.359	6.89
555.557	7
555.755	6.99
555.952	7.01
556.15	7.12
556.348	7.17
556.546	7.16
556.744	7.25
556.941	7.33
557.139	7.4
557.337	7.44
557.535	7.48
557.732	7.48
557.93	7.52
558.128	7.59
558.325	7.69
558.523	7.73
558.721	7.79
558.918	7.86
559.116	7.9
559.313	7.9
559.511	8.04
559.708	8.15
559.906	8.22
560.104	8.29
560.301	8.38
560.498	8.41
560.696	8.44
560.893	8.5
561.091	8.55
561.288	8.68
561.486	8.72
561.683	8.75
561.88	8.74
562.078	8.81
562.275	8.75
562.473	8.85
562.67	8.97
562.867	9.11
563.064	9.16
563.262	9.26
563.459	9.36
563.656	9.45
563.853	9.46
564.051	9.44
564.248	9.5
564.445	9.54
564.642	9.55
564.839	9.65
565.036	9.81
565.234	9.87
565.431	9.87
565.628	9.92
565.825	9.92
566.022	10.01
566.219	10.11
566.416	10.13
566.613	10.21
566.81	10.32
567.007	10.31
567.204	10.33
567.401	10.45
567.598	10.51
567.795	10.58
567.991	10.67
568.188	10.8
568.385	10.81
568.582	10.9
568.779	10.91
568.976	11.05
569.172	11.15
569.369	11.19
569.566	11.27
569.763	11.28
569.96	11.33
570.156	11.24
570.353	11.32
570.55	11.27
570.746	11.41
570.943	11.38
571.14	11.47
571.336	11.5
571.533	11.51
571.729	11.53
571.926	11.54
572.123	11.56
572.319	11.64
572.516	11.76
572.712	11.79
572.909	11.84
573.105	11.86
573.302	11.83
573.498	11.84
573.695	11.79
573.891	11.76
574.087	11.73
574.284	11.71
574.48	11.71
574.677	11.75
574.873	11.85
575.069	11.99
575.266	12.1
575.462	12.13
575.658	12.17
575.854	12.25
576.051	12.19
576.247	12.18
576.443	12.19
576.639	12.3
576.835	12.16
577.032	12.12
577.228	12.17
577.424	12.21
577.62	12.12
577.816	12.23
578.012	12.29
578.208	12.29
578.404	12.31
578.6	12.35
578.796	12.29
578.993	12.38
579.189	12.36
579.384	12.37
579.58	12.27
579.776	12.25
579.972	12.19
580.168	12.15
580.364	12.12
580.56	12.19
580.756	12.2
580.952	12.13
581.148	12.19
581.343	12.21
581.539	12.21
581.735	12.22
581.931	12.25
582.127	12.25
582.322	12.23
582.518	12.15
582.714	12.22
582.909	12.24
583.105	12.21
583.301	12.2
583.496	12.19
583.692	12.15
583.888	12.07
584.083	11.97
584.279	11.94
584.474	12
584.67	11.84
584.866	11.85
585.061	11.93
585.257	11.84
585.452	11.82
585.648	11.89
585.843	11.9
586.039	11.94
586.234	11.94
586.429	11.87
586.625	11.85
586.82	11.79
587.015	11.72
587.211	11.72
587.406	11.8
587.601	11.89
587.797	11.91
587.992	11.87
588.187	11.88
588.383	11.83
588.578	11.79
588.773	11.81
588.968	11.9
589.163	11.97
589.359	11.96
589.554	11.96
589.749	12.01
589.944	11.96
590.139	12.01
590.334	12.12
590.529	12.17
590.724	12.18
590.919	12.22
591.114	12.17
591.309	12.14
591.504	12.11
591.699	12.1
591.894	12.08
592.089	12.04
592.284	12.1
592.479	12.07
592.674	12.08
592.869	12.06
593.064	12.25
593.259	12.23
593.454	12.27
593.648	12.25
593.843	12.4
594.038	12.35
594.233	12.34
594.428	12.46
594.622	12.6
594.817	12.62
595.012	12.61
595.206	12.65
595.401	12.77
595.596	12.84
595.79	12.74
595.985	12.83
596.18	12.91
596.374	12.87
596.569	12.81
596.763	12.99
596.958	13.05
597.153	13.05
597.347	13.05
597.542	13.17
597.736	13.16
597.931	13.13
598.125	13.29
598.319	13.29
598.514	13.29
598.708	13.32
598.903	13.36
599.097	13.33
599.291	13.4
599.486	13.4
599.68	13.41
599.874	13.44
600.069	13.47
600.263	13.53
600.457	13.55
600.651	13.6
600.846	13.7
601.04	13.67
601.234	13.64
601.428	13.69
601.622	13.7
601.817	13.61
602.011	13.62
602.205	13.63
602.399	13.61
602.593	13.69
602.787	13.75
602.981	13.7
603.175	13.72
603.369	13.69
603.563	13.57
603.757	13.55
603.951	13.54
604.145	13.45
604.339	13.43
604.533	13.49
604.727	13.41
604.921	13.42
605.115	13.39
605.309	13.41
605.502	13.39
605.696	13.4
605.89	13.28
606.084	13.31
606.278	13.24
606.471	13.07
606.665	13
606.859	12.96
607.053	12.9
607.246	12.79
607.44	12.72
607.634	12.72
607.827	12.72
608.021	12.63
608.214	12.59
608.408	12.57
608.602	12.52
608.795	12.45
608.989	12.41
609.182	12.41
609.376	12.37
609.569	12.2
609.763	12.12
609.956	12.04
610.15	11.99
610.343	11.95
610.537	11.98
610.73	11.92
610.923	11.94
611.117	11.87
611.31	11.75
611.504	11.7
611.697	11.66
611.89	11.57
612.083	11.45
612.277	11.36
612.47	11.23
612.663	11.19
612.856	11.01
613.05	10.97
613.243	11.01
613.436	10.91
613.629	10.81
613.822	10.88
614.015	10.82
614.209	10.67
614.402	10.61
614.595	10.62
614.788	10.57
614.981	10.55
615.174	10.58
615.367	10.57
615.56	10.33
615.753	10.24
615.946	10.14
616.139	10.1
616.332	10.07
616.525	10.11
616.718	10.09
616.911	10.13
617.103	10.02
617.296	9.97
617.489	9.97
617.682	9.92
617.875	9.84
618.067	9.78
618.26	9.69
618.453	9.65
618.646	9.58
618.838	9.5
619.031	9.51
619.224	9.58
619.417	9.58
619.609	9.54
619.802	9.5
619.994	9.53
620.187	9.39
620.38	9.36
620.572	9.36
620.765	9.35
620.957	9.25
621.15	9.31
621.342	9.28
621.535	9.25
621.727	9.19
621.92	9.16
622.112	9.16
622.305	9.1
622.497	9.07
622.69	9.04
622.882	9.09
623.074	9.06
623.267	9.03
623.459	8.94
623.651	8.94
623.844	8.86
624.036	8.81
624.228	8.83
624.42	8.85
624.613	8.86
624.805	8.85
624.997	8.73
625.189	8.71
625.381	8.71
625.574	8.66
625.766	8.71
625.958	8.75
626.15	8.7
626.342	8.65
626.534	8.66
626.726	8.59
626.918	8.53
627.11	8.52
627.302	8.5
627.494	8.5
627.686	8.44
627.878	8.47
628.07	8.39
628.262	8.39
628.454	8.29
628.646	8.28
628.838	8.33
629.029	8.44
629.221	8.41
629.413	8.36
629.605	8.33
629.797	8.24
629.989	8.13
630.18	8.09
630.372	8.13
630.564	8.07
630.755	8.07
630.947	8.08
631.139	8.05
631.33	7.99
631.522	8.06
631.714	8
631.905	7.92
632.097	7.92
632.289	7.9
632.48	7.84
632.672	7.74
632.863	7.76
633.055	7.71
633.246	7.78
633.438	7.84
633.629	7.91
633.821	7.89
634.012	7.95
634.203	7.86
634.395	7.81
634.586	7.87
634.777	7.83
634.969	7.86
635.16	7.89
635.351	7.9
635.543	7.81
635.734	7.89
635.925	7.84
636.117	7.85
636.308	7.79
636.499	7.8
636.69	7.71
636.881	7.7
637.073	7.7
637.264	7.78
637.455	7.74
637.646	7.77
637.837	7.76
638.028	7.7
638.219	7.7
638.41	7.77
638.601	7.78
638.792	7.79
638.983	7.8
639.174	7.69
639.365	7.62
639.556	7.61
639.747	7.59
639.938	7.61
640.129	7.64
640.32	7.61
640.511	7.55
640.701	7.52
640.892	7.46
641.083	7.48
641.274	7.51
641.465	7.46
641.655	7.51
641.846	7.56
642.037	7.44
642.228	7.5
642.418	7.48
642.609	7.44
642.8	7.41
642.99	7.51
643.181	7.44
643.372	7.52
643.562	7.47
643.753	7.44
643.943	7.46
644.134	7.42
644.324	7.39
644.515	7.39
644.705	7.34
644.896	7.24
645.086	7.26
645.277	7.24
645.467	7.33
645.658	7.37
645.848	7.39
646.038	7.4
646.229	7.45
646.419	7.41
646.61	7.38
646.8	7.39
646.99	7.39
647.18	7.33
647.371	7.39
647.561	7.37
647.751	7.39
647.941	7.28
648.132	7.32
648.322	7.25
648.512	7.34
648.702	7.3
648.892	7.36
649.082	7.3
649.272	7.24
649.462	7.2
649.653	7.2
649.843	7.21
650.033	7.2
650.223	7.22
650.413	7.18
650.603	7.19
650.793	7.12
650.983	7.09
651.172	7.09
651.362	7.07
651.552	7.03
651.742	6.97
651.932	7.05
652.122	6.99
652.312	6.98
652.502	6.89
652.691	6.9
652.881	6.85
653.071	6.89
653.261	6.79
653.45	6.81
653.64	6.86
653.83	6.77
654.019	6.59
654.209	6.61
654.399	6.57
654.588	6.4
654.778	6.31
654.968	6.28
655.157	6.19
655.347	6.17
655.536	6.15
655.726	6.06
655.915	6.13
656.105	6.04
656.294	5.91
656.484	5.78
656.673	5.72
656.863	5.53
657.052	5.54
657.241	5.47
657.431	5.46
657.62	5.38
657.809	5.24
657.999	5.16
658.188	5.08
658.377	5.05
658.567	5.05
658.756	5.08
658.945	5
659.134	4.99
659.324	4.98
659.513	4.89
659.702	4.8
659.891	4.74
660.08	4.63
660.269	4.51
660.458	4.39
660.648	4.5
660.837	4.42
661.026	4.44
661.215	4.36
661.404	4.32
661.593	4.06
661.782	4
661.971	3.93
662.16	3.93
662.349	3.91
662.538	3.9
662.726	3.91
662.915	3.9
663.104	3.83
663.293	3.85
663.482	3.8
663.671	3.78
663.86	3.73
664.048	3.75
664.237	3.7
664.426	3.7
664.615	3.67
664.803	3.53
664.992	3.54
665.181	3.64
665.369	3.7
665.558	3.64
665.747	3.86
665.935	3.87
666.124	3.87
666.312	3.93
666.501	4.04
666.69	3.98
666.878	3.95
667.067	3.9
667.255	3.91
667.444	3.97
667.632	4.04
667.82	4.16
668.009	4.26
668.197	4.31
668.386	4.32
668.574	4.27
668.762	4.18
668.951	4.23
669.139	4.29
669.327	4.28
669.516	4.46
669.704	4.54
669.892	4.57
670.08	4.51
670.269	4.58
670.457	4.49
670.645	4.57
670.833	4.58
671.021	4.64
671.21	4.64
671.398	4.64
671.586	4.68
671.774	4.73
671.962	4.72
672.15	4.8
672.338	4.91
672.526	4.97
672.714	5.02
672.902	5.06
673.09	5.19
673.278	5.22
673.466	5.26
673.654	5.36
673.842	5.6
674.03	5.55
674.218	5.73
674.405	5.82
674.593	5.83
674.781	5.82
674.969	5.82
675.157	5.7
675.344	5.76
675.532	5.89
675.72	5.95
675.908	6.14
676.095	6.31
676.283	6.38
676.471	6.4
676.658	6.46
676.846	6.51
677.033	6.75
677.221	6.9
677.409	6.91
677.596	6.96
677.784	7.1
677.971	7.05
678.159	6.99
678.346	7.09
678.534	7.2
678.721	7.24
678.909	7.28
679.096	7.36
679.283	7.5
679.471	7.43
679.658	7.49
679.846	7.56
680.033	7.69
680.22	7.59
680.408	7.61
680.595	7.65
680.782	7.66
680.969	7.74
681.157	7.98
681.344	8.08
681.531	8.05
681.718	8.11
681.905	8.08
682.093	8.02
682.28	8.15
682.467	8.49
682.654	8.52
682.841	8.53
683.028	8.55
683.215	8.56
683.402	8.38
683.589	8.61
683.776	8.85
683.963	9
684.15	9.17
684.337	9.3
684.524	9.31
684.711	9.2
684.898	9.25
685.085	9.27
685.271	9.35
685.458	9.38
685.645	9.47
685.832	9.56
686.019	9.72
686.205	9.82
686.392	9.89
686.579	10.14
686.766	10.37
686.952	10.41
687.139	10.54
687.326	10.74
687.512	10.95
687.699	11.05
687.886	11.23
688.072	11.43
688.259	11.58
688.445	11.64
688.632	11.86
688.818	12.09
689.005	12.23
689.191	12.53
689.378	12.7
689.564	12.9
689.751	12.95
689.937	13.23
690.124	13.35
690.31	13.64
690.496	13.95
690.683	14.42
690.869	14.51
691.055	14.72
691.242	14.96
691.428	15.27
691.614	15.56
691.8	15.92
691.987	16.39
692.173	16.64
692.359	16.81
692.545	17.04
692.731	17.42
692.918	17.6
693.104	17.86
693.29	18.26
693.476	18.57
693.662	19.13
693.848	19.5
694.034	19.76
694.22	20.01
694.406	20.43
694.592	20.47
694.778	20.72
694.964	21.28
695.15	21.51
695.336	21.69
695.522	22.16
695.708	22.61
695.894	22.93
696.08	23.38
696.265	23.93
696.451	24.24
696.637	24.54
696.823	24.78
697.009	24.98
697.194	25.26
697.38	25.68
697.566	26.19
697.751	26.69
697.937	27.23
698.123	27.41
698.308	27.34
698.494	27.5
698.68	27.71
698.865	27.78
699.051	28.38
699.236	28.9
699.422	29.17
699.607	29.68
699.793	30.32
699.978	30.39
700.164	30.67
700.349	30.98
700.535	30.98
700.72	31.22
700.906	31.73
701.091	32.14
701.276	32.6
701.462	33.09
701.647	33.54
701.832	33.83
702.018	34.12
702.203	34.36
702.388	34.74
702.573	34.78
702.759	34.99
702.944	35.36
703.129	35.57
703.314	35.8
703.499	35.8
703.684	36.09
703.87	36.28
704.055	36.65
704.24	36.8
704.425	37.42
704.61	37.75
704.795	37.89
704.98	38.33
705.165	38.6
705.35	38.95
705.535	39.16
705.72	39.72
705.905	39.87
706.09	40.29
706.275	40.18
706.459	40.66
706.644	40.62
706.829	40.85
707.014	41.17
707.199	41.54
707.384	41.37
707.568	41.75
707.753	42.15
707.938	42.16
708.123	42.74
708.307	42.97
708.492	43.28
708.677	43.15
708.861	43.82
709.046	43.94
709.231	44.4
709.415	44.25
709.6	44.47
709.784	44.51
709.969	44.84
710.153	45.1
710.338	45.66
710.522	46.04
710.707	46.07
710.891	46.07
711.076	46.38
711.26	46.78
711.445	47.47
711.629	47.87
711.813	48.12
711.998	48.43
712.182	48.2
712.366	48.42
712.551	48.6
712.735	48.71
712.919	49.07
713.103	49.56
713.288	49.47
713.472	49.73
713.656	49.93
713.84	50.01
714.024	50.69
714.208	51.12
714.393	51.78
714.577	52.71
714.761	53.26
714.945	53.37
715.129	53.71
715.313	53.84
715.497	54.36
715.681	54.4
715.865	54.83
716.049	54.92
716.233	55.27
716.417	55.68
716.601	56.2
716.785	56.45
716.968	56.92
717.152	57.23
717.336	57.48
717.52	58.15
717.704	58.65
717.888	59.31
718.071	59.71
718.255	59.96
718.439	59.89
718.622	60.31
718.806	60.47
718.99	60.67
719.174	60.69
719.357	60.73
719.541	60.96
719.724	61.45
719.908	61.79
720.092	62.28
720.275	63.39
720.459	63.64
720.642	64.24
720.826	65.25
721.009	65.68
721.193	65.64
721.376	66.24
721.559	66.44
721.743	66.32
721.926	66.75
722.11	67.15
722.293	67.09
722.476	67.25
722.66	67.41
722.843	67.48
723.026	67.82
723.21	68.44
723.393	68.69
723.576	69.41
723.759	69.67
723.942	70.08
724.126	71.15
724.309	72.11
724.492	72.6
724.675	73.17
724.858	73.63
725.041	73.21
725.224	73.58
725.407	73.66
725.59	73.8
725.774	74.41
725.957	75.39
726.14	75.38
726.322	75.61
726.505	76.29
726.688	76.27
726.871	76.22
727.054	76.73
727.237	76.93
727.42	77.33
727.603	77.77
727.786	77.73
727.968	77.65
728.151	77.94
728.334	77.68
728.517	77.58
728.699	78.26
728.882	78.87
729.065	79.31
729.248	79.44
729.43	80.53
729.613	81.51
729.796	81.35
729.978	82.17
730.161	83.08
730.343	82.72
730.526	83.15
730.708	83.83
730.891	84.29
731.073	84.71
731.256	85.34
731.438	85.07
731.621	85.85
731.803	85.59
731.986	86.33
732.168	86.56
732.35	86.53
732.533	86.63
732.715	87.01
732.898	86.9
733.08	87.48
733.262	87.65
733.444	86.8
733.627	87.04
733.809	86.91
733.991	87.05
734.173	87.7
734.355	89.03
734.538	89.25
734.72	89.72
734.902	90.07
735.084	90.12
735.266	89.62
735.448	90.29
735.63	90.92
735.812	90.93
735.994	89.86
736.176	90.62
736.358	91.2
736.54	91.16
736.722	91.45
736.904	93.49
737.086	93.33
737.268	92.44
737.45	92.67
737.632	93.2
737.814	92.49
737.995	93.52
738.177	93.46
738.359	93.9
738.541	93.68
738.723	94.66
738.904	94.63
739.086	95.57
739.268	95.59
739.449	95.87
739.631	95.24
739.813	95.24
739.994	95.81
740.176	95.75
740.358	96.25
740.539	96.17
740.721	96
740.902	95.17
741.084	95.2
741.265	94.56
741.447	95.43
741.628	95.89
741.81	95.75
741.991	96.26
742.172	96.8
742.354	97.03
742.535	97.15
742.717	97.73
742.898	98.46
743.079	98.18
743.261	97.08
743.442	96.85
743.623	97.2
743.804	95.76
743.986	95.74
744.167	96.46
744.348	95.67
744.529	95.59
744.71	96.11
744.891	97.31
745.073	97.34
745.254	99.5
745.435	99.39
745.616	98.72
745.797	97.56
745.978	97.89
746.159	97.94
746.34	98.64
746.521	98.87
746.702	98.45
746.883	98.87
747.064	98.04
747.245	98.37
747.426	99.23
747.606	100.26
747.787	100.8
747.968	101.03
748.149	100.71
748.33	100.34
748.51	100.88
748.691	98.5
748.872	98.69
749.053	98.66
749.233	98.96
749.414	97.47
749.595	99.56
749.775	99.72
749.956	99.58
750.137	99.89
750.317	99.51
750.498	99.83
750.678	99.11
750.859	99.29
751.04	98.79
751.22	100.48
751.4	99.53
751.581	99.15
751.761	98.54
751.942	98.88
752.122	98.44
752.303	98.58
752.483	99.67
752.663	100.9
752.844	101.13
753.024	100
753.204	100.45
753.385	99.36
753.565	100.09
753.745	100.24
753.925	100.56
754.106	100.71
754.286	101.63
754.466	100.43
754.646	100.67
754.826	100.38
755.006	100.43
755.187	100.96
755.367	101.21
755.547	100.84
755.727	102.49
755.907	100.21
756.087	99.24
756.267	98.22
756.447	98.06
756.627	97.54
756.807	98.29
756.987	98.17
757.167	99.74
757.346	98.98
757.526	99.95
757.706	99.45
757.886	99.11
758.066	98.01
758.246	98.17
758.425	97.69
758.605	99.28
758.785	100.69
758.965	101.85
759.144	105.25
759.324	104.64
759.504	103.63
759.683	103.87
759.863	102.52
760.043	100.48
760.222	100.94
760.402	100.83
760.581	100.12
760.761	98.72
760.94	97.71
761.12	98.05
761.299	98.26
761.479	98.63
761.658	100.26
761.838	100.92
762.017	100.36
762.197	99.85
762.376	99.37
762.555	99.53
762.735	99.03
762.914	97.23
763.093	96.85
763.273	96.64
763.452	96.1
763.631	95.07
763.81	96.95
763.99	98.54
764.169	99.75
764.348	101.27
764.527	102.48
764.706	100.76
764.885	100.82
765.064	100.7
765.243	100.75
765.423	100.41
765.602	100.89
765.781	101.26
765.96	99.5
766.139	97.96
766.318	96.6
766.497	98.56
766.676	97.79
766.854	98.97
767.033	98.73
767.212	99.95
767.391	97.28
767.57	98.48
767.749	96.16
767.928	97.37
768.106	98.45
768.285	97.31
768.464	95.41
768.643	97.95
768.821	97.09
769	96.99
769.179	100.23
769.357	100.43
769.536	98.76
769.715	98.55
769.893	99.12
770.072	97.4
770.25	98.95
770.429	99.38
770.607	98.21
770.786	98.23
770.964	97.75
771.143	96.42
771.321	96.96
771.5	99.24
771.678	97.74
771.857	97.42
772.035	99.67
772.213	99.69
772.392	97.64
772.57	98.66
772.748	99.67
772.927	98.25
773.105	97.61
773.283	96.8
773.461	96.28
773.64	96.01
773.818	94.9
773.996	93.46
774.174	95.15
774.352	92.57
774.531	93.21
774.709	93.94
774.887	97.24
775.065	97.93
775.243	99.06
775.421	98.73
775.599	96.63
775.777	94.04
775.955	91.59
776.133	94.13
776.311	94.64
776.489	97.67
776.667	99.51
776.844	100.43
777.022	99.75
777.2	101
777.378	99.9
777.556	98.84
777.734	97.6
777.911	97.87
778.089	97.96
778.267	96.54
778.445	94.96
778.622	95.72
778.8	96.14
778.978	94.38
779.155	94.18
779.333	92.88
779.511	90.45
779.688	88.53
779.866	87.08
780.043	89.7
780.221	92.67
780.398	94.92
780.576	96.18
780.753	99.1
780.931	98.2
781.108	98.77
781.286	99.44
781.463	97.66
781.64	96.49
781.818	95.35
781.995	95
782.172	94.93
782.35	94.8
782.527	92.89
782.704	92.52
782.882	94.11
783.059	92.68
783.236	91.75
783.413	92.94
783.59	91.4
783.768	87.37
783.945	92.9
784.122	97.21
784.299	99.07
784.476	101.82
784.653	106.58
784.83	103.87
785.007	102.86
785.184	102.67
785.361	101.95
785.538	97.18
785.715	91.79
785.892	91.76
786.069	91.92
786.246	91.27
786.423	93.54
786.6	99.8
786.776	99.95
786.953	97.72
787.13	99.95
787.307	97.94
787.484	98.72
787.66	100.21
787.837	101.29
788.014	99.62
788.191	100.76
788.367	100.66
788.544	99.76
788.721	98.69
788.897	98.61
789.074	96.2
789.25	92.2
789.427	91.51
789.603	91.78
789.78	90.1
789.956	91.34
790.133	90.17
790.309	88.26
790.486	83.11
790.662	87.49
790.839	88.52
791.015	89.11
791.192	89.9
791.368	100.57
791.544	95.39
791.721	96.49
791.897	96.42
792.073	98.74
792.249	93.31
792.426	94.64
792.602	92.57
792.778	95.42
792.954	92.64
793.13	92.64
793.307	95.98
793.483	94.55
793.659	91.71
793.835	89.83
794.011	92.33
794.187	88.52
794.363	90.29
794.539	90.4
794.715	91.83
794.891	88.78
795.067	87.39
795.243	84.37
795.419	90.33
795.595	92.39
795.771	97.34
795.947	99.56
796.122	101.91
796.298	99.73
796.474	98.39
796.65	96.72
796.826	97.87
797.001	102.95
797.177	98.5
797.353	94.25
797.529	96.5
797.704	95.32
797.88	89.58
798.056	87.9
798.231	92.82
798.407	87.59
798.582	86.1
798.758	87
798.934	94.21
799.109	93.91
799.285	96.19
799.46	104.6
799.636	108.62
799.811	101.74
799.986	98.71
800.162	99.12
800.337	95.16
800.513	86.6
800.688	85.49
800.863	87.07
801.039	88.14
801.214	89.76
801.389	99.18
801.565	98.37
801.74	106.16
801.915	104.55
802.09	100.2
802.265	97.98
802.441	102.94
802.616	87.73
802.791	88.84
802.966	88.83
803.141	87.8
803.316	86.44
803.491	90.8
803.666	92.78
803.841	94.96
804.016	93.26
804.191	93.61
804.366	99.84
804.541	93.71
804.716	87.12
804.891	85.22
805.066	89.69
805.241	87.45
805.416	82.86
805.591	83.49
805.765	81.2
805.94	77.5
806.115	69.21
806.29	75.97
806.464	78.42
806.639	83.98
806.814	80.18
806.989	91.64
807.163	87.63
807.338	89.27
807.512	93.6
807.687	95.84
807.862	85.29
808.036	87.44
808.211	87.41
808.385	79.42
808.56	85.2
808.734	86.52
808.909	83.24
809.083	75.63
809.258	79.22
809.432	76.19
809.606	71.64
809.781	72.49
809.955	76.75
810.13	75.7
810.304	75.16
810.478	81.87
810.652	82.01
810.827	79.31
811.001	84.09
811.175	86.31
811.349	83.54
811.524	75.77
811.698	72.53
811.872	74.88
812.046	74.24
812.22	75.79
812.394	87.49
812.568	102.79
812.742	102.07
812.916	102.53
813.09	98.89
813.264	104.17
813.438	103.3
813.612	100.1
813.786	92.79
813.96	103.19
814.134	95.65
814.308	83.21
814.482	77.59
814.656	80.12
814.83	79.84
815.003	80.27
815.177	83.43
815.351	91.09
815.525	99.22
815.698	98.55
815.872	97.61
816.046	107.92
816.219	109.25
816.393	109.71
816.567	108.98
816.74	100.22
816.914	91.77
817.088	87.93
817.261	83.75
817.435	84.09
817.608	89.1
817.782	85.16
817.955	88.45
818.129	99.93
818.302	98.64
818.475	98.01
818.649	108.81
818.822	111.19
818.996	101.43
819.169	99.74
819.342	90.27
819.516	89.69
819.689	85.58
819.862	94.86
820.035	86.79
820.209	94.48
820.382	97.16
820.555	99.85
820.728	94.05
820.901	85.61
821.075	86.59
821.248	97.92
821.421	97.44
821.594	92.71
821.767	114.03
821.94	112.77
822.113	88.43
822.286	88.85
822.459	98.8
822.632	92.31
822.805	93.78
822.978	98.1
823.151	95.41
823.324	82.61
823.496	83.45
823.669	74.34
823.842	74.54
824.015	76.78
824.188	72.45
824.361	75.8
824.533	94.29
824.706	96.96
824.879	90.12
825.051	97.6
825.224	95.71
825.397	102.64
825.569	101.81
825.742	107.03
825.915	103.19
826.087	117.23
826.26	96.1
826.432	97.6
826.605	99.2
826.777	94.8
826.95	81.97
827.122	69.89
827.295	51.48
827.467	54.66
827.64	44.24
827.812	45.24
827.984	60.58
828.157	80.6
828.329	73.56
828.501	99.22
828.674	92.03
828.846	89.61
829.018	96.58
829.19	99.2
829.363	84.05
829.535	82.86
829.707	84.65
829.879	74.81
830.051	81.83
830.223	96.45
830.395	107.68
830.568	98.33
830.74	89.69
830.912	86.11
831.084	81.57
831.256	78.86
831.428	82.87
831.6	86.59
831.772	79
831.943	74.93
832.115	74.43
832.287	81.68
832.459	80.5
832.631	91.42
832.803	100.23
832.975	105.14
833.146	94.98
833.318	88.6
833.49	92.99
833.662	103.11
833.833	90.43
834.005	99.9
834.177	125.72
834.348	121.46
834.52	86.97
834.692	96.97
834.863	96.45
835.035	84.23
835.206	82.84
835.378	79.13
835.549	77.8
835.721	72.5
835.892	70.15
836.064	78.31
836.235	83.81
836.407	95.51
836.578	91.78
836.749	85.23
836.921	78.95
837.092	84.11
837.264	68.78
837.435	71
837.606	68.98
837.777	62.47
837.949	55.65
838.12	52.56
838.291	62.5
838.462	78.27
838.633	89.75
838.805	86.18
838.976	93.81
839.147	94.61
839.318	89.7
839.489	95.04
839.66	107.59
839.831	144.06
840.002	144.29
840.173	179.69
840.344	147.61
840.515	136.95
840.686	121.74
840.857	116.48
841.028	117.05
841.199	115.52
841.369	111.18
841.54	104.41
841.711	104.92
841.882	80.71
842.053	72.93
842.223	90.25
842.394	104.23
842.565	115.77
842.736	160.32
842.906	292.03
843.077	211.12
843.248	204.9
843.418	171.94
843.589	106.3
843.759	105.59
843.93	94.17
844.101	80.42
844.271	70.64
844.442	87.45
844.612	82.35
844.783	58.95
844.953	66.64
845.123	48.29
845.294	44.85
845.464	47.02
845.635	77.02
845.805	97.76
845.975	116.97
846.146	135.11
846.316	110.36
846.486	138.84
846.656	115.64
846.827	116.79
846.997	124.77
847.167	105.32
847.337	87.44
847.507	94.99
847.677	93.11
847.848	90.91
848.018	121.02
848.188	129.72
848.358	119.42
848.528	132.12
848.698	161.69
848.868	149.68
849.038	134.28
849.208	92.15
849.378	92.71
849.548	55.12
849.718	70.82
849.887	76.59
850.057	79.48
850.227	63.39
850.397	55.93
850.567	42.85
850.737	38.18
850.906	33.78
851.076	35.32
851.246	36.53
851.415	46.27
851.585	62.33
851.755	68.54
851.924	79
852.094	83.17
852.264	68.58
852.433	39.99
852.603	60.18
852.772	62.83
852.942	60.97
853.111	61.52
853.281	73.79
853.45	49.39
853.62	19.56
853.789	10.84
853.959	38.7
854.128	61.29
854.297	76.44
854.467	161.71
854.636	181.16
854.805	139.21
854.975	121.16
855.144	89.36
855.313	67.5
855.482	71.76
855.652	60.73
855.821	77.26
855.99	71.89
856.159	75.45
856.328	78.34
856.497	66.09
856.667	72.82
856.836	104.61
857.005	109.28
857.174	94.92
857.343	127.23
857.512	112.35
857.681	84.91
857.85	90.63
858.019	70.42
858.188	64.8
858.356	75.88
858.525	82.41
858.694	99.85
858.863	108.79
859.032	80.76
859.201	55.98
859.369	77.76
859.538	44.54
859.707	29.77
859.876	43.18
860.044	76.45
860.213	86.96
860.382	111.85
860.55	143.44
860.719	189.31
860.888	188.07
861.056	130.06
861.225	119.49
861.393	123.44
861.562	117.76
861.73	116.91
861.899	95.62
862.067	87.91
862.236	81.75
862.404	66.41
862.572	48.55
862.741	72.07
862.909	73.46
863.078	61.46
863.246	74.33
863.414	102.41
863.582	124.04
863.751	104.81
863.919	107.33
864.087	108.48
864.255	90.64
864.424	76.59
864.592	74.17
864.76	71.59
864.928	73.77
865.096	42.94
865.264	33.7
865.432	32.88
865.6	30.02
865.768	13.69
865.936	16.08
866.104	27.73
866.272	10.82
866.44	12.3
866.608	-3.3
866.776	12.66
866.944	29.26
867.112	54.7
867.28	50.71
867.448	83.28
867.615	70.68
867.783	66.54
867.951	57.6
868.119	74.66
868.286	90.92
868.454	88.81
868.622	79.46
868.789	99.69
868.957	91.94
869.125	79.54
869.292	57.11
869.46	54.74
869.627	55.45
869.795	40.99
869.963	53.79
870.13	94.28
870.298	89.34
870.465	73.55
870.632	63.65
870.8	49.87
870.967	55.8
871.135	70.9
871.302	42.91
871.469	68.41
871.637	57.17
871.804	35.93
871.971	30.97
872.139	72.98
872.306	80.9
872.473	101.21
872.64	92.59
872.807	87.8
872.975	60.34
873.142	37.66
873.309	16.47
873.476	25.57
873.643	7.08
873.81	20.57
873.977	39.1
874.144	43.45
874.311	37.01
874.478	39.83
874.645	18.63
874.812	15.58
874.979	1.26
875.146	14.54
875.313	40.88
875.48	71.58
875.647	106.83
875.813	160.03
875.98	181.13
876.147	98.69
876.314	93.32
876.481	65.65
876.647	39.93
876.814	37.49
876.981	77.15
877.147	81.85
877.314	71.21
877.481	80.74
877.647	74.37
877.814	50.81
877.98	47.96
878.147	61.73
878.314	71
878.48	80.23
878.647	122.39
878.813	112.23
878.979	82.39
879.146	70.29
879.312	96.52
879.479	156.11
879.645	134.45
879.811	112.5
879.978	84.7
880.144	73.2
880.31	55.53
880.477	57.17
880.643	78.17
880.809	104.18
880.975	157.54
881.142	92.49
881.308	57.38
881.474	146.64
881.64	134.03
881.806	-116.46
881.972	104.19
882.138	160.39
882.304	64.43
882.47	21.12
882.636	54.96
882.802	36.32
882.968	33.71
883.134	41.85
883.3	62.09
883.466	72.16
883.632	130.29
883.798	132.89
883.964	263.07
884.129	391.19
884.295	179.1
884.461	52.89
884.627	24.07
884.793	46.11
884.958	49.78
885.124	57.81
885.29	71.38
885.455	67.25
885.621	50.73
885.787	21.44
885.952	16.28
886.118	36.83
886.283	47.13
886.449	55.52
886.614	47.8
886.78	74.77
886.945	82.05
887.111	81.12
887.276	68.21
887.442	81.16
887.607	76.55
887.773	-10.91
887.938	-46.9
888.103	-40.85
888.269	9.65
888.434	23.26
888.599	25.69
888.764	47.5
888.93	60.49
889.095	53.26
889.26	43.66
889.425	93.37
889.59	97.6
889.756	74.15
889.921	39.73
890.086	21.21
890.251	18.64
890.416	-5.83
890.581	-26.18
890.746	37.4
890.911	64.54
891.076	63.07
891.241	65.1
891.406	92.57
891.571	77.11
891.736	31.24
891.901	20.35
892.065	23.19
892.23	20.01
892.395	15.21
892.56	-32.77
892.725	0.42
892.889	-13.56
893.054	3.73
893.219	28.17
893.384	65.39
893.548	60.78
893.713	63.54
893.878	54.44
