Data from Ofav_PP_Phys_358_Reflection_1.txt Node
Date: Tue Jul 27 19:06:48 EDT 2021
User: USUARIO
Spectrometer: FLMT01687
Trigger mode: 0
Integration Time (sec): 8.500000E-1
Scans to average: 2
Electric dark correction enabled: true
Nonlinearity correction enabled: false
Boxcar width: 2
XAxis mode: Wavelengths
Number of Pixels in Spectrum: 3648
>>>>>Begin Spectral Data<<<<<
179.494	-1270.37
179.716	-450.54
179.937	-315.67
180.158	-289.09
180.38	-365.94
180.601	-388.02
180.823	106.6
181.044	76.82
181.265	21.61
181.486	-31.96
181.708	-18.56
181.929	72.44
182.15	20.62
182.372	52.68
182.593	54.09
182.814	96.69
183.035	90.68
183.257	75.14
183.478	45.31
183.699	45.98
183.92	43.42
184.141	40.71
184.363	70.01
184.584	78.83
184.805	81.47
185.026	55.13
185.247	69.82
185.468	34.32
185.689	12.88
185.91	-5.5
186.132	-0.14
186.353	13.29
186.574	25.12
186.795	48.79
187.016	65.57
187.237	77.7
187.458	59.31
187.679	51.28
187.9	25.08
188.121	36.86
188.342	43.28
188.563	48.42
188.784	72.34
189.005	88.68
189.226	69.25
189.447	51.25
189.667	65.11
189.888	61.2
190.109	60.65
190.33	81.26
190.551	83.02
190.772	42.34
190.993	30.01
191.214	26.98
191.434	17.78
191.655	29.19
191.876	29.78
192.097	26.46
192.318	39.89
192.538	60.09
192.759	60.28
192.98	66.09
193.201	83.29
193.421	92.37
193.642	57.29
193.863	36.39
194.083	39.1
194.304	10.64
194.525	-6.11
194.745	-27.51
194.966	-44.78
195.187	-56.74
195.407	-3.12
195.628	21.43
195.848	22.3
196.069	34.65
196.29	61.82
196.51	67.94
196.731	62.61
196.951	88.49
197.172	91.5
197.392	88.25
197.613	93.93
197.833	96.51
198.054	110.74
198.274	69.94
198.495	65.19
198.715	83.29
198.936	83.41
199.156	77.52
199.377	151.38
199.597	179.12
199.817	79.6
200.038	66.09
200.258	76.92
200.479	39.37
200.699	38.81
200.919	52.71
201.14	52.33
201.36	39.85
201.58	38.08
201.801	38.83
202.021	13.89
202.241	31.65
202.461	15.51
202.682	13.85
202.902	10.26
203.122	57.41
203.342	16.68
203.563	30.59
203.783	32.57
204.003	33.77
204.223	28.11
204.443	33.64
204.663	8.65
204.884	0.13
205.104	5.11
205.324	1.77
205.544	21.87
205.764	26.57
205.984	49.4
206.204	35.03
206.424	55.33
206.644	34.07
206.864	49.46
207.084	37.34
207.304	48.83
207.525	38.34
207.745	57.79
207.964	69.65
208.184	63.96
208.404	67.12
208.624	69.88
208.844	68.02
209.064	73.81
209.284	75.32
209.504	77.01
209.724	91.46
209.944	81.02
210.164	65.36
210.384	58.76
210.604	64.64
210.823	42.25
211.043	27.07
211.263	21.66
211.483	37.78
211.703	42.04
211.922	31.46
212.142	64.52
212.362	27.25
212.582	10.52
212.801	24.54
213.021	28.4
213.241	17.95
213.461	59.71
213.68	59.78
213.9	72.19
214.12	67.89
214.339	88.36
214.559	68.54
214.779	71.54
214.998	57.99
215.218	52.49
215.438	59.39
215.657	61.13
215.877	47.78
216.096	44.26
216.316	57.45
216.535	46.32
216.755	75.27
216.974	81.31
217.194	82.82
217.413	72.95
217.633	56.77
217.852	46.67
218.072	35.58
218.291	35.65
218.511	28.53
218.73	47.95
218.95	28.96
219.169	42.37
219.389	54.36
219.608	57.62
219.827	66.17
220.047	79.7
220.266	61.16
220.485	47.57
220.705	50.77
220.924	34.75
221.143	35.95
221.363	37.38
221.582	35.65
221.801	41.28
222.021	52.68
222.24	60.33
222.459	52.13
222.678	72.82
222.897	53.6
223.117	44.72
223.336	28.07
223.555	26.04
223.774	16.15
223.993	36.56
224.213	49.95
224.432	56.5
224.651	74.78
224.87	71.52
225.089	53.93
225.308	41.95
225.527	42.06
225.746	33.75
225.965	32.37
226.184	27
226.404	19.69
226.623	8.73
226.842	10.3
227.061	-0.33
227.28	11.99
227.499	31.06
227.718	35.15
227.936	41.85
228.155	55.06
228.374	65.16
228.593	46.96
228.812	67.1
229.031	59.59
229.25	55.67
229.469	34.81
229.688	48.36
229.907	-10.67
230.125	0.34
230.344	8.29
230.563	24.65
230.782	35.3
231.001	43.98
231.22	40.91
231.438	20.41
231.657	16.65
231.876	16.34
232.095	18.29
232.313	31.79
232.532	65.55
232.751	82.77
232.969	80.82
233.188	89.15
233.407	83.91
233.625	77.26
233.844	43.79
234.063	39.56
234.281	33.83
234.5	25.53
234.719	42.65
234.937	38.06
235.156	41.79
235.374	37.05
235.593	41.62
235.811	23.88
236.03	36.36
236.249	33.11
236.467	44.84
236.686	50.72
236.904	57.59
237.123	46.48
237.341	68.19
237.559	62.43
237.778	62.63
237.996	44
238.215	49.07
238.433	41.64
238.652	43.81
238.87	41.21
239.088	41.94
239.307	70.94
239.525	40.27
239.743	16.93
239.962	1.46
240.18	15.58
240.398	-5.87
240.617	10.38
240.835	35.27
241.053	61.83
241.271	54.82
241.49	61.33
241.708	76.63
241.926	49.95
242.144	37.27
242.363	67.46
242.581	66.95
242.799	34.02
243.017	21.7
243.235	26.23
243.453	0.38
243.672	13.33
243.89	22.98
244.108	39.34
244.326	33.39
244.544	35.63
244.762	29.18
244.98	41.1
245.198	46.09
245.416	67.93
245.634	86.3
245.852	112.1
246.07	110.04
246.288	98
246.506	92.34
246.724	78.11
246.942	61.52
247.16	60.45
247.378	57.58
247.596	47.32
247.814	43.21
248.032	25.26
248.25	21.59
248.468	22.02
248.685	44.63
248.903	39.07
249.121	52.77
249.339	64.28
249.557	64.71
249.775	40.45
249.992	41.87
250.21	52.47
250.428	38.69
250.646	21.91
250.863	38.77
251.081	56.65
251.299	49.12
251.517	54.8
251.734	61.51
251.952	32.89
252.17	39.52
252.387	28.09
252.605	37.46
252.823	37.88
253.04	70.79
253.258	58.88
253.475	57.61
253.693	59.26
253.911	75.4
254.128	54.35
254.346	60.5
254.563	60.16
254.781	60.27
254.998	64.55
255.216	39.9
255.433	22.27
255.651	41.79
255.868	35.21
256.086	19.68
256.303	36.54
256.521	53.57
256.738	54.53
256.956	52.56
257.173	44.08
257.39	48.31
257.608	51.62
257.825	43.2
258.043	48.32
258.26	64.53
258.477	59.51
258.695	49.91
258.912	70.36
259.129	77.42
259.346	63.43
259.564	85.52
259.781	101.78
259.998	45.98
260.216	41.84
260.433	40.2
260.65	39.5
260.867	33.95
261.084	41.69
261.302	31.16
261.519	36.98
261.736	27.15
261.953	19.23
262.17	23.84
262.387	25.37
262.604	31.12
262.822	44.34
263.039	46.68
263.256	57.42
263.473	71.19
263.69	75.92
263.907	49.23
264.124	75.18
264.341	69.73
264.558	62.36
264.775	49.31
264.992	62.03
265.209	38.29
265.426	32.94
265.643	21.23
265.86	12.3
266.077	13.08
266.294	21.03
266.51	33.08
266.727	42.43
266.944	49.06
267.161	36.29
267.378	52.77
267.595	54.04
267.812	50.83
268.028	62.05
268.245	66.51
268.462	49.74
268.679	31.66
268.896	31.14
269.112	16.54
269.329	27.52
269.546	40.71
269.763	39.41
269.979	44.94
270.196	68.42
270.413	71.18
270.629	65.7
270.846	78.4
271.063	57.38
271.279	47.76
271.496	38.04
271.712	18.32
271.929	-5.46
272.146	19.03
272.362	28.11
272.579	23.21
272.795	40.42
273.012	46.89
273.228	43.44
273.445	47.34
273.661	54.22
273.878	44.85
274.094	33.76
274.311	42.58
274.527	40.04
274.744	31.62
274.96	27.95
275.177	22.5
275.393	16.46
275.609	3.04
275.826	8.99
276.042	11.89
276.259	43.66
276.475	34.36
276.691	41.03
276.908	33.33
277.124	43.4
277.34	44.12
277.557	63.01
277.773	53.42
277.989	61.84
278.205	60.32
278.422	55.01
278.638	47.13
278.854	68.48
279.07	77.52
279.286	61.72
279.503	59.58
279.719	59.71
279.935	61.84
280.151	63.35
280.367	70.96
280.583	66.99
280.799	74.26
281.016	58.53
281.232	48.24
281.448	46.01
281.664	40.97
281.88	13.22
282.096	9.23
282.312	14.07
282.528	-3.24
282.744	-10.23
282.96	3.07
283.176	33.27
283.392	42.58
283.608	85.6
283.824	72.12
284.04	42.59
284.256	37.87
284.471	26.26
284.687	7.22
284.903	5.49
285.119	30.24
285.335	16.07
285.551	15.36
285.767	31.9
285.982	30.43
286.198	41.79
286.414	43.98
286.63	50.23
286.846	35.19
287.061	34.21
287.277	11.77
287.493	14.05
287.709	13.15
287.924	25.17
288.14	37.58
288.356	61.81
288.571	74.72
288.787	68.32
289.003	67.79
289.218	58.91
289.434	60.51
289.65	56.96
289.865	44.17
290.081	46.81
290.296	42.48
290.512	40.99
290.727	40.4
290.943	74.36
291.159	91.82
291.374	106.56
291.59	99.29
291.805	79.34
292.021	63.7
292.236	65.09
292.451	51.07
292.667	46.34
292.882	44.14
293.098	33.56
293.313	25.97
293.529	40.48
293.744	36.08
293.959	32.03
294.175	41.88
294.39	34.86
294.605	25.63
294.821	32.42
295.036	42.77
295.251	37.3
295.467	26.33
295.682	25.23
295.897	19
296.112	36.38
296.328	65.5
296.543	78.04
296.758	72.3
296.973	75.87
297.188	70.87
297.404	42.83
297.619	43.9
297.834	56.43
298.049	46.55
298.264	47.07
298.479	58.78
298.694	58.91
298.909	44.09
299.125	46.75
299.34	40.25
299.555	47.48
299.77	40.37
299.985	40.62
300.2	41.44
300.415	37.18
300.63	27.98
300.845	32.57
301.06	37.27
301.275	41.74
301.49	42.77
301.704	35.24
301.919	39.41
302.134	47.31
302.349	37.06
302.564	30.03
302.779	22.04
302.994	21.64
303.209	25.93
303.423	31.17
303.638	26.83
303.853	33.73
304.068	41.3
304.283	42.51
304.497	50.04
304.712	56.45
304.927	57.66
305.142	53.35
305.356	28.18
305.571	16.4
305.786	23.04
306	43.33
306.215	52.2
306.43	66.51
306.644	75.77
306.859	80.74
307.074	84.87
307.288	72.76
307.503	74.19
307.717	64.79
307.932	47.58
308.147	45.42
308.361	45.12
308.576	36.17
308.79	43.71
309.005	56.4
309.219	46.62
309.434	47.86
309.648	46.45
309.863	37.09
310.077	38.74
310.292	25.59
310.506	16.9
310.72	17.32
310.935	2.33
311.149	-9.3
311.364	-3.58
311.578	10.44
311.792	12.43
312.007	35.16
312.221	33.2
312.435	28.82
312.649	41.8
312.864	42.43
313.078	30.64
313.292	54.26
313.507	59.48
313.721	68.13
313.935	54.69
314.149	51.7
314.363	50.4
314.578	46.63
314.792	34.83
315.006	43.49
315.22	43.38
315.434	37.26
315.648	36.7
315.862	24.33
316.077	18.08
316.291	23.58
316.505	24.06
316.719	25.88
316.933	44.16
317.147	41.3
317.361	40.5
317.575	25.21
317.789	36.53
318.003	26.08
318.217	25.19
318.431	12.42
318.645	31.19
318.859	29.35
319.073	31.94
319.287	35.15
319.5	35.31
319.714	15.31
319.928	20.44
320.142	22.7
320.356	25.55
320.57	48.64
320.784	55.29
320.997	56.44
321.211	59.03
321.425	55.54
321.639	39.33
321.853	32.96
322.066	27.48
322.28	0.32
322.494	-6.13
322.707	1.34
322.921	9.66
323.135	2.87
323.349	20.84
323.562	36.14
323.776	35.37
323.989	9.37
324.203	17.47
324.417	-2.11
324.63	9.18
324.844	20.76
325.057	32.75
325.271	57.01
325.485	67.45
325.698	61.56
325.912	44.4
326.125	64.39
326.339	48.5
326.552	48.8
326.766	37.44
326.979	38.58
327.193	18.65
327.406	13.78
327.619	6.44
327.833	4.65
328.046	14.8
328.26	16.08
328.473	23.32
328.686	38.1
328.9	37.53
329.113	47.65
329.326	62.74
329.54	48.42
329.753	25.36
329.966	21.58
330.179	-4.93
330.393	20.28
330.606	10.31
330.819	37.99
331.032	55.96
331.246	62.63
331.459	58.11
331.672	70.05
331.885	66.49
332.098	76.41
332.311	79.78
332.525	78.19
332.738	66.07
332.951	60.39
333.164	47.4
333.377	41.69
333.59	41.34
333.803	45.22
334.016	40.65
334.229	32.59
334.442	42.62
334.655	46.24
334.868	45.71
335.081	41.88
335.294	51.74
335.507	42.96
335.72	47.18
335.933	28.96
336.146	32.19
336.359	17.85
336.572	28.31
336.785	19.77
336.997	43.61
337.21	63.51
337.423	80.96
337.636	72.72
337.849	63.3
338.062	52.48
338.274	34.96
338.487	32.76
338.7	21.03
338.913	21.83
339.125	31.24
339.338	28.05
339.551	14.64
339.763	36.84
339.976	32.32
340.189	28.45
340.402	39.63
340.614	37.63
340.827	38.74
341.039	41.23
341.252	29.2
341.465	4.35
341.677	23.97
341.89	16.79
342.102	27.82
342.315	38.52
342.527	48.27
342.74	44.82
342.952	33.69
343.165	34.73
343.377	21.41
343.59	17.87
343.802	11.19
344.015	23.31
344.227	16.23
344.44	12.11
344.652	7.12
344.864	11.94
345.077	0.41
345.289	2.85
345.502	11.61
345.714	20.95
345.926	12.79
346.139	25.54
346.351	21.69
346.563	18.66
346.775	18.79
346.988	30.75
347.2	16.81
347.412	25.32
347.624	26.43
347.837	9.84
348.049	18.81
348.261	19.27
348.473	20.91
348.685	32.5
348.897	46.36
349.11	42.86
349.322	45
349.534	41.74
349.746	35.05
349.958	44.72
350.17	43.57
350.382	42.38
350.594	30.72
350.806	49.13
351.018	37.24
351.23	29.02
351.442	40.13
351.654	69.38
351.866	43.34
352.078	48.83
352.29	47
352.502	53.04
352.714	36.03
352.926	36.44
353.138	28.47
353.35	41.2
353.561	31.66
353.773	32.28
353.985	42.49
354.197	45.11
354.409	38.51
354.621	33.11
354.832	41.51
355.044	32.63
355.256	36.17
355.468	40.33
355.679	54.11
355.891	49.17
356.103	59.87
356.314	60.66
356.526	55.22
356.738	31.29
356.949	26.87
357.161	35.75
357.373	22.91
357.584	28.12
357.796	42.38
358.008	47.59
358.219	44.37
358.431	42.35
358.642	30.91
358.854	34.92
359.065	27.76
359.277	26.95
359.488	39.6
359.7	43.78
359.911	40.1
360.123	48.56
360.334	41.84
360.546	40.3
360.757	51.1
360.969	44.65
361.18	43.35
361.391	47.84
361.603	47.77
361.814	36.25
362.025	49.01
362.237	38.43
362.448	22.68
362.659	17.7
362.871	14.91
363.082	2.57
363.293	15.91
363.504	34.27
363.716	25.23
363.927	28.51
364.138	24.41
364.349	19.88
364.56	8.67
364.772	15.34
364.983	23.86
365.194	27.62
365.405	23.69
365.616	25.67
365.827	36.46
366.038	44.72
366.25	41.07
366.461	50.21
366.672	46.97
366.883	28.56
367.094	21.16
367.305	21.73
367.516	26.53
367.727	45.1
367.938	53.45
368.149	49.7
368.36	57.14
368.571	31.87
368.781	24.49
368.992	19.23
369.203	3.07
369.414	3.93
369.625	22.78
369.836	18.96
370.047	22.06
370.258	34.03
370.468	20.51
370.679	3.53
370.89	-3.73
371.101	-0.45
371.312	0.87
371.522	8.54
371.733	22.45
371.944	32.46
372.155	32.66
372.365	33.22
372.576	32.46
372.787	28.75
372.997	34.17
373.208	31.98
373.419	40.56
373.629	44.26
373.84	47.61
374.05	32.97
374.261	36.16
374.472	30.84
374.682	24.04
374.893	24.04
375.103	33.71
375.314	41.08
375.524	43.11
375.735	47.7
375.945	38.86
376.156	35.42
376.366	29.14
376.577	19.32
376.787	20.11
376.997	22.59
377.208	25.88
377.418	22.97
377.629	29.14
377.839	38.01
378.049	38.52
378.26	35.06
378.47	36.15
378.68	36.57
378.89	29.31
379.101	25.56
379.311	22.02
379.521	15.29
379.732	25.6
379.942	37.41
380.152	35.24
380.362	43.12
380.572	44.31
380.783	30.34
380.993	17.31
381.203	19.28
381.413	10.73
381.623	16.61
381.833	22.54
382.043	27.67
382.253	28.78
382.463	33.96
382.674	36.19
382.884	31.94
383.094	17.18
383.304	23.96
383.514	23.51
383.724	17.81
383.934	21.73
384.144	22.15
384.353	19.27
384.563	25.51
384.773	21.41
384.983	18.13
385.193	23.74
385.403	24.74
385.613	23.37
385.823	27.03
386.033	26.42
386.242	26.43
386.452	22.31
386.662	24.3
386.872	25.51
387.082	22.28
387.291	17.47
387.501	16.88
387.711	10.33
387.921	8.35
388.13	11.2
388.34	14.72
388.55	14.91
388.759	11.99
388.969	11.31
389.179	14.43
389.388	13.7
389.598	15.46
389.807	16.67
390.017	16.12
390.227	18.16
390.436	19.84
390.646	17.51
390.855	14.73
391.065	13.41
391.274	9.46
391.484	6.62
391.693	6.15
391.903	9.33
392.112	8.31
392.322	8.01
392.531	7.23
392.74	9.61
392.95	8.33
393.159	10.4
393.369	10.12
393.578	11.29
393.787	10.72
393.997	12.61
394.206	13.83
394.415	14.36
394.625	14.56
394.834	13.29
395.043	13.14
395.252	11.72
395.462	12.11
395.671	12.01
395.88	13.25
396.089	13.16
396.298	13.21
396.508	12.67
396.717	12.95
396.926	12.14
397.135	11.3
397.344	11.46
397.553	11.26
397.762	10.4
397.971	10.38
398.181	10.48
398.39	10.24
398.599	10.28
398.808	10.89
399.017	11.25
399.226	11.39
399.435	11.48
399.644	11.74
399.853	11.37
400.062	11.62
400.27	11.31
400.479	10.89
400.688	10.81
400.897	11.1
401.106	11.03
401.315	11.47
401.524	11.72
401.733	11.51
401.941	11.45
402.15	11.22
402.359	10.9
402.568	11.07
402.777	10.95
402.985	10.94
403.194	11.09
403.403	11.25
403.612	10.85
403.82	10.86
404.029	10.7
404.238	10.58
404.446	10.42
404.655	10.66
404.864	10.78
405.072	10.89
405.281	10.74
405.489	10.64
405.698	10.57
405.906	10.56
406.115	10.31
406.324	10.03
406.532	9.8
406.741	9.72
406.949	9.72
407.158	9.66
407.366	9.88
407.574	10.16
407.783	10.13
407.991	9.89
408.2	10.01
408.408	10
408.617	9.88
408.825	9.85
409.033	9.88
409.242	9.77
409.45	9.69
409.658	9.68
409.867	9.59
410.075	9.56
410.283	9.59
410.491	9.51
410.7	9.44
410.908	9.5
411.116	9.48
411.324	9.34
411.533	9.4
411.741	9.25
411.949	9.11
412.157	9.12
412.365	9.45
412.573	9.36
412.781	9.55
412.99	9.73
413.198	9.82
413.406	9.53
413.614	9.66
413.822	9.59
414.03	9.42
414.238	9.34
414.446	9.3
414.654	9.28
414.862	9.26
415.07	9.08
415.278	9.1
415.486	8.96
415.694	8.8
415.902	8.9
416.109	9.1
416.317	9.03
416.525	9.16
416.733	9.2
416.941	9.09
417.149	9.04
417.357	9.05
417.564	8.85
417.772	8.79
417.98	8.81
418.188	8.89
418.395	8.85
418.603	8.91
418.811	9.03
419.019	9.02
419.226	8.99
419.434	9.1
419.642	9.32
419.849	9.21
420.057	9.06
420.265	8.98
420.472	8.76
420.68	8.51
420.887	8.52
421.095	8.57
421.302	8.48
421.51	8.62
421.717	8.71
421.925	8.55
422.132	8.52
422.34	8.55
422.547	8.39
422.755	8.45
422.962	8.51
423.17	8.49
423.377	8.67
423.585	8.84
423.792	8.78
423.999	8.7
424.207	8.71
424.414	8.43
424.621	8.21
424.829	8.09
425.036	8.22
425.243	8.13
425.451	8.22
425.658	8.2
425.865	8.3
426.072	8.18
426.28	8.21
426.487	8.32
426.694	8.29
426.901	8.3
427.108	8.32
427.315	8.34
427.523	8.12
427.73	8.07
427.937	7.99
428.144	8.02
428.351	7.91
428.558	8.15
428.765	8.19
428.972	8.25
429.179	8.21
429.386	8.31
429.593	8.32
429.8	8.28
430.007	8.32
430.214	8.18
430.421	8.2
430.628	8.1
430.835	8.28
431.042	8.14
431.249	8.42
431.456	8.49
431.662	8.67
431.869	8.61
432.076	8.83
432.283	8.7
432.49	8.58
432.697	8.42
432.903	8.52
433.11	8.55
433.317	8.52
433.524	8.59
433.73	8.63
433.937	8.48
434.144	8.34
434.35	8.32
434.557	8.24
434.764	8.13
434.97	8.21
435.177	8.24
435.384	8.09
435.59	8.15
435.797	8.25
436.003	8.24
436.21	8.12
436.416	8.25
436.623	8.2
436.829	8.08
437.036	7.96
437.242	8.07
437.449	7.98
437.655	8.1
437.862	8.15
438.068	8.23
438.275	8.21
438.481	8.35
438.687	8.22
438.894	8.23
439.1	8.21
439.307	8.15
439.513	8.17
439.719	8.33
439.926	8.28
440.132	8.41
440.338	8.39
440.544	8.2
440.751	7.98
440.957	8.02
441.163	7.82
441.369	8.03
441.575	8.11
441.782	8.27
441.988	8.22
442.194	8.3
442.4	8.19
442.606	8.24
442.812	8.22
443.018	8.21
443.224	8.15
443.431	8.05
443.637	8.06
443.843	7.98
444.049	7.98
444.255	7.89
444.461	7.87
444.667	7.82
444.873	7.87
445.079	7.92
445.284	8.05
445.49	8.06
445.696	8.04
445.902	8.01
446.108	8
446.314	7.94
446.52	8.09
446.726	8.21
446.931	8.28
447.137	8.19
447.343	8.13
447.549	7.96
447.755	7.88
447.96	7.86
448.166	7.95
448.372	8.1
448.578	8.22
448.783	8.29
448.989	8.34
449.195	8.3
449.4	8.25
449.606	8.15
449.812	8.09
450.017	7.99
450.223	7.97
450.428	7.93
450.634	7.97
450.84	7.97
451.045	8.1
451.251	8.2
451.456	8.21
451.662	8.19
451.867	8.31
452.073	8.2
452.278	8.1
452.483	8.1
452.689	8.25
452.894	8.15
453.1	8.07
453.305	8.12
453.51	8.24
453.716	8.04
453.921	8.1
454.127	8.3
454.332	8.25
454.537	8.13
454.742	8.2
454.948	8.03
455.153	7.89
455.358	7.9
455.563	8.02
455.769	8.01
455.974	8.1
456.179	8.21
456.384	8.09
456.589	8.06
456.795	7.93
457	7.88
457.205	7.68
457.41	7.74
457.615	7.65
457.82	7.7
458.025	7.66
458.23	7.92
458.435	7.93
458.64	7.86
458.845	7.95
459.05	7.88
459.255	7.8
459.46	7.84
459.665	8
459.87	8
460.075	8.2
460.28	8.16
460.485	8.13
460.69	8.02
460.895	8.09
461.099	8.07
461.304	8.04
461.509	8.05
461.714	8.21
461.919	8.27
462.123	8.27
462.328	8.29
462.533	8.3
462.738	8.28
462.942	8.12
463.147	8.12
463.352	8.11
463.556	8.11
463.761	7.99
463.966	7.94
464.17	8.03
464.375	8.11
464.58	8.16
464.784	8.19
464.989	8.3
465.193	8.23
465.398	8.25
465.602	8.3
465.807	8.32
466.011	8.28
466.216	8.18
466.42	8.12
466.625	8.02
466.829	7.99
467.034	8.08
467.238	8.21
467.443	8.3
467.647	8.33
467.851	8.42
468.056	8.36
468.26	8.37
468.464	8.3
468.669	8.3
468.873	8.21
469.077	8.23
469.282	8.19
469.486	8.17
469.69	8.14
469.894	8.21
470.099	8.25
470.303	8.24
470.507	8.19
470.711	8.32
470.915	8.3
471.119	8.39
471.324	8.38
471.528	8.45
471.732	8.38
471.936	8.38
472.14	8.28
472.344	8.37
472.548	8.34
472.752	8.35
472.956	8.29
473.16	8.37
473.364	8.29
473.568	8.28
473.772	8.26
473.976	8.23
474.18	8.04
474.384	8
474.588	8.08
474.792	8.1
474.995	8.12
475.199	8.22
475.403	8.33
475.607	8.3
475.811	8.33
476.015	8.37
476.218	8.41
476.422	8.3
476.626	8.33
476.83	8.3
477.033	8.41
477.237	8.37
477.441	8.46
477.644	8.45
477.848	8.49
478.052	8.33
478.255	8.32
478.459	8.37
478.663	8.35
478.866	8.33
479.07	8.33
479.273	8.37
479.477	8.29
479.681	8.37
479.884	8.34
480.088	8.4
480.291	8.42
480.495	8.43
480.698	8.36
480.901	8.5
481.105	8.48
481.308	8.4
481.512	8.31
481.715	8.25
481.919	8.17
482.122	8.2
482.325	8.25
482.529	8.36
482.732	8.46
482.935	8.46
483.138	8.47
483.342	8.4
483.545	8.41
483.748	8.41
483.952	8.36
484.155	8.32
484.358	8.34
484.561	8.29
484.764	8.12
484.967	8.17
485.171	8.16
485.374	8.14
485.577	8.15
485.78	8.26
485.983	8.21
486.186	8.19
486.389	8.19
486.592	8.18
486.795	8.17
486.998	8.14
487.201	8.19
487.404	8.23
487.607	8.33
487.81	8.33
488.013	8.37
488.216	8.42
488.419	8.37
488.622	8.18
488.825	8.17
489.028	8.18
489.231	8.05
489.433	8.05
489.636	8.17
489.839	8.19
490.042	8.18
490.245	8.2
490.447	8.26
490.65	8.22
490.853	8.18
491.056	8.15
491.258	8.19
491.461	8.18
491.664	8.18
491.866	8.18
492.069	8.19
492.272	8.19
492.474	8.19
492.677	8.21
492.879	8.2
493.082	8.16
493.285	8.15
493.487	8.11
493.69	7.99
493.892	7.96
494.095	8.04
494.297	8
494.5	8.09
494.702	8.15
494.905	8.14
495.107	8.15
495.309	8.14
495.512	8.01
495.714	8.06
495.917	8.08
496.119	7.99
496.321	8.03
496.524	8.06
496.726	7.99
496.928	8.03
497.13	8.13
497.333	8.16
497.535	8.23
497.737	8.3
497.939	8.26
498.142	8.14
498.344	8.18
498.546	8.09
498.748	8.12
498.95	8.12
499.152	8.15
499.355	8.07
499.557	8.11
499.759	8.14
499.961	8.21
500.163	8.27
500.365	8.35
500.567	8.31
500.769	8.3
500.971	8.35
501.173	8.31
501.375	8.3
501.577	8.4
501.779	8.38
501.981	8.38
502.183	8.41
502.385	8.42
502.587	8.32
502.788	8.38
502.99	8.33
503.192	8.35
503.394	8.35
503.596	8.43
503.798	8.44
503.999	8.45
504.201	8.42
504.403	8.42
504.605	8.38
504.806	8.37
505.008	8.43
505.21	8.41
505.411	8.35
505.613	8.42
505.815	8.3
506.016	8.23
506.218	8.33
506.42	8.4
506.621	8.32
506.823	8.39
507.024	8.36
507.226	8.3
507.427	8.22
507.629	8.26
507.83	8.16
508.032	8.16
508.233	8.17
508.435	8.2
508.636	8.24
508.838	8.36
509.039	8.43
509.24	8.41
509.442	8.44
509.643	8.43
509.845	8.34
510.046	8.35
510.247	8.4
510.448	8.45
510.65	8.49
510.851	8.5
511.052	8.47
511.254	8.49
511.455	8.52
511.656	8.52
511.857	8.57
512.058	8.6
512.26	8.6
512.461	8.54
512.662	8.5
512.863	8.48
513.064	8.41
513.265	8.37
513.466	8.41
513.667	8.47
513.868	8.46
514.069	8.55
514.27	8.51
514.471	8.44
514.672	8.4
514.873	8.44
515.074	8.43
515.275	8.51
515.476	8.52
515.677	8.51
515.878	8.45
516.079	8.45
516.28	8.43
516.481	8.45
516.682	8.47
516.882	8.58
517.083	8.54
517.284	8.56
517.485	8.58
517.686	8.58
517.886	8.58
518.087	8.62
518.288	8.62
518.488	8.59
518.689	8.59
518.89	8.54
519.091	8.58
519.291	8.59
519.492	8.6
519.692	8.64
519.893	8.7
520.094	8.59
520.294	8.62
520.495	8.65
520.695	8.69
520.896	8.64
521.096	8.7
521.297	8.72
521.497	8.7
521.698	8.62
521.898	8.65
522.099	8.7
522.299	8.68
522.499	8.66
522.7	8.68
522.9	8.68
523.101	8.62
523.301	8.58
523.501	8.59
523.702	8.63
523.902	8.56
524.102	8.67
524.302	8.75
524.503	8.79
524.703	8.79
524.903	8.83
525.103	8.79
525.304	8.73
525.504	8.7
525.704	8.7
525.904	8.75
526.104	8.74
526.304	8.79
526.504	8.82
526.705	8.79
526.905	8.82
527.105	8.78
527.305	8.76
527.505	8.75
527.705	8.82
527.905	8.79
528.105	8.8
528.305	8.84
528.505	8.85
528.705	8.78
528.905	8.79
529.105	8.88
529.304	8.86
529.504	8.84
529.704	8.9
529.904	8.95
530.104	8.95
530.304	8.94
530.503	8.98
530.703	8.95
530.903	9.01
531.103	9.03
531.303	9.03
531.502	9.05
531.702	9.02
531.902	8.95
532.101	8.89
532.301	8.94
532.501	8.92
532.7	9.01
532.9	9
533.1	9.04
533.299	9.03
533.499	9.1
533.698	9.12
533.898	9.16
534.097	9.18
534.297	9.22
534.496	9.19
534.696	9.2
534.895	9.15
535.095	9.19
535.294	9.14
535.494	9.17
535.693	9.16
535.892	9.18
536.092	9.17
536.291	9.22
536.491	9.22
536.69	9.22
536.889	9.27
537.088	9.24
537.288	9.25
537.487	9.26
537.686	9.31
537.886	9.39
538.085	9.41
538.284	9.41
538.483	9.41
538.682	9.41
538.882	9.39
539.081	9.38
539.28	9.45
539.479	9.52
539.678	9.53
539.877	9.52
540.076	9.6
540.275	9.56
540.474	9.54
540.673	9.58
540.872	9.59
541.071	9.6
541.27	9.67
541.469	9.74
541.668	9.63
541.867	9.67
542.066	9.68
542.265	9.72
542.464	9.7
542.663	9.86
542.862	9.95
543.06	9.98
543.259	10.01
543.458	10.08
543.657	10.16
543.856	10.18
544.054	10.22
544.253	10.2
544.452	10.2
544.651	10.13
544.849	10.09
545.048	10.15
545.247	10.26
545.445	10.27
545.644	10.26
545.843	10.32
546.041	10.31
546.24	10.26
546.438	10.37
546.637	10.44
546.836	10.46
547.034	10.55
547.233	10.59
547.431	10.58
547.63	10.66
547.828	10.7
548.027	10.63
548.225	10.62
548.423	10.65
548.622	10.66
548.82	10.73
549.019	10.84
549.217	10.86
549.415	10.92
549.614	10.91
549.812	10.87
550.01	10.93
550.209	11.02
550.407	11.06
550.605	11.13
550.803	11.19
551.002	11.21
551.2	11.27
551.398	11.28
551.596	11.39
551.794	11.46
551.993	11.52
552.191	11.54
552.389	11.58
552.587	11.64
552.785	11.65
552.983	11.64
553.181	11.75
553.379	11.85
553.577	11.92
553.775	11.98
553.973	12.09
554.171	12.09
554.369	12.16
554.567	12.19
554.765	12.33
554.963	12.37
555.161	12.42
555.359	12.52
555.557	12.6
555.755	12.63
555.952	12.77
556.15	12.83
556.348	12.79
556.546	12.83
556.744	12.89
556.941	12.82
557.139	12.94
557.337	13.12
557.535	13.12
557.732	13.15
557.93	13.32
558.128	13.32
558.325	13.34
558.523	13.4
558.721	13.49
558.918	13.49
559.116	13.59
559.313	13.68
559.511	13.86
559.708	13.97
559.906	14.1
560.104	14.23
560.301	14.3
560.498	14.39
560.696	14.39
560.893	14.44
561.091	14.47
561.288	14.54
561.486	14.47
561.683	14.53
561.88	14.61
562.078	14.67
562.275	14.67
562.473	14.81
562.67	14.91
562.867	15.04
563.064	15.15
563.262	15.26
563.459	15.35
563.656	15.47
563.853	15.5
564.051	15.54
564.248	15.62
564.445	15.77
564.642	15.87
564.839	16.02
565.036	16.23
565.234	16.31
565.431	16.32
565.628	16.4
565.825	16.34
566.022	16.37
566.219	16.5
566.416	16.57
566.613	16.65
566.81	16.84
567.007	16.84
567.204	16.84
567.401	16.93
567.598	17.06
567.795	17.06
567.991	17.11
568.188	17.26
568.385	17.34
568.582	17.37
568.779	17.49
568.976	17.59
569.172	17.64
569.369	17.67
569.566	17.69
569.763	17.66
569.96	17.79
570.156	17.78
570.353	17.81
570.55	17.84
570.746	17.99
570.943	18
571.14	18.01
571.336	18.08
571.533	18.07
571.729	18.07
571.926	18.1
572.123	18.21
572.319	18.32
572.516	18.46
572.712	18.49
572.909	18.54
573.105	18.53
573.302	18.52
573.498	18.54
573.695	18.6
573.891	18.55
574.087	18.54
574.284	18.59
574.48	18.62
574.677	18.57
574.873	18.72
575.069	18.83
575.266	18.87
575.462	18.77
575.658	18.81
575.854	18.84
576.051	18.85
576.247	18.88
576.443	19.03
576.639	19.14
576.835	19.02
577.032	19.01
577.228	18.95
577.424	18.96
577.62	18.94
577.816	19.01
578.012	19.05
578.208	19.13
578.404	19.08
578.6	19.15
578.796	19.19
578.993	19.26
579.189	19.24
579.384	19.26
579.58	19.24
579.776	19.21
579.972	19.12
580.168	19.11
580.364	19.01
580.56	18.98
580.756	19.06
580.952	19.07
581.148	18.97
581.343	19.07
581.539	19.04
581.735	18.94
581.931	18.95
582.127	19.07
582.322	19.03
582.518	18.96
582.714	18.96
582.909	18.93
583.105	18.84
583.301	18.9
583.496	18.95
583.692	18.9
583.888	18.81
584.083	18.72
584.279	18.58
584.474	18.58
584.67	18.49
584.866	18.46
585.061	18.56
585.257	18.52
585.452	18.49
585.648	18.52
585.843	18.61
586.039	18.58
586.234	18.61
586.429	18.6
586.625	18.67
586.82	18.6
587.015	18.54
587.211	18.55
587.406	18.56
587.601	18.51
587.797	18.58
587.992	18.63
588.187	18.67
588.383	18.69
588.578	18.68
588.773	18.66
588.968	18.78
589.163	18.78
589.359	18.63
589.554	18.65
589.749	18.66
589.944	18.56
590.139	18.59
590.334	18.69
590.529	18.84
590.724	18.82
590.919	18.84
591.114	18.8
591.309	18.88
591.504	18.75
591.699	18.78
591.894	18.8
592.089	18.85
592.284	18.78
592.479	18.79
592.674	18.83
592.869	18.83
593.064	18.93
593.259	19.12
593.454	19.24
593.648	19.25
593.843	19.34
594.038	19.4
594.233	19.28
594.428	19.32
594.622	19.41
594.817	19.5
595.012	19.44
595.206	19.55
595.401	19.54
595.596	19.61
595.79	19.6
595.985	19.72
596.18	19.79
596.374	19.85
596.569	19.88
596.763	19.97
596.958	20
597.153	19.93
597.347	20.02
597.542	20.13
597.736	20.2
597.931	20.22
598.125	20.38
598.319	20.4
598.514	20.38
598.708	20.3
598.903	20.4
599.097	20.47
599.291	20.54
599.486	20.56
599.68	20.63
599.874	20.61
600.069	20.51
600.263	20.5
600.457	20.53
600.651	20.58
600.846	20.64
601.04	20.74
601.234	20.7
601.428	20.77
601.622	20.73
601.817	20.69
602.011	20.68
602.205	20.77
602.399	20.77
602.593	20.92
602.787	20.87
602.981	20.86
603.175	20.92
603.369	20.89
603.563	20.83
603.757	20.91
603.951	20.89
604.145	20.78
604.339	20.73
604.533	20.69
604.727	20.64
604.921	20.65
605.115	20.68
605.309	20.57
605.502	20.57
605.696	20.61
605.89	20.61
606.084	20.57
606.278	20.65
606.471	20.56
606.665	20.37
606.859	20.28
607.053	20.25
607.246	20.17
607.44	20.1
607.634	20.11
607.827	20.01
608.021	19.92
608.214	19.89
608.408	19.79
608.602	19.78
608.795	19.79
608.989	19.71
609.182	19.63
609.376	19.6
609.569	19.53
609.763	19.4
609.956	19.31
610.15	19.24
610.343	19.15
610.537	19.05
610.73	18.94
610.923	18.91
611.117	18.92
611.31	18.88
611.504	18.88
611.697	18.86
611.89	18.77
612.083	18.56
612.277	18.46
612.47	18.34
612.663	18.35
612.856	18.28
613.05	18.32
613.243	18.32
613.436	18.25
613.629	18.12
613.822	18.05
614.015	17.93
614.209	17.82
614.402	17.79
614.595	17.77
614.788	17.73
614.981	17.66
615.174	17.61
615.367	17.52
615.56	17.33
615.753	17.15
615.946	17.14
616.139	17.17
616.332	17.13
616.525	17.12
616.718	17.15
616.911	17.21
617.103	17.13
617.296	17.07
617.489	16.97
617.682	16.99
617.875	16.88
618.067	16.75
618.26	16.72
618.453	16.7
618.646	16.69
618.838	16.62
619.031	16.48
619.224	16.48
619.417	16.6
619.609	16.53
619.802	16.47
619.994	16.53
620.187	16.47
620.38	16.37
620.572	16.32
620.765	16.31
620.957	16.35
621.15	16.34
621.342	16.22
621.535	16.23
621.727	16.18
621.92	16.14
622.112	16.06
622.305	16.09
622.497	16.01
622.69	15.96
622.882	15.97
623.074	16.07
623.267	16.08
623.459	16.08
623.651	16.04
623.844	16.04
624.036	15.96
624.228	16.04
624.42	16
624.613	15.98
624.805	15.94
624.997	15.89
625.189	15.77
625.381	15.86
625.574	15.82
625.766	15.75
625.958	15.71
626.15	15.65
626.342	15.5
626.534	15.63
626.726	15.6
626.918	15.55
627.11	15.6
627.302	15.6
627.494	15.55
627.686	15.55
627.878	15.56
628.07	15.5
628.262	15.47
628.454	15.33
628.646	15.25
628.838	15.23
629.029	15.25
629.221	15.18
629.413	15.2
629.605	15.21
629.797	15.15
629.989	15.1
630.18	15.09
630.372	15.08
630.564	14.97
630.755	15.02
630.947	14.89
631.139	14.83
631.33	14.82
631.522	14.86
631.714	14.81
631.905	14.83
632.097	14.81
632.289	14.7
632.48	14.6
632.672	14.59
632.863	14.51
633.055	14.57
633.246	14.68
633.438	14.77
633.629	14.65
633.821	14.71
634.012	14.72
634.203	14.67
634.395	14.63
634.586	14.79
634.777	14.75
634.969	14.62
635.16	14.59
635.351	14.51
635.543	14.43
635.734	14.51
635.925	14.5
636.117	14.44
636.308	14.46
636.499	14.4
636.69	14.3
636.881	14.34
637.073	14.42
637.264	14.41
637.455	14.38
637.646	14.41
637.837	14.37
638.028	14.27
638.219	14.27
638.41	14.28
638.601	14.23
638.792	14.19
638.983	14.2
639.174	14.13
639.365	14.1
639.556	14.13
639.747	14.2
639.938	14.32
640.129	14.32
640.32	14.35
640.511	14.34
640.701	14.33
640.892	14.16
641.083	14.21
641.274	14.16
641.465	14.08
641.655	14.05
641.846	14.08
642.037	13.99
642.228	14.01
642.418	14.01
642.609	13.94
642.8	13.88
642.99	13.85
643.181	13.8
643.372	13.74
643.562	13.72
643.753	13.72
643.943	13.72
644.134	13.65
644.324	13.71
644.515	13.7
644.705	13.66
644.896	13.64
645.086	13.64
645.277	13.59
645.467	13.6
645.658	13.6
645.848	13.68
646.038	13.63
646.229	13.64
646.419	13.59
646.61	13.64
646.8	13.59
646.99	13.68
647.18	13.63
647.371	13.64
647.561	13.52
647.751	13.47
647.941	13.33
648.132	13.37
648.322	13.4
648.512	13.42
648.702	13.46
648.892	13.46
649.082	13.41
649.272	13.26
649.462	13.29
649.653	13.16
649.843	13.2
650.033	13.17
650.223	13.25
650.413	13.14
650.603	13.19
650.793	13.1
650.983	13.07
651.172	13.06
651.362	13.06
651.552	12.99
651.742	12.96
651.932	12.91
652.122	12.91
652.312	12.82
652.502	12.83
652.691	12.78
652.881	12.81
653.071	12.75
653.261	12.71
653.45	12.63
653.64	12.71
653.83	12.58
654.019	12.42
654.209	12.44
654.399	12.37
654.588	12.12
654.778	12.01
654.968	11.93
655.157	11.8
655.347	11.78
655.536	11.75
655.726	11.73
655.915	11.7
656.105	11.6
656.294	11.43
656.484	11.35
656.673	11.24
656.863	11.11
657.052	11.03
657.241	10.95
657.431	10.92
657.62	10.78
657.809	10.69
657.999	10.62
658.188	10.53
658.377	10.43
658.567	10.29
658.756	10.16
658.945	10.11
659.134	10.01
659.324	9.88
659.513	9.9
659.702	9.75
659.891	9.61
660.08	9.46
660.269	9.32
660.458	9.12
660.648	9.15
660.837	9.07
661.026	9.05
661.215	8.98
661.404	8.96
661.593	8.85
661.782	8.69
661.971	8.6
662.16	8.61
662.349	8.47
662.538	8.39
662.726	8.46
662.915	8.43
663.104	8.34
663.293	8.38
663.482	8.31
663.671	8.14
663.86	8.1
664.048	8.09
664.237	8.04
664.426	7.97
664.615	7.91
664.803	7.71
664.992	7.67
665.181	7.61
665.369	7.61
665.558	7.56
665.747	7.64
665.935	7.53
666.124	7.52
666.312	7.52
666.501	7.53
666.69	7.56
666.878	7.62
667.067	7.54
667.255	7.62
667.444	7.76
667.632	7.82
667.82	7.82
668.009	7.96
668.197	7.86
668.386	7.84
668.574	7.76
668.762	7.79
668.951	7.83
669.139	7.94
669.327	7.89
669.516	8
669.704	8.02
669.892	8.01
670.08	7.96
670.269	8.01
670.457	7.91
670.645	7.85
670.833	7.91
671.021	8
671.21	7.98
671.398	8.06
671.586	8.09
671.774	8.08
671.962	8.05
672.15	8.18
672.338	8.36
672.526	8.57
672.714	8.63
672.902	8.69
673.09	8.74
673.278	8.68
673.466	8.67
673.654	8.83
673.842	9.03
674.03	9.12
674.218	9.25
674.405	9.26
674.593	9.33
674.781	9.28
674.969	9.18
675.157	9.11
675.344	9.3
675.532	9.32
675.72	9.55
675.908	9.72
676.095	9.86
676.283	9.87
676.471	9.89
676.658	9.93
676.846	9.96
677.033	10.06
677.221	10.18
677.409	10.32
677.596	10.25
677.784	10.49
677.971	10.58
678.159	10.63
678.346	10.68
678.534	10.79
678.721	10.85
678.909	10.97
679.096	10.99
679.283	11.13
679.471	11.26
679.658	11.24
679.846	11.42
680.033	11.63
680.22	11.63
680.408	11.63
680.595	11.85
680.782	11.73
680.969	11.83
681.157	12.02
681.344	12.13
681.531	12.04
681.718	12.13
681.905	12.06
682.093	12.05
682.28	12.17
682.467	12.61
682.654	12.76
682.841	12.88
683.028	13.01
683.215	13.23
683.402	13.12
683.589	13.32
683.776	13.72
683.963	13.86
684.15	13.89
684.337	14.11
684.524	14.32
684.711	14.39
684.898	14.51
685.085	14.66
685.271	14.83
685.458	14.86
685.645	14.91
685.832	15.19
686.019	15.57
686.205	15.82
686.392	16.06
686.579	16.36
686.766	16.58
686.952	16.61
687.139	16.84
687.326	17.07
687.512	17.33
687.699	17.43
687.886	17.82
688.072	18.03
688.259	18.38
688.445	18.68
688.632	19.12
688.818	19.39
689.005	19.68
689.191	20.06
689.378	20.36
689.564	20.87
689.751	21.28
689.937	21.76
690.124	22.15
690.31	22.47
690.496	22.81
690.683	23.25
690.869	23.63
691.055	24
691.242	24.57
691.428	25.09
691.614	25.5
691.8	25.94
691.987	26.47
692.173	26.89
692.359	27.37
692.545	28.09
692.731	28.7
692.918	29.27
693.104	29.74
693.29	30.34
693.476	30.72
693.662	31.26
693.848	31.97
694.034	32.68
694.22	32.89
694.406	33.36
694.592	33.96
694.778	34.27
694.964	34.89
695.15	35.6
695.336	36.1
695.522	36.52
695.708	37.21
695.894	37.69
696.08	38.2
696.265	38.87
696.451	39.6
696.637	40.04
696.823	40.52
697.009	41.29
697.194	41.97
697.38	42.6
697.566	43.3
697.751	44.14
697.937	44.66
698.123	44.97
698.308	45.25
698.494	45.73
698.68	46.14
698.865	46.64
699.051	47.31
699.236	47.94
699.422	48.51
699.607	48.94
699.793	49.61
699.978	49.98
700.164	50.25
700.349	50.5
700.535	51.02
700.72	51.1
700.906	51.77
701.091	52.29
701.276	52.67
701.462	53.1
701.647	53.92
701.832	54.36
702.018	54.99
702.203	55.56
702.388	55.93
702.573	56.26
702.759	56.29
702.944	56.56
703.129	57.14
703.314	57.46
703.499	57.61
703.684	58.46
703.87	58.99
704.055	59.12
704.24	59.38
704.425	59.97
704.61	60.26
704.795	60.21
704.98	60.8
705.165	61.45
705.35	61.9
705.535	62.51
705.72	63.09
705.905	63.32
706.09	63.66
706.275	63.99
706.459	64.06
706.644	64.28
706.829	64.63
707.014	65
707.199	64.71
707.384	64.87
707.568	65.32
707.753	65.31
707.938	65.05
708.123	66
708.307	66.15
708.492	66.71
708.677	66.79
708.861	67.82
709.046	67.51
709.231	67.84
709.415	67.58
709.6	67.98
709.784	67.81
709.969	68.23
710.153	68.4
710.338	68.77
710.522	69.53
710.707	69.39
710.891	69.73
711.076	69.93
711.26	70.14
711.445	69.97
711.629	70.25
711.813	70.44
711.998	71
712.182	71.27
712.366	71.93
712.551	72.12
712.735	72.11
712.919	72.44
713.103	72.46
713.288	72.01
713.472	72.38
713.656	72.56
713.84	72.06
714.024	72.34
714.208	72.53
714.393	72.83
714.577	73.27
714.761	73.51
714.945	73.53
715.129	73.58
715.313	73.43
715.497	73.74
715.681	74.26
715.865	75.19
716.049	75.68
716.233	76.47
716.417	76.66
716.601	76.44
716.785	76.18
716.968	76.19
717.152	75.88
717.336	76.31
717.52	76.75
717.704	76.81
717.888	77.66
718.071	78.31
718.255	78.15
718.439	78.37
718.622	78.44
718.806	77.7
718.99	77.84
719.174	77.37
719.357	77.08
719.541	77.25
719.724	77.82
719.908	77.49
720.092	77.8
720.275	78.28
720.459	78.58
720.642	78.86
720.826	79.11
721.009	79.62
721.193	79.78
721.376	79.78
721.559	79.92
721.743	79.71
721.926	79.89
722.11	79.98
722.293	79.89
722.476	79.7
722.66	80.29
722.843	80.26
723.026	80.45
723.21	80.99
723.393	80.89
723.576	81.37
723.759	81.55
723.942	81.57
724.126	81.8
724.309	82.64
724.492	82.57
724.675	82.84
724.858	83.47
725.041	83.48
725.224	83.63
725.407	83.46
725.59	83.85
725.774	84.04
725.957	84.16
726.14	84.12
726.322	84.15
726.505	84.28
726.688	84.4
726.871	84.5
727.054	84.98
727.237	85.36
727.42	85.26
727.603	84.91
727.786	84.8
727.968	84.75
728.151	85.2
728.334	85.21
728.517	85.61
728.699	85.51
728.882	85.92
729.065	86.11
729.248	86.29
729.43	86.45
729.613	87.68
729.796	87.22
729.978	87.74
730.161	88.04
730.343	88.12
730.526	88.62
730.708	88.84
730.891	88.73
731.073	89.01
731.256	89.79
731.438	88.91
731.621	89.51
731.803	89.16
731.986	89.6
732.168	89.32
732.35	90.12
732.533	90.04
732.715	89.62
732.898	89.62
733.08	89.42
733.262	89.17
733.444	88.65
733.627	89.44
733.809	89.09
733.991	89.86
734.173	90.57
734.355	91.73
734.538	91.62
734.72	92.87
734.902	92.9
735.084	92.31
735.266	91.74
735.448	91.95
735.63	91.74
735.812	92.21
735.994	91.77
736.176	92.25
736.358	93.51
736.54	92.68
736.722	92.83
736.904	94.2
737.086	93.73
737.268	92.81
737.45	93.27
737.632	92.87
737.814	92.31
737.995	92.69
738.177	92.53
738.359	92.66
738.541	92.93
738.723	92.82
738.904	93.56
739.086	94.27
739.268	94.76
739.449	94.67
739.631	95.13
739.813	94.89
739.994	95.12
740.176	95.1
740.358	94.86
740.539	94.24
740.721	94.06
740.902	93.71
741.084	92.94
741.265	93.4
741.447	94.36
741.628	94.18
741.81	93.7
741.991	94.42
742.172	94.67
742.354	95.21
742.535	96.38
742.717	97.62
742.898	97.68
743.079	96.91
743.261	95.31
743.442	94.54
743.623	93.83
743.804	93.09
743.986	93.63
744.167	94.65
744.348	94.39
744.529	94.89
744.71	96.17
744.891	96.28
745.073	96.48
745.254	97.74
745.435	97.3
745.616	96.22
745.797	95.27
745.978	94.71
746.159	94.73
746.34	94.7
746.521	94.72
746.702	95.19
746.883	95.47
747.064	93.67
747.245	93.69
747.426	93.55
747.606	93.44
747.787	94.36
747.968	95.52
748.149	95.97
748.33	95.61
748.51	96.04
748.691	93.73
748.872	94.12
749.053	94.77
749.233	95.68
749.414	95.16
749.595	97.54
749.775	97.56
749.956	97.24
750.137	96.89
750.317	97.24
750.498	96.35
750.678	95.82
750.859	95.67
751.04	94.95
751.22	94.24
751.4	94.47
751.581	94.03
751.761	94.09
751.942	94.51
752.122	95.16
752.303	93.95
752.483	93.92
752.663	92.25
752.844	92.3
753.024	91.73
753.204	91.65
753.385	91.45
753.565	93.52
753.745	94.26
753.925	94.66
754.106	95.84
754.286	96.51
754.466	96.55
754.646	95.57
754.826	95.6
755.006	96.02
755.187	96.53
755.367	95.32
755.547	95.58
755.727	94.96
755.907	93.18
756.087	94
756.267	92.79
756.447	94.02
756.627	94.43
756.807	95.14
756.987	92.58
757.167	93.57
757.346	92.34
757.526	92.64
757.706	91.62
757.886	91.45
758.066	93.12
758.246	93.91
758.425	94.69
758.605	97.34
758.785	98.45
758.965	98.48
759.144	99.07
759.324	98.43
759.504	98.18
759.683	97.88
759.863	96.23
760.043	94.7
760.222	93.26
760.402	90.92
760.581	92.69
760.761	91.24
760.94	89.76
761.12	91.04
761.299	90.94
761.479	90.1
761.658	91.5
761.838	93.02
762.017	92.07
762.197	93.76
762.376	93.95
762.555	93.07
762.735	93.52
762.914	93.21
763.093	91.94
763.273	91.76
763.452	93.36
763.631	92.05
763.81	92.11
763.99	93.73
764.169	94.72
764.348	93.37
764.527	94.08
764.706	93.39
764.885	92.95
765.064	91.87
765.243	93.73
765.423	94.02
765.602	93.93
765.781	94.58
765.96	93.63
766.139	92.19
766.318	91.56
766.497	93.15
766.676	92.09
766.854	92.37
767.033	93.21
767.212	93.58
767.391	92.28
767.57	93.57
767.749	91.82
767.928	90.3
768.106	91.19
768.285	91.43
768.464	89.32
768.643	91.62
768.821	91.76
769	92.38
769.179	92.58
769.357	92.68
769.536	91.25
769.715	91.7
769.893	90.99
770.072	90.21
770.25	90.82
770.429	91.26
770.607	90.31
770.786	91.39
770.964	91.81
771.143	90.79
771.321	90.27
771.5	90.68
771.678	89.61
771.857	88.31
772.035	91.38
772.213	91.5
772.392	91.49
772.57	90.15
772.748	91.96
772.927	89.32
773.105	87.22
773.283	86.87
773.461	87.38
773.64	87.99
773.818	88.85
773.996	87.52
774.174	87.58
774.352	85.32
774.531	85.68
774.709	83.67
774.887	87.91
775.065	87.9
775.243	90.78
775.421	90.56
775.599	89.68
775.777	88.83
775.955	88.35
776.133	89.56
776.311	89.86
776.489	91.99
776.667	91.93
776.844	93.58
777.022	92.25
777.2	92.07
777.378	92.3
777.556	91.81
777.734	89.03
777.911	87.73
778.089	89.19
778.267	86.17
778.445	85.19
778.622	87.71
778.8	89.52
778.978	85.72
779.155	87.66
779.333	88.2
779.511	85.6
779.688	83.53
779.866	80.91
780.043	82.91
780.221	82.74
780.398	82.88
780.576	83.7
780.753	87.97
780.931	85.96
781.108	87.75
781.286	86.56
781.463	86.39
781.64	87.2
781.818	89.21
781.995	86.96
782.172	90.8
782.35	90.21
782.527	90.61
782.704	87.78
782.882	92.12
783.059	90.04
783.236	90.07
783.413	87.19
783.59	87.2
783.768	82.44
783.945	83.32
784.122	84.7
784.299	87.29
784.476	87.58
784.653	90.02
784.83	88.95
785.007	87.44
785.184	87.83
785.361	87.8
785.538	85.6
785.715	84.53
785.892	83.39
786.069	84.39
786.246	86.21
786.423	88.34
786.6	93.33
786.776	93.78
786.953	90.49
787.13	90.73
787.307	89.17
787.484	86.57
787.66	88.91
787.837	91.7
788.014	92.76
788.191	95.01
788.367	94.98
788.544	94.12
788.721	94.53
788.897	90.98
789.074	89.32
789.25	86.29
789.427	86.52
789.603	80.6
789.78	80.71
789.956	82.29
790.133	83.37
790.309	82.67
790.486	81.22
790.662	82.51
790.839	81.93
791.015	80.85
791.192	79.74
791.368	87.6
791.544	83.12
791.721	81.97
791.897	81.45
792.073	83.84
792.249	77.93
792.426	79.74
792.602	80.99
792.778	82.4
792.954	80.14
793.13	82.87
793.307	84.86
793.483	85.11
793.659	85.02
793.835	82.19
794.011	83.58
794.187	83.29
794.363	83.32
794.539	81.73
794.715	86.44
794.891	87.61
795.067	83.73
795.243	82.02
795.419	84.43
795.595	84.14
795.771	80.68
795.947	84.15
796.122	83.74
796.298	81.95
796.474	81.71
796.65	82.82
796.826	82.76
797.001	84.46
797.177	82.46
797.353	78.17
797.529	78.37
797.704	78.84
797.88	73.58
798.056	78.91
798.231	86.66
798.407	82.78
798.582	85.79
798.758	91
798.934	90.01
799.109	84.63
799.285	86.05
799.46	86.67
799.636	85.74
799.811	77.94
799.986	81.2
800.162	80.99
800.337	79.13
800.513	80.07
800.688	85.68
800.863	85.09
801.039	85.78
801.214	87.25
801.389	87.69
801.565	83
801.74	83.33
801.915	89.91
802.09	88.08
802.265	85.05
802.441	88.42
802.616	84
802.791	80.62
802.966	82.52
803.141	82.49
803.316	79.2
803.491	84.67
803.666	81.25
803.841	81.28
804.016	84.5
804.191	85.74
804.366	91.04
804.541	91.88
804.716	87.77
804.891	88.73
805.066	95.85
805.241	88.39
805.416	85.29
805.591	80.2
805.765	82.29
805.94	79.54
806.115	78.78
806.29	80.89
806.464	84.13
806.639	77.85
806.814	71.6
806.989	68.55
807.163	67.86
807.338	68.35
807.512	63.89
807.687	69.93
807.862	67.95
808.036	67.62
808.211	70.58
808.385	73.94
808.56	70.73
808.734	72.1
808.909	69.13
809.083	67.87
809.258	74.68
809.432	80.77
809.606	77.04
809.781	79.69
809.955	79.77
810.13	76.31
810.304	73.12
810.478	81.57
810.652	86.4
810.827	88.29
811.001	91.28
811.175	96.03
811.349	92.17
811.524	87.06
811.698	83.33
811.872	82.59
812.046	84.63
812.22	75.78
812.394	76.33
812.568	82.19
812.742	83.41
812.916	79.65
813.09	87.17
813.264	89.39
813.438	89.61
813.612	85.35
813.786	75.05
813.96	83.79
814.134	77.48
814.308	79.13
814.482	83.88
814.656	89.28
814.83	81.51
815.003	90.98
815.177	76.27
815.351	70.57
815.525	73.44
815.698	73.24
815.872	67.65
816.046	74.64
816.219	71.66
816.393	73.25
816.567	76.45
816.74	73.41
816.914	63.35
817.088	66.44
817.261	64.54
817.435	68.9
817.608	74.67
817.782	80.33
817.955	90.03
818.129	97.61
818.302	83.49
818.475	77.27
818.649	88.11
818.822	81.56
818.996	77.3
819.169	80.42
819.342	85.73
819.516	74.78
819.689	74.81
819.862	75.07
820.035	71.54
820.209	58.17
820.382	68.48
820.555	68.64
820.728	72.58
820.901	68.48
821.075	80.55
821.248	92.29
821.421	97.96
821.594	84.97
821.767	102.5
821.94	106.84
822.113	85.31
822.286	82.55
822.459	91.14
822.632	87.75
822.805	88.59
822.978	99.4
823.151	92.14
823.324	89.51
823.496	89.38
823.669	77.89
823.842	71.04
824.015	77.69
824.188	71
824.361	70.12
824.533	75.5
824.706	62.09
824.879	65.52
825.051	63.37
825.224	55.64
825.397	65.22
825.569	76.85
825.742	73.37
825.915	83.75
826.087	98.08
826.26	81.21
826.432	90.65
826.605	78.96
826.777	60.64
826.95	54.6
827.122	61.98
827.295	52.01
827.467	59.18
827.64	57.57
827.812	53.8
827.984	46.7
828.157	46.59
828.329	49.66
828.501	64.15
828.674	65.83
828.846	73.76
829.018	75.57
829.19	74.63
829.363	62.25
829.535	64.35
829.707	61.78
829.879	65.71
830.051	64.76
830.223	78.53
830.395	84.64
830.568	82.14
830.74	81.17
830.912	75.91
831.084	73.35
831.256	66.73
831.428	66.26
831.6	73.1
831.772	79.6
831.943	79.17
832.115	86.86
832.287	94.26
832.459	88.58
832.631	78.85
832.803	77.55
832.975	80.33
833.146	80.35
833.318	63.37
833.49	90.59
833.662	107.98
833.833	95.9
834.005	86.92
834.177	110.62
834.348	78.87
834.52	63.98
834.692	59.08
834.863	60.1
835.035	63.74
835.206	89.05
835.378	81.93
835.549	97.86
835.721	100.41
835.892	85.37
836.064	81.89
836.235	91.73
836.407	76.36
836.578	67.91
836.749	70.51
836.921	56.74
837.092	60.11
837.264	65.73
837.435	64.5
837.606	64.45
837.777	65.14
837.949	46.04
838.12	38.01
838.291	41.87
838.462	50.72
838.633	72.4
838.805	93.35
838.976	87.22
839.147	109.87
839.318	111.65
839.489	92.56
839.66	109.22
839.831	149.44
840.002	155.01
840.173	158.05
840.344	142.87
840.515	127.73
840.686	95.26
840.857	82.46
841.028	99.34
841.199	92.76
841.369	68.7
841.54	63.4
841.711	73.6
841.882	52.09
842.053	58.82
842.223	82.16
842.394	94.47
842.565	101.77
842.736	128.94
842.906	157.33
843.077	115.93
843.248	154.56
843.418	108.52
843.589	92.49
843.759	95.55
843.93	96.84
844.101	83.03
844.271	68.02
844.442	73.94
844.612	74.33
844.783	40.06
844.953	28.16
845.123	33.4
845.294	35.05
845.464	51.37
845.635	76.8
845.805	107.02
845.975	120.03
846.146	137.07
846.316	109.58
846.486	149.58
846.656	122.28
846.827	105.31
846.997	75.88
847.167	56.05
847.337	40.14
847.507	39.98
847.677	59.57
847.848	66.65
848.018	109.05
848.188	119.39
848.358	122.7
848.528	136.99
848.698	164.71
848.868	119.87
849.038	113.21
849.208	77.07
849.378	81.18
849.548	60.4
849.718	85.29
849.887	71.26
850.057	76.98
850.227	73.88
850.397	71.13
850.567	55.1
850.737	47.85
850.906	47.35
851.076	39.7
851.246	54.46
851.415	69.63
851.585	88.33
851.755	85.33
851.924	79.37
852.094	80.19
852.264	63.77
852.433	37.19
852.603	55.56
852.772	73.05
852.942	64.14
853.111	72.6
853.281	94.49
853.45	92.55
853.62	41.53
853.789	30.86
853.959	43.36
854.128	60.56
854.297	44.39
854.467	129.57
854.636	150.63
854.805	106.94
854.975	87.19
855.144	75.29
855.313	68.65
855.482	72.27
855.652	83.45
855.821	110.08
855.99	111.95
856.159	110.13
856.328	130.47
856.497	120.78
856.667	106.74
856.836	149.5
857.005	138.52
857.174	100.66
857.343	124.63
857.512	113.87
857.681	36.52
857.85	31.02
858.019	37.16
858.188	16.74
858.356	19.06
858.525	73.5
858.694	78.14
858.863	84.03
859.032	66.03
859.201	61.39
859.369	48.5
859.538	30.36
859.707	12.47
859.876	32.36
860.044	55.17
860.213	56.64
860.382	91.04
860.55	112.43
860.719	157.7
860.888	171.63
861.056	139.28
861.225	114.96
861.393	139.92
861.562	117.47
861.73	101.42
861.899	93.87
862.067	91.98
862.236	76.27
862.404	78.68
862.572	77.1
862.741	83.89
862.909	88.3
863.078	72.86
863.246	78.77
863.414	89.77
863.582	111.03
863.751	99.39
863.919	121.97
864.087	150.17
864.255	113.26
864.424	91.39
864.592	81.8
864.76	67.92
864.928	70.46
865.096	66.58
865.264	80.69
865.432	90.5
865.6	91.95
865.768	67.21
865.936	58.75
866.104	36.57
866.272	36.79
866.44	26.86
866.608	26.92
866.776	46.41
866.944	91.43
867.112	105.03
867.28	85.17
867.448	81.18
867.615	73.72
867.783	57.88
867.951	33.49
868.119	53.63
868.286	57.97
868.454	63.14
868.622	70.85
868.789	97.29
868.957	82.55
869.125	93.19
869.292	81.54
869.46	66.89
869.627	41.9
869.795	60.27
869.963	66.65
870.13	48.62
870.298	46.44
870.465	80.25
870.632	72.77
870.8	61.03
870.967	98.35
871.135	126.4
871.302	98.19
871.469	83.93
871.637	72.58
871.804	53.01
871.971	30.63
872.139	56.26
872.306	60.41
872.473	85.95
872.64	90.52
872.807	101.18
872.975	80.94
873.142	97.55
873.309	79.34
873.476	76.37
873.643	68.17
873.81	57.07
873.977	52.6
874.144	45.74
874.311	58.91
874.478	63.52
874.645	68.45
874.812	70.79
874.979	73.23
875.146	47.32
875.313	57.51
875.48	84.86
875.647	104.28
875.813	159.49
875.98	168.55
876.147	149.47
876.314	142.12
876.481	120.61
876.647	109.22
876.814	104.4
876.981	107.09
877.147	105.61
877.314	81.33
877.481	81.14
877.647	70.31
877.814	51.66
877.98	46.69
878.147	43.7
878.314	19.35
878.48	61.26
878.647	77.42
878.813	46.63
878.979	41.84
879.146	53.99
879.312	30.21
879.479	52.29
879.645	87.95
879.811	124.72
879.978	77.2
880.144	80.74
880.31	62.14
880.477	69.78
880.643	56.42
880.809	84.99
880.975	81.61
881.142	77.42
881.308	37.2
881.474	127.36
881.64	48.73
881.806	-85.85
881.972	59.9
882.138	139.22
882.304	54.74
882.47	19.73
882.636	31.51
882.802	39.63
882.968	4.01
883.134	12.98
883.3	43.14
883.466	58
883.632	86.59
883.798	137.2
883.964	262.85
884.129	432.93
884.295	297.86
884.461	126.36
884.627	106.86
884.793	81.63
884.958	68.21
885.124	50.39
885.29	64.42
885.455	64.73
885.621	68.32
885.787	49.28
885.952	65.9
886.118	64.59
886.283	86.51
886.449	76.1
886.614	64.19
886.78	73.81
886.945	70.8
887.111	44.33
887.276	46.5
887.442	66.19
887.607	54.14
887.773	38.03
887.938	2.17
888.103	-19.69
888.269	34.18
888.434	55.79
888.599	45.83
888.764	63.38
888.93	93.65
889.095	63.63
889.26	54.82
889.425	83.46
889.59	94.45
889.756	62.8
889.921	39.66
890.086	25.33
890.251	-5.23
890.416	-41.91
890.581	-62.58
890.746	15.49
890.911	47.81
891.076	85.3
891.241	90.65
891.406	108.88
891.571	93.53
891.736	38.99
891.901	44.47
892.065	63.8
892.23	79.93
892.395	60.34
892.56	98.61
892.725	103.9
892.889	65.08
893.054	57.79
893.219	82.7
893.384	95.01
893.548	82.48
893.713	95.1
893.878	83.16
