Data from Ofav_PP_Phys_360_Reflection_3.txt Node
Date: Tue Jul 27 19:09:01 EDT 2021
User: USUARIO
Spectrometer: FLMT01687
Trigger mode: 0
Integration Time (sec): 8.500000E-1
Scans to average: 2
Electric dark correction enabled: true
Nonlinearity correction enabled: false
Boxcar width: 2
XAxis mode: Wavelengths
Number of Pixels in Spectrum: 3648
>>>>>Begin Spectral Data<<<<<
179.494	-1638.52
179.716	-538.98
179.937	-370.61
180.158	-327.6
180.38	-268.47
180.601	-140.45
180.823	24.42
181.044	79.26
181.265	103.92
181.486	224.97
181.708	92.48
181.929	5.85
182.15	87.9
182.372	382.04
182.593	100.92
182.814	78.16
183.035	66.3
183.257	70.58
183.478	50.04
183.699	47.73
183.92	56.07
184.141	47
184.363	45.29
184.584	56.62
184.805	78.43
185.026	54.93
185.247	74.18
185.468	68.3
185.689	43.65
185.91	29.58
186.132	23.95
186.353	21.28
186.574	3.47
186.795	7.73
187.016	3.08
187.237	0.08
187.458	10.71
187.679	20.94
187.9	15.42
188.121	35.52
188.342	41.81
188.563	19.89
188.784	39.91
189.005	49.82
189.226	41.16
189.447	45.74
189.667	51.39
189.888	47.69
190.109	51.53
190.33	75.95
190.551	51.16
190.772	40.73
190.993	33.73
191.214	25.12
191.434	10.82
191.655	21.9
191.876	16.1
192.097	23.29
192.318	32.66
192.538	52.12
192.759	54.07
192.98	59.96
193.201	54.14
193.421	78.4
193.642	61.16
193.863	55.84
194.083	61.14
194.304	56.49
194.525	25.38
194.745	-23.2
194.966	-94.21
195.187	-118.59
195.407	-77.56
195.628	-28.32
195.848	18.31
196.069	70.92
196.29	136.81
196.51	87.89
196.731	49.05
196.951	72.15
197.172	51.5
197.392	51.65
197.613	65.65
197.833	80.97
198.054	84.82
198.274	61.39
198.495	58.4
198.715	64.82
198.936	53.18
199.156	38.51
199.377	71.97
199.597	92.09
199.817	48.2
200.038	-15.99
200.258	18.62
200.479	19.22
200.699	-8.6
200.919	-7.74
201.14	15.49
201.36	5.45
201.58	28.78
201.801	26.57
202.021	27.23
202.241	45.51
202.461	37.36
202.682	14.1
202.902	31.13
203.122	53.57
203.342	39.42
203.563	55.62
203.783	58.42
204.003	51.6
204.223	48.08
204.443	47.89
204.663	33.3
204.884	42.06
205.104	45.92
205.324	53.99
205.544	47.29
205.764	43.56
205.984	34.06
206.204	42.79
206.424	13.92
206.644	25.19
206.864	41.61
207.084	43.93
207.304	47.59
207.525	49.54
207.745	67.69
207.964	68.43
208.184	66.5
208.404	52.14
208.624	50.49
208.844	46.78
209.064	39.3
209.284	21.96
209.504	30.37
209.724	33.31
209.944	-37.95
210.164	-106.2
210.384	-44.68
210.604	-24.74
210.823	28.85
211.043	40.85
211.263	65.21
211.483	61.08
211.703	52.08
211.922	35.99
212.142	81.25
212.362	48.02
212.582	52.66
212.801	60.13
213.021	68.35
213.241	45.73
213.461	56.21
213.68	46.81
213.9	23.81
214.12	50.19
214.339	52.85
214.559	51.93
214.779	42.82
214.998	41.71
215.218	24.03
215.438	37.04
215.657	57.39
215.877	52.47
216.096	63.42
216.316	73.11
216.535	52.68
216.755	55.69
216.974	74.37
217.194	74.11
217.413	65.2
217.633	72.78
217.852	42.5
218.072	25.3
218.291	17.08
218.511	6.9
218.73	19.33
218.95	26.82
219.169	38.56
219.389	23.62
219.608	32.19
219.827	58.46
220.047	63.46
220.266	51.19
220.485	65.5
220.705	63.59
220.924	47.83
221.143	24.24
221.363	10.73
221.582	20.1
221.801	26.68
222.021	26.58
222.24	41.74
222.459	40.84
222.678	40.9
222.897	31.15
223.117	16.47
223.336	-5.87
223.555	3.03
223.774	-14.88
223.993	-12.83
224.213	-16.32
224.432	-2.59
224.651	21.7
224.87	22.1
225.089	17.64
225.308	34.62
225.527	51.44
225.746	42.78
225.965	50.38
226.184	42.78
226.404	37.12
226.623	10.15
226.842	5.88
227.061	0.91
227.28	6.64
227.499	14.63
227.718	24.96
227.936	28.12
228.155	41.77
228.374	57.13
228.593	50.18
228.812	61.6
229.031	68.06
229.25	61.99
229.469	39.47
229.688	36.28
229.907	-14.7
230.125	4.86
230.344	14.1
230.563	26.45
230.782	39.27
231.001	51.21
231.22	32.7
231.438	27.88
231.657	27.63
231.876	16.69
232.095	26.17
232.313	32.49
232.532	36.19
232.751	40.41
232.969	32.07
233.188	26.19
233.407	22.99
233.625	38.45
233.844	24.19
234.063	46.15
234.281	44.14
234.5	38.97
234.719	40.87
234.937	38.89
235.156	14.94
235.374	9.34
235.593	31.63
235.811	22.64
236.03	23.1
236.249	42.11
236.467	64.64
236.686	42.29
236.904	45
237.123	46.47
237.341	45.23
237.559	41.68
237.778	43.47
237.996	47.49
238.215	44.39
238.433	45.56
238.652	43.66
238.87	47.13
239.088	25.33
239.307	32.14
239.525	-0.14
239.743	-9.32
239.962	-2.37
240.18	21.67
240.398	17.37
240.617	25.82
240.835	44.5
241.053	44.06
241.271	19.54
241.49	24.57
241.708	36.12
241.926	26.13
242.144	-17.24
242.363	0.82
242.581	22.82
242.799	13.64
243.017	-13.21
243.235	22.31
243.453	27.22
243.672	8.61
243.89	6.64
244.108	29.46
244.326	29.77
244.544	6.78
244.762	2.41
244.98	24.2
245.198	-1.68
245.416	3.07
245.634	20.14
245.852	63.85
246.07	50.55
246.288	67
246.506	61.21
246.724	64.2
246.942	42.4
247.16	33.57
247.378	29.42
247.596	29.41
247.814	30.61
248.032	12.94
248.25	14.11
248.468	22.42
248.685	28.41
248.903	31.73
249.121	37.87
249.339	45.95
249.557	44.3
249.775	18.9
249.992	10.13
250.21	6.62
250.428	1.08
250.646	-16.36
250.863	8.79
251.081	31.59
251.299	58.34
251.517	58.7
251.734	79.85
251.952	69.62
252.17	56.79
252.387	29.55
252.605	63.37
252.823	58.58
253.04	71.72
253.258	65.68
253.475	56.04
253.693	52.54
253.911	54.26
254.128	47.56
254.346	49.42
254.563	69.06
254.781	57.97
254.998	58.96
255.216	32.21
255.433	37.52
255.651	22.98
255.868	14.72
256.086	16.48
256.303	24.15
256.521	27.48
256.738	40.22
256.956	44.99
257.173	41.22
257.39	43.5
257.608	37.48
257.825	53.74
258.043	49.34
258.26	51.77
258.477	57.64
258.695	64.78
258.912	53.74
259.129	55.33
259.346	61.56
259.564	65.07
259.781	72.67
259.998	41.27
260.216	56.82
260.433	51.83
260.65	54.14
260.867	36.49
261.084	52.3
261.302	25.69
261.519	33.74
261.736	21.62
261.953	38.69
262.17	35.25
262.387	46.11
262.604	52.46
262.822	70.59
263.039	60.99
263.256	65.11
263.473	74.58
263.69	76.92
263.907	58.92
264.124	76.36
264.341	63.42
264.558	46.41
264.775	21.35
264.992	49.74
265.209	45.65
265.426	60.26
265.643	65.27
265.86	64.06
266.077	43.61
266.294	43.8
266.51	31.42
266.727	42.42
266.944	51.85
267.161	37.44
267.378	5.65
267.595	3.18
267.812	-11.51
268.028	-16.63
268.245	0.5
268.462	43.16
268.679	35.2
268.896	36.88
269.112	20.88
269.329	37.03
269.546	31.37
269.763	23.79
269.979	21.99
270.196	42.09
270.413	28.18
270.629	37.7
270.846	60.69
271.063	60.21
271.279	57.51
271.496	58.9
271.712	45.98
271.929	27.91
272.146	45.71
272.362	31.02
272.579	24.54
272.795	38.39
273.012	37.86
273.228	20.52
273.445	23.62
273.661	30.49
273.878	7.02
274.094	4.98
274.311	16.24
274.527	11.79
274.744	-1.16
274.96	9.75
275.177	8.92
275.393	15.17
275.609	38.19
275.826	61.32
276.042	55.31
276.259	65.36
276.475	62.63
276.691	50.88
276.908	46.22
277.124	54.3
277.34	55.68
277.557	49.79
277.773	57.91
277.989	50.47
278.205	39.36
278.422	33.84
278.638	29.05
278.854	33.62
279.07	28.84
279.286	28.87
279.503	27.37
279.719	57.62
279.935	55.86
280.151	61.67
280.367	66.04
280.583	71.88
280.799	56.87
281.016	39.52
281.232	28.37
281.448	26.3
281.664	7.01
281.88	2.82
282.096	-0.67
282.312	2.54
282.528	-4.65
282.744	1.39
282.96	-0.53
283.176	19.32
283.392	29.35
283.608	41.08
283.824	34.29
284.04	8.53
284.256	16.96
284.471	9.3
284.687	7.82
284.903	16.82
285.119	42.6
285.335	36.8
285.551	38.85
285.767	38.43
285.982	26.59
286.198	13.11
286.414	6.6
286.63	12.77
286.846	-4.08
287.061	7.4
287.277	14.54
287.493	22.62
287.709	15.66
287.924	33.88
288.14	44.89
288.356	70.96
288.571	70.57
288.787	64.7
289.003	62.66
289.218	53.91
289.434	22.11
289.65	14.95
289.865	7.41
290.081	20.04
290.296	15.17
290.512	12.39
290.727	16.51
290.943	49.26
291.159	50.18
291.374	46.25
291.59	49.02
291.805	52.84
292.021	30.12
292.236	31.57
292.451	28.98
292.667	39.63
292.882	32.47
293.098	21.67
293.313	33.05
293.529	45.01
293.744	34.6
293.959	39.37
294.175	59.01
294.39	42.13
294.605	42.05
294.821	35.56
295.036	30.97
295.251	13.47
295.467	17.57
295.682	-13.14
295.897	1.32
296.112	16.8
296.328	25.77
296.543	31.18
296.758	41.42
296.973	50.91
297.188	39.15
297.404	30.36
297.619	28.25
297.834	31.99
298.049	24.76
298.264	36.67
298.479	46.09
298.694	46.11
298.909	39.45
299.125	33.7
299.34	13.4
299.555	18.33
299.77	27.8
299.985	31.58
300.2	32.53
300.415	44.44
300.63	27.96
300.845	18.98
301.06	6.73
301.275	16.28
301.49	22.47
301.704	37
301.919	38.22
302.134	41.84
302.349	35.45
302.564	43.92
302.779	31.62
302.994	31.29
303.209	36.41
303.423	35.18
303.638	13.52
303.853	27.58
304.068	34.44
304.283	40.64
304.497	47.45
304.712	54.84
304.927	54.48
305.142	48.6
305.356	23.95
305.571	28.72
305.786	38.46
306	24.09
306.215	32.81
306.43	37.55
306.644	47.75
306.859	38.9
307.074	58.62
307.288	54.71
307.503	64.42
307.717	48.36
307.932	34.65
308.147	32.81
308.361	42.95
308.576	34.22
308.79	37.77
309.005	42.55
309.219	16.55
309.434	-0.27
309.648	9.01
309.863	2.91
310.077	27.92
310.292	39.75
310.506	38.37
310.72	42.47
310.935	54.26
311.149	44.57
311.364	49.92
311.578	48.88
311.792	28.04
312.007	26.45
312.221	24.47
312.435	25.99
312.649	32.88
312.864	32.42
313.078	2.69
313.292	19.39
313.507	39.3
313.721	52.77
313.935	43.64
314.149	54.36
314.363	45.57
314.578	44.46
314.792	34.09
315.006	31.1
315.22	28.73
315.434	25
315.648	1.36
315.862	-4.96
316.077	-1.06
316.291	4.05
316.505	5.82
316.719	31.5
316.933	41.11
317.147	38.73
317.361	26.9
317.575	24.43
317.789	11.15
318.003	0.49
318.217	6.29
318.431	2.63
318.645	-0.12
318.859	-1.48
319.073	-3.77
319.287	-5.56
319.5	0.96
319.714	-5.64
319.928	8.74
320.142	0.99
320.356	22.25
320.57	43.43
320.784	46.11
320.997	42.22
321.211	56.48
321.425	48.92
321.639	18.42
321.853	23
322.066	17.87
322.28	-2.36
322.494	-2.61
322.707	14.55
322.921	11.22
323.135	9.75
323.349	16.09
323.562	16.86
323.776	7.08
323.989	-3.25
324.203	0.88
324.417	-1.93
324.63	9.5
324.844	26.37
325.057	23.73
325.271	21.48
325.485	24.75
325.698	15.67
325.912	16.05
326.125	41.78
326.339	46.41
326.552	59.95
326.766	84.37
326.979	73
327.193	58.25
327.406	64.55
327.619	51.04
327.833	31.89
328.046	48.77
328.26	48.76
328.473	33.72
328.686	31.45
328.9	36.49
329.113	18.71
329.326	3.36
329.54	17.29
329.753	37.03
329.966	43.56
330.179	53.63
330.393	67.91
330.606	57.91
330.819	45.73
331.032	34.27
331.246	41.9
331.459	32.17
331.672	34.55
331.885	35.35
332.098	43.16
332.311	44.66
332.525	44.57
332.738	31.58
332.951	35.1
333.164	17.45
333.377	6.99
333.59	9.75
333.803	21.39
334.016	15.1
334.229	20.35
334.442	32.09
334.655	33.41
334.868	35.02
335.081	42
335.294	59.34
335.507	39.15
335.72	42.65
335.933	24.84
336.146	17.83
336.359	-2.09
336.572	31.31
336.785	33
336.997	54.24
337.21	71.94
337.423	84.18
337.636	42.82
337.849	30.55
338.062	31.2
338.274	22.92
338.487	34.97
338.7	42.11
338.913	43.46
339.125	35.21
339.338	24.5
339.551	-8.13
339.763	-17.22
339.976	-4.24
340.189	3.52
340.402	8.2
340.614	9.89
340.827	14.16
341.039	1.36
341.252	-6.22
341.465	-38.5
341.677	-23.59
341.89	-26.13
342.102	3.73
342.315	11.57
342.527	38.89
342.74	37.01
342.952	17.67
343.165	23.83
343.377	29.07
343.59	19.09
343.802	20.01
344.015	40.81
344.227	37.3
344.44	21.74
344.652	38.07
344.864	33.84
345.077	32.36
345.289	17.23
345.502	30.43
345.714	21.62
345.926	20.39
346.139	15.73
346.351	31.25
346.563	19.27
346.775	27.08
346.988	34.55
347.2	35.02
347.412	24.31
347.624	33.76
347.837	11
348.049	24.72
348.261	28.94
348.473	29.99
348.685	38.68
348.897	56.23
349.11	45.56
349.322	40.27
349.534	50.03
349.746	54.58
349.958	50.11
350.17	47.09
350.382	47.93
350.594	30.71
350.806	25.17
351.018	32.29
351.23	18.45
351.442	19.9
351.654	41.5
351.866	27.47
352.078	16.61
352.29	25.32
352.502	21.39
352.714	28.98
352.926	35.85
353.138	50.11
353.35	50.59
353.561	56.79
353.773	36.94
353.985	21.87
354.197	-2.38
354.409	1.13
354.621	-2.52
354.832	12.44
355.044	17.86
355.256	31.35
355.468	24.33
355.679	44.18
355.891	42.88
356.103	44.08
356.314	47.31
356.526	64.79
356.738	51.49
356.949	49.67
357.161	45.72
357.373	41.22
357.584	26.73
357.796	38.93
358.008	42.15
358.219	48.82
358.431	44.07
358.642	43.58
358.854	39.87
359.065	27.96
359.277	31.23
359.488	41.75
359.7	38.12
359.911	30.99
360.123	43.11
360.334	31.76
360.546	13.8
360.757	28.18
360.969	27.58
361.18	29.64
361.391	32.94
361.603	38.95
361.814	43.57
362.025	35.12
362.237	31.43
362.448	34.05
362.659	26.71
362.871	17.7
363.082	31.52
363.293	25.91
363.504	26.66
363.716	32.89
363.927	21.84
364.138	15.85
364.349	19.86
364.56	16.51
364.772	19.75
364.983	22.82
365.194	18.97
365.405	18.38
365.616	10.37
365.827	15.12
366.038	27.14
366.25	20.74
366.461	12.63
366.672	20.8
366.883	15.28
367.094	6.38
367.305	12.73
367.516	11.39
367.727	31.67
367.938	32.85
368.149	39.49
368.36	52.16
368.571	45.49
368.781	33.37
368.992	23.03
369.203	7.9
369.414	11.57
369.625	19.66
369.836	12.29
370.047	20.83
370.258	33.76
370.468	29.37
370.679	17.95
370.89	16.47
371.101	19.41
371.312	22.44
371.522	16.64
371.733	28.22
371.944	41.55
372.155	45.4
372.365	32.2
372.576	39.94
372.787	38.13
372.997	45.7
373.208	38.11
373.419	46.1
373.629	40.64
373.84	47.08
374.05	29.6
374.261	28.19
374.472	24.88
374.682	24.77
374.893	24.03
375.103	31.73
375.314	39.02
375.524	47.17
375.735	42.22
375.945	36.18
376.156	33.84
376.366	19.39
376.577	1.79
376.787	13.06
376.997	11.47
377.208	12.53
377.418	22.33
377.629	30.71
377.839	30.69
378.049	27.22
378.26	26.87
378.47	31.41
378.68	35.79
378.89	25.03
379.101	19.22
379.311	17.32
379.521	8.2
379.732	-2.54
379.942	13.53
380.152	23.68
380.362	25.65
380.572	19.99
380.783	33.39
380.993	20.38
381.203	11.98
381.413	-0.37
381.623	10.96
381.833	5.66
382.043	20.77
382.253	21.82
382.463	34.12
382.674	43.82
382.884	48.71
383.094	34.11
383.304	35.08
383.514	33.58
383.724	14.94
383.934	13.31
384.144	9.88
384.353	8.62
384.563	6.95
384.773	15.82
384.983	16.61
385.193	23.21
385.403	24.4
385.613	24.92
385.823	24.77
386.033	26.95
386.242	32.87
386.452	31.39
386.662	34.56
386.872	34.51
387.082	32.43
387.291	17.09
387.501	18.99
387.711	13.98
387.921	10.88
388.13	8.77
388.34	14.32
388.55	13.06
388.759	9.09
388.969	11.37
389.179	11.77
389.388	14.17
389.598	15.51
389.807	16.43
390.017	11.23
390.227	10.26
390.436	9.86
390.646	5.77
390.855	4.43
391.065	4.34
391.274	5.88
391.484	3.84
391.693	6.27
391.903	7.75
392.112	8.65
392.322	7.57
392.531	7.21
392.74	6.05
392.95	6.35
393.159	7.58
393.369	7.04
393.578	8.28
393.787	8.86
393.997	8.84
394.206	9.35
394.415	10.12
394.625	9.87
394.834	9.14
395.043	9.43
395.252	9.06
395.462	10.37
395.671	9.84
395.88	10.92
396.089	11.04
396.298	10.44
396.508	9.63
396.717	9.94
396.926	9.34
397.135	8.49
397.344	9.05
397.553	8.88
397.762	8.15
397.971	8.05
398.181	7.99
398.39	7.38
398.599	7.28
398.808	7.97
399.017	8.23
399.226	8.85
399.435	9.21
399.644	9.65
399.853	9.69
400.062	9.82
400.27	9.34
400.479	8.8
400.688	8.57
400.897	8.54
401.106	8.29
401.315	8.6
401.524	8.85
401.733	8.76
401.941	8.73
402.15	8.63
402.359	8.43
402.568	8.32
402.777	8.03
402.985	7.83
403.194	7.96
403.403	8.1
403.612	8.01
403.82	8.24
404.029	8.38
404.238	8.43
404.446	8.17
404.655	8.32
404.864	8.32
405.072	8.33
405.281	8.09
405.489	8.03
405.698	7.97
405.906	7.89
406.115	7.61
406.324	7.63
406.532	7.64
406.741	7.65
406.949	7.69
407.158	7.74
407.366	7.69
407.574	7.82
407.783	7.65
407.991	7.63
408.2	7.57
408.408	7.75
408.617	7.66
408.825	7.68
409.033	7.68
409.242	7.8
409.45	7.59
409.658	7.57
409.867	7.57
410.075	7.43
410.283	7.38
410.491	7.34
410.7	7.31
410.908	7.3
411.116	7.36
411.324	7.29
411.533	7.37
411.741	7.19
411.949	7.16
412.157	7.1
412.365	7.32
412.573	7.21
412.781	7.3
412.99	7.32
413.198	7.47
413.406	7.22
413.614	7.27
413.822	7.26
414.03	7.2
414.238	6.9
414.446	6.9
414.654	6.89
414.862	7.04
415.07	6.95
415.278	7.11
415.486	7.02
415.694	6.94
415.902	6.9
416.109	7.06
416.317	7.19
416.525	7.17
416.733	7.22
416.941	7.13
417.149	6.95
417.357	6.87
417.564	6.89
417.772	6.87
417.98	6.89
418.188	7.21
418.395	6.99
418.603	7.02
418.811	7.15
419.019	7.06
419.226	6.91
419.434	7.08
419.642	7.2
419.849	6.97
420.057	7
420.265	6.96
420.472	6.76
420.68	6.63
420.887	6.84
421.095	6.82
421.302	6.71
421.51	6.73
421.717	6.65
421.925	6.54
422.132	6.59
422.34	6.67
422.547	6.73
422.755	6.88
422.962	6.85
423.17	6.87
423.377	6.89
423.585	7.02
423.792	6.93
423.999	7.01
424.207	6.8
424.414	6.61
424.621	6.47
424.829	6.48
425.036	6.32
425.243	6.45
425.451	6.57
425.658	6.56
425.865	6.48
426.072	6.5
426.28	6.44
426.487	6.52
426.694	6.51
426.901	6.63
427.108	6.62
427.315	6.75
427.523	6.57
427.73	6.43
427.937	6.28
428.144	6.39
428.351	6.02
428.558	6.2
428.765	6.31
428.972	6.31
429.179	6.1
429.386	6.38
429.593	6.2
429.8	6.21
430.007	6.22
430.214	6.32
430.421	6.39
430.628	6.43
430.835	6.44
431.042	6.34
431.249	6.39
431.456	6.39
431.662	6.59
431.869	6.56
432.076	6.79
432.283	6.69
432.49	6.61
432.697	6.45
432.903	6.66
433.11	6.75
433.317	6.7
433.524	6.72
433.73	6.62
433.937	6.36
434.144	6.27
434.35	6.41
434.557	6.32
434.764	6.4
434.97	6.4
435.177	6.38
435.384	6.32
435.59	6.37
435.797	6.38
436.003	6.46
436.21	6.36
436.416	6.2
436.623	6.12
436.829	5.99
437.036	5.9
437.242	5.96
437.449	6.07
437.655	6.3
437.862	6.52
438.068	6.51
438.275	6.53
438.481	6.51
438.687	6.36
438.894	6.4
439.1	6.45
439.307	6.38
439.513	6.48
439.719	6.61
439.926	6.47
440.132	6.62
440.338	6.59
440.544	6.48
440.751	6.3
440.957	6.25
441.163	6.07
441.369	6.09
441.575	6.12
441.782	6.31
441.988	6.35
442.194	6.38
442.4	6.53
442.606	6.63
442.812	6.58
443.018	6.47
443.224	6.43
443.431	6.22
443.637	6.24
443.843	6.11
444.049	6.25
444.255	6.3
444.461	6.28
444.667	6.14
444.873	6.16
445.079	6.25
445.284	6.26
445.49	6.34
445.696	6.33
445.902	6.34
446.108	6.2
446.314	6.11
446.52	6.2
446.726	6.22
446.931	6.14
447.137	6.16
447.343	6.17
447.549	6.06
447.755	6.01
447.96	6.06
448.166	6.09
448.372	6.18
448.578	6.13
448.783	6.21
448.989	6.26
449.195	6.21
449.4	6.16
449.606	6.15
449.812	6.03
450.017	6.04
450.223	6.02
450.428	5.96
450.634	5.92
450.84	6.01
451.045	6.08
451.251	6.09
451.456	6.11
451.662	6.17
451.867	6.19
452.073	6.06
452.278	6.15
452.483	6.16
452.689	6.27
452.894	6.29
453.1	6.27
453.305	6.25
453.51	6.27
453.716	6.07
453.921	6.1
454.127	6.18
454.332	6.12
454.537	6.17
454.742	6.23
454.948	6.15
455.153	6.12
455.358	6.11
455.563	5.96
455.769	6.04
455.974	6.07
456.179	6.08
456.384	6
456.589	6.17
456.795	6.16
457	6.14
457.205	6.01
457.41	6.09
457.615	6.02
457.82	5.95
458.025	5.95
458.23	6.14
458.435	6.1
458.64	5.96
458.845	5.99
459.05	5.83
459.255	5.87
459.46	5.91
459.665	6.11
459.87	6.1
460.075	6.27
460.28	6.18
460.485	6.22
460.69	6.15
460.895	6.23
461.099	6.18
461.304	6.15
461.509	6.06
461.714	6.14
461.919	6.1
462.123	6.09
462.328	6.14
462.533	6.2
462.738	6.14
462.942	6.08
463.147	6.1
463.352	6.05
463.556	6.03
463.761	5.99
463.966	5.98
464.17	6.09
464.375	6.13
464.58	6.1
464.784	6.19
464.989	6.34
465.193	6.23
465.398	6.28
465.602	6.38
465.807	6.34
466.011	6.22
466.216	6.17
466.42	6.18
466.625	6.09
466.829	6.03
467.034	6.22
467.238	6.35
467.443	6.46
467.647	6.51
467.851	6.55
468.056	6.39
468.26	6.34
468.464	6.17
468.669	6.21
468.873	6.21
469.077	6.16
469.282	6.14
469.486	6.12
469.69	6.01
469.894	6.04
470.099	6.11
470.303	6.1
470.507	6.11
470.711	6.28
470.915	6.33
471.119	6.26
471.324	6.26
471.528	6.27
471.732	6.25
471.936	6.22
472.14	6.27
472.344	6.25
472.548	6.14
472.752	6.09
472.956	6.02
473.16	6.11
473.364	6.14
473.568	6.29
473.772	6.2
473.976	6.19
474.18	6.14
474.384	6.13
474.588	6.16
474.792	6.26
474.995	6.22
475.199	6.12
475.403	6.1
475.607	6.06
475.811	6.07
476.015	6.21
476.218	6.28
476.422	6.33
476.626	6.26
476.83	6.24
477.033	6.25
477.237	6.26
477.441	6.27
477.644	6.27
477.848	6.27
478.052	6.11
478.255	6.09
478.459	6.1
478.663	6.11
478.866	6.08
479.07	6.23
479.273	6.18
479.477	6.14
479.681	6.25
479.884	6.34
480.088	6.23
480.291	6.34
480.495	6.36
480.698	6.3
480.901	6.35
481.105	6.42
481.308	6.32
481.512	6.32
481.715	6.25
481.919	6.15
482.122	6.15
482.325	6.22
482.529	6.23
482.732	6.17
482.935	6.09
483.138	6.17
483.342	6.13
483.545	6.15
483.748	6.22
483.952	6.33
484.155	6.3
484.358	6.37
484.561	6.35
484.764	6.31
484.967	6.29
485.171	6.29
485.374	6.21
485.577	6.23
485.78	6.27
485.983	6.22
486.186	6.18
486.389	6.2
486.592	6.2
486.795	6.18
486.998	6.2
487.201	6.21
487.404	6.27
487.607	6.2
487.81	6.22
488.013	6.2
488.216	6.24
488.419	6.09
488.622	6.06
488.825	6.05
489.028	6.07
489.231	6
489.433	6.05
489.636	6.12
489.839	6.13
490.042	6.09
490.245	6.08
490.447	6.05
490.65	6.06
490.853	6.01
491.056	6.01
491.258	5.99
491.461	6.1
491.664	5.98
491.866	6.02
492.069	5.97
492.272	6.04
492.474	6.1
492.677	6.15
492.879	6.18
493.082	6.2
493.285	6.21
493.487	6.09
493.69	6.09
493.892	6.08
494.095	6.2
494.297	6.18
494.5	6.23
494.702	6.26
494.905	6.24
495.107	6.11
495.309	6.05
495.512	5.99
495.714	5.96
495.917	5.96
496.119	5.98
496.321	5.98
496.524	5.97
496.726	5.96
496.928	5.94
497.13	5.97
497.333	6.02
497.535	6.09
497.737	6.12
497.939	6.15
498.142	6.14
498.344	6.09
498.546	6.05
498.748	6.04
498.95	6.03
499.152	6
499.355	6.05
499.557	6.02
499.759	6.02
499.961	6.01
500.163	6.01
500.365	5.99
500.567	6.02
500.769	6
500.971	6.01
501.173	6.01
501.375	6.02
501.577	6.04
501.779	6.1
501.981	6.15
502.183	6.19
502.385	6.15
502.587	6.09
502.788	6.06
502.99	6.07
503.192	6.07
503.394	6.07
503.596	6.12
503.798	6.18
503.999	6.17
504.201	6.19
504.403	6.21
504.605	6.26
504.806	6.21
505.008	6.2
505.21	6.15
505.411	6.09
505.613	6.06
505.815	6.05
506.016	6.07
506.218	6.13
506.42	6.18
506.621	6.18
506.823	6.21
507.024	6.2
507.226	6.19
507.427	6.23
507.629	6.24
507.83	6.17
508.032	6.16
508.233	6.15
508.435	6.14
508.636	6.25
508.838	6.29
509.039	6.31
509.24	6.33
509.442	6.33
509.643	6.19
509.845	6.19
510.046	6.26
510.247	6.27
510.448	6.29
510.65	6.38
510.851	6.4
511.052	6.36
511.254	6.35
511.455	6.35
511.656	6.35
511.857	6.35
512.058	6.32
512.26	6.37
512.461	6.34
512.662	6.26
512.863	6.17
513.064	6.18
513.265	6.08
513.466	6.14
513.667	6.18
513.868	6.21
514.069	6.2
514.27	6.21
514.471	6.21
514.672	6.24
514.873	6.32
515.074	6.37
515.275	6.39
515.476	6.32
515.677	6.25
515.878	6.22
516.079	6.19
516.28	6.24
516.481	6.27
516.682	6.33
516.882	6.34
517.083	6.36
517.284	6.32
517.485	6.29
517.686	6.26
517.886	6.31
518.087	6.23
518.288	6.31
518.488	6.34
518.689	6.38
518.89	6.36
519.091	6.47
519.291	6.36
519.492	6.34
519.692	6.36
519.893	6.35
520.094	6.25
520.294	6.31
520.495	6.37
520.695	6.34
520.896	6.3
521.096	6.34
521.297	6.41
521.497	6.34
521.698	6.37
521.898	6.46
522.099	6.51
522.299	6.48
522.499	6.5
522.7	6.42
522.9	6.43
523.101	6.42
523.301	6.43
523.501	6.47
523.702	6.51
523.902	6.54
524.102	6.57
524.302	6.59
524.503	6.58
524.703	6.64
524.903	6.64
525.103	6.64
525.304	6.59
525.504	6.62
525.704	6.55
525.904	6.53
526.104	6.5
526.304	6.59
526.504	6.57
526.705	6.56
526.905	6.56
527.105	6.59
527.305	6.46
527.505	6.47
527.705	6.52
527.905	6.52
528.105	6.51
528.305	6.56
528.505	6.58
528.705	6.58
528.905	6.56
529.105	6.55
529.304	6.59
529.504	6.58
529.704	6.59
529.904	6.65
530.104	6.68
530.304	6.68
530.503	6.74
530.703	6.72
530.903	6.74
531.103	6.77
531.303	6.78
531.502	6.75
531.702	6.74
531.902	6.67
532.101	6.62
532.301	6.64
532.501	6.59
532.7	6.67
532.9	6.69
533.1	6.75
533.299	6.73
533.499	6.82
533.698	6.74
533.898	6.72
534.097	6.73
534.297	6.79
534.496	6.71
534.696	6.75
534.895	6.77
535.095	6.79
535.294	6.76
535.494	6.79
535.693	6.81
535.892	6.87
536.092	6.87
536.291	6.87
536.491	6.93
536.69	6.95
536.889	6.93
537.088	6.89
537.288	6.86
537.487	6.82
537.686	6.85
537.886	6.9
538.085	6.92
538.284	7.03
538.483	7.07
538.682	7.08
538.882	7.08
539.081	7.13
539.28	7.12
539.479	7.12
539.678	7.14
539.877	7.11
540.076	7.07
540.275	7.05
540.474	7.04
540.673	7.02
540.872	7.09
541.071	7.15
541.27	7.21
541.469	7.29
541.668	7.3
541.867	7.29
542.066	7.29
542.265	7.31
542.464	7.26
542.663	7.31
542.862	7.42
543.06	7.46
543.259	7.52
543.458	7.61
543.657	7.61
543.856	7.58
544.054	7.56
544.253	7.47
544.452	7.49
544.651	7.48
544.849	7.46
545.048	7.5
545.247	7.58
545.445	7.6
545.644	7.66
545.843	7.72
546.041	7.76
546.24	7.82
546.438	7.88
546.637	7.95
546.836	7.98
547.034	8.03
547.233	8.07
547.431	8.07
547.63	8.04
547.828	8.06
548.027	8.08
548.225	8.01
548.423	8.04
548.622	8.06
548.82	8.14
549.019	8.17
549.217	8.21
549.415	8.3
549.614	8.37
549.812	8.39
550.01	8.39
550.209	8.52
550.407	8.52
550.605	8.6
550.803	8.6
551.002	8.66
551.2	8.7
551.398	8.75
551.596	8.75
551.794	8.83
551.993	8.92
552.191	8.91
552.389	8.93
552.587	8.99
552.785	9.02
552.983	9.05
553.181	9.16
553.379	9.29
553.577	9.35
553.775	9.4
553.973	9.45
554.171	9.46
554.369	9.46
554.567	9.51
554.765	9.57
554.963	9.62
555.161	9.67
555.359	9.74
555.557	9.84
555.755	9.92
555.952	10.04
556.15	10.12
556.348	10.2
556.546	10.24
556.744	10.29
556.941	10.28
557.139	10.4
557.337	10.52
557.535	10.56
557.732	10.6
557.93	10.7
558.128	10.67
558.325	10.67
558.523	10.71
558.721	10.82
558.918	10.89
559.116	11.08
559.313	11.11
559.511	11.3
559.708	11.39
559.906	11.49
560.104	11.46
560.301	11.58
560.498	11.66
560.696	11.7
560.893	11.77
561.091	11.93
561.288	12.1
561.486	12.09
561.683	12.13
561.88	12.15
562.078	12.15
562.275	12.04
562.473	12.15
562.67	12.32
562.867	12.44
563.064	12.57
563.262	12.72
563.459	12.86
563.656	12.97
563.853	13.1
564.051	13.14
564.248	13.24
564.445	13.31
564.642	13.34
564.839	13.42
565.036	13.61
565.234	13.72
565.431	13.79
565.628	13.87
565.825	13.85
566.022	13.91
566.219	13.97
566.416	14.02
566.613	14.1
566.81	14.29
567.007	14.29
567.204	14.32
567.401	14.46
567.598	14.59
567.795	14.69
567.991	14.84
568.188	14.98
568.385	15.01
568.582	14.98
568.779	14.95
568.976	15.04
569.172	15.1
569.369	15.24
569.566	15.34
569.763	15.33
569.96	15.41
570.156	15.47
570.353	15.47
570.55	15.49
570.746	15.68
570.943	15.62
571.14	15.64
571.336	15.65
571.533	15.63
571.729	15.68
571.926	15.78
572.123	15.83
572.319	15.96
572.516	16.18
572.712	16.2
572.909	16.33
573.105	16.41
573.302	16.46
573.498	16.4
573.695	16.37
573.891	16.39
574.087	16.37
574.284	16.36
574.48	16.44
574.677	16.46
574.873	16.44
575.069	16.57
575.266	16.59
575.462	16.57
575.658	16.67
575.854	16.72
576.051	16.68
576.247	16.69
576.443	16.79
576.639	16.87
576.835	16.81
577.032	16.84
577.228	16.91
577.424	16.85
577.62	16.79
577.816	16.79
578.012	16.77
578.208	16.77
578.404	16.8
578.6	16.94
578.796	16.96
578.993	17.02
579.189	16.99
579.384	17.02
579.58	16.97
579.776	17.06
579.972	17.15
580.168	17.1
580.364	17.11
580.56	17.09
580.756	17.03
580.952	16.88
581.148	16.94
581.343	17.01
581.539	16.96
581.735	17.03
581.931	17.06
582.127	17.08
582.322	17.03
582.518	17.04
582.714	16.97
582.909	17.02
583.105	16.96
583.301	16.91
583.496	16.87
583.692	16.84
583.888	16.83
584.083	16.86
584.279	16.92
584.474	16.98
584.67	16.91
584.866	16.79
585.061	16.71
585.257	16.65
585.452	16.62
585.648	16.57
585.843	16.64
586.039	16.73
586.234	16.69
586.429	16.67
586.625	16.74
586.82	16.76
587.015	16.69
587.211	16.59
587.406	16.65
587.601	16.68
587.797	16.67
587.992	16.67
588.187	16.78
588.383	16.72
588.578	16.69
588.773	16.67
588.968	16.81
589.163	16.8
589.359	16.81
589.554	16.87
589.749	16.93
589.944	16.8
590.139	16.92
590.334	16.96
590.529	17.02
590.724	17.05
590.919	17.13
591.114	17.09
591.309	17.08
591.504	17.06
591.699	17.06
591.894	16.92
592.089	16.92
592.284	16.98
592.479	16.98
592.674	17.03
592.869	17.22
593.064	17.35
593.259	17.43
593.454	17.5
593.648	17.52
593.843	17.59
594.038	17.62
594.233	17.64
594.428	17.74
594.622	17.81
594.817	17.79
595.012	17.83
595.206	17.91
595.401	18.01
595.596	18.11
595.79	18.09
595.985	18.19
596.18	18.28
596.374	18.3
596.569	18.28
596.763	18.51
596.958	18.63
597.153	18.63
597.347	18.62
597.542	18.74
597.736	18.76
597.931	18.71
598.125	18.84
598.319	18.94
598.514	18.98
598.708	19.04
598.903	19.17
599.097	19.19
599.291	19.27
599.486	19.33
599.68	19.38
599.874	19.34
600.069	19.45
600.263	19.47
600.457	19.5
600.651	19.53
600.846	19.62
601.04	19.56
601.234	19.58
601.428	19.58
601.622	19.67
601.817	19.61
602.011	19.64
602.205	19.68
602.399	19.75
602.593	19.78
602.787	19.79
602.981	19.73
603.175	19.82
603.369	19.75
603.563	19.7
603.757	19.72
603.951	19.78
604.145	19.56
604.339	19.49
604.533	19.45
604.727	19.5
604.921	19.58
605.115	19.56
605.309	19.61
605.502	19.63
605.696	19.51
605.89	19.39
606.084	19.48
606.278	19.41
606.471	19.33
606.665	19.27
606.859	19.17
607.053	19.06
607.246	19
607.44	18.85
607.634	18.83
607.827	18.75
608.021	18.69
608.214	18.62
608.408	18.63
608.602	18.65
608.795	18.66
608.989	18.63
609.182	18.62
609.376	18.57
609.569	18.39
609.763	18.27
609.956	18.23
610.15	18.21
610.343	18.1
610.537	18.06
610.73	17.99
610.923	17.94
611.117	17.84
611.31	17.73
611.504	17.76
611.697	17.74
611.89	17.67
612.083	17.61
612.277	17.59
612.47	17.47
612.663	17.34
612.856	17.14
613.05	17.08
613.243	17
613.436	16.87
613.629	16.77
613.822	16.77
614.015	16.69
614.209	16.53
614.402	16.4
614.595	16.44
614.788	16.35
614.981	16.22
615.174	16.25
615.367	16.31
615.56	16.13
615.753	16.07
615.946	15.99
616.139	15.91
616.332	15.84
616.525	15.75
616.718	15.65
616.911	15.76
617.103	15.67
617.296	15.58
617.489	15.6
617.682	15.62
617.875	15.56
618.067	15.54
618.26	15.43
618.453	15.4
618.646	15.38
618.838	15.2
619.031	15.14
619.224	15.22
619.417	15.26
619.609	15.12
619.802	15.2
619.994	15.15
620.187	15.04
620.38	14.97
620.572	14.97
620.765	14.86
620.957	14.84
621.15	14.88
621.342	14.8
621.535	14.81
621.727	14.78
621.92	14.73
622.112	14.7
622.305	14.66
622.497	14.57
622.69	14.47
622.882	14.45
623.074	14.46
623.267	14.37
623.459	14.39
623.651	14.42
623.844	14.44
624.036	14.28
624.228	14.42
624.42	14.37
624.613	14.38
624.805	14.26
624.997	14.32
625.189	14.22
625.381	14.23
625.574	14.14
625.766	14.18
625.958	14.12
626.15	14.01
626.342	13.96
626.534	13.96
626.726	13.96
626.918	13.88
627.11	13.98
627.302	13.97
627.494	13.96
627.686	13.91
627.878	13.93
628.07	13.8
628.262	13.73
628.454	13.69
628.646	13.58
628.838	13.56
629.029	13.58
629.221	13.58
629.413	13.51
629.605	13.6
629.797	13.63
629.989	13.56
630.18	13.55
630.372	13.62
630.564	13.54
630.755	13.54
630.947	13.56
631.139	13.51
631.33	13.47
631.522	13.41
631.714	13.3
631.905	13.29
632.097	13.29
632.289	13.16
632.48	13.14
632.672	13.08
632.863	13.01
633.055	12.98
633.246	13.08
633.438	13.13
633.629	13.14
633.821	13.05
634.012	13.06
634.203	13.02
634.395	12.95
634.586	12.97
634.777	13.04
634.969	13
635.16	13.01
635.351	13
635.543	12.99
635.734	13.08
635.925	13.08
636.117	13.13
636.308	13.18
636.499	13.14
636.69	13.04
636.881	13.12
637.073	13.08
637.264	13.02
637.455	13.03
637.646	13.04
637.837	12.99
638.028	12.82
638.219	12.86
638.41	12.91
638.601	12.9
638.792	12.82
638.983	12.97
639.174	12.96
639.365	12.92
639.556	12.89
639.747	12.93
639.938	12.87
640.129	12.9
640.32	12.88
640.511	12.9
640.701	12.85
640.892	12.81
641.083	12.73
641.274	12.71
641.465	12.71
641.655	12.74
641.846	12.8
642.037	12.79
642.228	12.84
642.418	12.74
642.609	12.68
642.8	12.61
642.99	12.57
643.181	12.53
643.372	12.62
643.562	12.62
643.753	12.61
643.943	12.64
644.134	12.51
644.324	12.45
644.515	12.52
644.705	12.52
644.896	12.47
645.086	12.54
645.277	12.51
645.467	12.43
645.658	12.36
645.848	12.35
646.038	12.25
646.229	12.33
646.419	12.28
646.61	12.26
646.8	12.37
646.99	12.47
647.18	12.37
647.371	12.36
647.561	12.34
647.751	12.27
647.941	12.2
648.132	12.16
648.322	12.15
648.512	12.18
648.702	12.14
648.892	12.19
649.082	12.23
649.272	12.24
649.462	12.23
649.653	12.16
649.843	12.02
650.033	12.01
650.223	11.97
650.413	11.87
650.603	11.88
650.793	11.95
650.983	11.93
651.172	11.92
651.362	11.98
651.552	11.9
651.742	11.81
651.932	11.72
652.122	11.68
652.312	11.62
652.502	11.55
652.691	11.49
652.881	11.51
653.071	11.45
653.261	11.36
653.45	11.32
653.64	11.32
653.83	11.22
654.019	11.06
654.209	10.98
654.399	10.92
654.588	10.72
654.778	10.55
654.968	10.45
655.157	10.41
655.347	10.36
655.536	10.31
655.726	10.18
655.915	10.23
656.105	10.12
656.294	10.05
656.484	9.91
656.673	9.99
656.863	9.77
657.052	9.63
657.241	9.47
657.431	9.41
657.62	9.16
657.809	8.98
657.999	8.87
658.188	8.79
658.377	8.74
658.567	8.72
658.756	8.73
658.945	8.68
659.134	8.56
659.324	8.44
659.513	8.31
659.702	8.13
659.891	7.92
660.08	7.71
660.269	7.54
660.458	7.43
660.648	7.53
660.837	7.45
661.026	7.47
661.215	7.48
661.404	7.35
661.593	7.17
661.782	7.14
661.971	7.01
662.16	6.94
662.349	6.96
662.538	6.92
662.726	6.92
662.915	6.96
663.104	6.9
663.293	6.76
663.482	6.63
663.671	6.53
663.86	6.44
664.048	6.3
664.237	6.27
664.426	6.21
664.615	6.11
664.803	5.97
664.992	5.97
665.181	6.02
665.369	6.07
665.558	6.1
665.747	6.25
665.935	6.3
666.124	6.26
666.312	6.2
666.501	6.23
666.69	6.18
666.878	6.09
667.067	6.01
667.255	6.12
667.444	6.17
667.632	6.3
667.82	6.39
668.009	6.51
668.197	6.54
668.386	6.55
668.574	6.46
668.762	6.37
668.951	6.44
669.139	6.41
669.327	6.38
669.516	6.48
669.704	6.61
669.892	6.57
670.08	6.6
670.269	6.64
670.457	6.56
670.645	6.54
670.833	6.5
671.021	6.49
671.21	6.44
671.398	6.44
671.586	6.49
671.774	6.72
671.962	6.77
672.15	6.92
672.338	7.08
672.526	7.11
672.714	7.1
672.902	7.16
673.09	7.24
673.278	7.19
673.466	7.35
673.654	7.46
673.842	7.56
674.03	7.56
674.218	7.73
674.405	7.65
674.593	7.59
674.781	7.62
674.969	7.64
675.157	7.62
675.344	7.74
675.532	7.89
675.72	8.01
675.908	8.15
676.095	8.23
676.283	8.2
676.471	8.3
676.658	8.35
676.846	8.4
677.033	8.63
677.221	8.81
677.409	8.81
677.596	8.81
677.784	8.9
677.971	8.85
678.159	8.94
678.346	8.92
678.534	9.05
678.721	9.14
678.909	9.22
679.096	9.22
679.283	9.42
679.471	9.44
679.658	9.4
679.846	9.49
680.033	9.6
680.22	9.71
680.408	9.78
680.595	9.91
680.782	9.91
680.969	10.03
681.157	9.99
681.344	10.08
681.531	10.11
681.718	10.32
681.905	10.39
682.093	10.45
682.28	10.54
682.467	10.98
682.654	10.93
682.841	10.9
683.028	11.02
683.215	11.24
683.402	10.89
683.589	11.15
683.776	11.44
683.963	11.46
684.15	11.47
684.337	11.8
684.524	11.84
684.711	11.97
684.898	12.24
685.085	12.47
685.271	12.79
685.458	12.95
685.645	12.94
685.832	13.07
686.019	13.3
686.205	13.29
686.392	13.53
686.579	13.81
686.766	14.28
686.952	14.4
687.139	14.62
687.326	14.82
687.512	15.16
687.699	15.23
687.886	15.61
688.072	15.91
688.259	16.23
688.445	16.49
688.632	16.94
688.818	17.27
689.005	17.56
689.191	18.05
689.378	18.48
689.564	18.92
689.751	19.21
689.937	19.98
690.124	20.39
690.31	20.86
690.496	21.4
690.683	22.08
690.869	22.41
691.055	22.7
691.242	23.27
691.428	23.71
691.614	24.22
691.8	24.66
691.987	25.52
692.173	26.16
692.359	26.89
692.545	27.56
692.731	28.36
692.918	28.93
693.104	29.43
693.29	29.98
693.476	30.61
693.662	31.37
693.848	32.06
694.034	32.83
694.22	33.56
694.406	34.11
694.592	34.65
694.778	35.3
694.964	36.13
695.15	36.73
695.336	37.42
695.522	38.26
695.708	39.02
695.894	39.57
696.08	40.21
696.265	41.1
696.451	41.66
696.637	42.22
696.823	42.96
697.009	43.79
697.194	44.51
697.38	45.36
697.566	46.28
697.751	47.1
697.937	47.59
698.123	48.2
698.308	48.59
698.494	49.13
698.68	49.57
698.865	50.23
699.051	50.95
699.236	51.67
699.422	52.21
699.607	52.9
699.793	53.7
699.978	54.11
700.164	54.75
700.349	55.41
700.535	55.94
700.72	56.59
700.906	57.12
701.091	57.72
701.276	58.26
701.462	58.75
701.647	59.25
701.832	60.12
702.018	60.75
702.203	61.23
702.388	61.86
702.573	62.15
702.759	62.2
702.944	62.37
703.129	63.05
703.314	63.37
703.499	63.87
703.684	64.7
703.87	65.22
704.055	65.41
704.24	65.89
704.425	66.24
704.61	66.67
704.795	66.85
704.98	67.35
705.165	67.66
705.35	68.37
705.535	68.72
705.72	69.4
705.905	69.62
706.09	70.22
706.275	70.18
706.459	70.42
706.644	70.33
706.829	70.94
707.014	71.22
707.199	71.4
707.384	71.6
707.568	72.41
707.753	72.64
707.938	72.63
708.123	73.12
708.307	73.5
708.492	73.85
708.677	73.69
708.861	74.43
709.046	74.72
709.231	74.86
709.415	74.39
709.6	74.53
709.784	74.49
709.969	74.66
710.153	74.58
710.338	75.07
710.522	75.89
710.707	75.85
710.891	75.98
711.076	76.85
711.26	77.07
711.445	77.33
711.629	77.66
711.813	77.95
711.998	77.82
712.182	77.97
712.366	77.71
712.551	77.91
712.735	77.91
712.919	77.86
713.103	78.03
713.288	78.2
713.472	77.97
713.656	78.24
713.84	78.48
714.024	78.95
714.208	79.12
714.393	79.89
714.577	79.97
714.761	80
714.945	79.76
715.129	79.61
715.313	79.45
715.497	79.96
715.681	79.88
715.865	80.16
716.049	80.35
716.233	80.93
716.417	80.95
716.601	81.2
716.785	81.21
716.968	81.39
717.152	81.17
717.336	81.11
717.52	81.27
717.704	81.68
717.888	82.51
718.071	82.62
718.255	82.65
718.439	82.78
718.622	82.22
718.806	81.89
718.99	82.22
719.174	82.26
719.357	82.11
719.541	82.86
719.724	83
719.908	82.92
720.092	82.97
720.275	83.8
720.459	83.54
720.642	83.81
720.826	84.03
721.009	84.4
721.193	84.44
721.376	84.83
721.559	84.73
721.743	84.4
721.926	84.27
722.11	84.07
722.293	83.76
722.476	84.14
722.66	84.35
722.843	84.58
723.026	85.08
723.21	85.77
723.393	85.06
723.576	85.18
723.759	85
723.942	85.07
724.126	84.85
724.309	85.87
724.492	86.06
724.675	86.33
724.858	86.39
725.041	86.27
725.224	86.1
725.407	86.13
725.59	86.69
725.774	86.74
725.957	87.41
726.14	87.5
726.322	87.77
726.505	87.49
726.688	87.68
726.871	87.39
727.054	88.04
727.237	87.99
727.42	88.38
727.603	88.45
727.786	88.79
727.968	88.5
728.151	88.9
728.334	88.63
728.517	88.21
728.699	87.8
728.882	88.09
729.065	87.86
729.248	88.16
729.43	88.6
729.613	89.2
729.796	88.93
729.978	89.87
730.161	90.07
730.343	90.04
730.526	90.83
730.708	90.3
730.891	90.34
731.073	90.42
731.256	91.37
731.438	90.29
731.621	91.11
731.803	90.7
731.986	90.6
732.168	89.67
732.35	89.97
732.533	88.97
732.715	89.03
732.898	89.58
733.08	90
733.262	90.41
733.444	90.67
733.627	90.8
733.809	90.77
733.991	91.24
734.173	92
734.355	93.45
734.538	93.17
734.72	93.33
734.902	93.77
735.084	92.84
735.266	92.28
735.448	92.63
735.63	91.98
735.812	91.34
735.994	91.35
736.176	91.21
736.358	92.67
736.54	92.87
736.722	93.54
736.904	94.68
737.086	94.6
737.268	93.34
737.45	93.74
737.632	93.08
737.814	92.35
737.995	93.26
738.177	93.03
738.359	93.34
738.541	93.22
738.723	93.5
738.904	93.45
739.086	93.87
739.268	94.18
739.449	94.65
739.631	95.36
739.813	95.44
739.994	96.46
740.176	96.39
740.358	96.44
740.539	95.39
740.721	95.9
740.902	94.98
741.084	94.92
741.265	95.17
741.447	95.62
741.628	94.62
741.81	93.79
741.991	93.03
742.172	93.28
742.354	94.39
742.535	96.38
742.717	97.38
742.898	98.27
743.079	97.61
743.261	96.47
743.442	94.9
743.623	94.38
743.804	93.43
743.986	94.25
744.167	93.68
744.348	92.62
744.529	93.44
744.71	93.92
744.891	93.36
745.073	93.98
745.254	95.8
745.435	95.68
745.616	95.9
745.797	96.28
745.978	96.46
746.159	96.9
746.34	95.85
746.521	95.81
746.702	95.65
746.883	95.27
747.064	93.27
747.245	95.3
747.426	95.37
747.606	93.96
747.787	94.55
747.968	95.57
748.149	94.93
748.33	94.74
748.51	96.31
748.691	95.37
748.872	96.53
749.053	95
749.233	94.58
749.414	92.98
749.595	93.46
749.775	92.63
749.956	94.35
750.137	94.17
750.317	95.42
750.498	95.11
750.678	93.98
750.859	93.51
751.04	94.13
751.22	93.54
751.4	94.06
751.581	94.33
751.761	95.24
751.942	94.44
752.122	95.45
752.303	94.9
752.483	95
752.663	93.07
752.844	93.37
753.024	92.67
753.204	93.05
753.385	92.99
753.565	94.96
753.745	95.68
753.925	95.08
754.106	95.66
754.286	95.56
754.466	94.2
754.646	96.59
754.826	96.18
755.006	95.88
755.187	97.45
755.367	95.99
755.547	93.21
755.727	93.84
755.907	93.78
756.087	92.93
756.267	92.91
756.447	94.06
756.627	94.3
756.807	93.78
756.987	92.95
757.167	95.06
757.346	93.24
757.526	93.33
757.706	91.6
757.886	90.93
758.066	90.36
758.246	91.29
758.425	91.25
758.605	94.3
758.785	95.42
758.965	96.89
759.144	97.75
759.324	98.15
759.504	96.79
759.683	96.24
759.863	94.04
760.043	93.35
760.222	92.24
760.402	91.82
760.581	93.86
760.761	93.68
760.94	92.81
761.12	93.6
761.299	92.71
761.479	92.01
761.658	92.54
761.838	92.11
762.017	92.75
762.197	93.08
762.376	91.66
762.555	91.22
762.735	93.12
762.914	89.93
763.093	89.38
763.273	90.31
763.452	89.48
763.631	87.49
763.81	89.84
763.99	92.91
764.169	94.49
764.348	96.66
764.527	96.36
764.706	94.46
764.885	93.04
765.064	90.99
765.243	90.1
765.423	91.53
765.602	91.42
765.781	93.19
765.96	92.28
766.139	91.79
766.318	90.99
766.497	92.78
766.676	90.97
766.854	91.75
767.033	91.15
767.212	91.89
767.391	90.99
767.57	91.17
767.749	90.33
767.928	91.28
768.106	92.14
768.285	90.36
768.464	90.36
768.643	91.46
768.821	92.22
769	91.65
769.179	94.92
769.357	94.62
769.536	93.23
769.715	91.9
769.893	93.02
770.072	90.05
770.25	90.13
770.429	91.68
770.607	90.79
770.786	90.8
770.964	91
771.143	89.34
771.321	88.48
771.5	91.45
771.678	89.13
771.857	91.68
772.035	93.82
772.213	93.93
772.392	92.99
772.57	93.12
772.748	92.45
772.927	93.2
773.105	93.29
773.283	90.7
773.461	91.33
773.64	91.01
773.818	89.72
773.996	85.92
774.174	88.51
774.352	87.27
774.531	86.48
774.709	87.81
774.887	93.95
775.065	91.95
775.243	93.4
775.421	94.51
775.599	91.94
775.777	89.47
775.955	88.07
776.133	87.9
776.311	88.01
776.489	89.72
776.667	90.57
776.844	92.92
777.022	93.06
777.2	93.6
777.378	91.4
777.556	90.38
777.734	89.2
777.911	87.92
778.089	88.1
778.267	88.3
778.445	86.75
778.622	89.34
778.8	91.36
778.978	87.08
779.155	87.3
779.333	87.05
779.511	81.19
779.688	78.13
779.866	80.54
780.043	81.23
780.221	82.16
780.398	85.08
780.576	87.9
780.753	89.94
780.931	88.33
781.108	90.41
781.286	91.26
781.463	89.98
781.64	90.67
781.818	90.73
781.995	87.64
782.172	86.9
782.35	85.46
782.527	83.62
782.704	87.06
782.882	90.84
783.059	90.78
783.236	91.49
783.413	89.84
783.59	86.58
783.768	81.81
783.945	84.62
784.122	82.47
784.299	85.3
784.476	86.85
784.653	90.1
784.83	86.48
785.007	89.91
785.184	89.36
785.361	86.35
785.538	83.32
785.715	79.33
785.892	78.6
786.069	78.8
786.246	82.08
786.423	83.99
786.6	90.65
786.776	89.36
786.953	89.23
787.13	88.93
787.307	89.43
787.484	88.66
787.66	95.42
787.837	97.16
788.014	97.71
788.191	99.02
788.367	101.13
788.544	97.34
788.721	93.85
788.897	94.76
789.074	92.87
789.25	87.81
789.427	85.04
789.603	87.02
789.78	86.04
789.956	87.3
790.133	89.2
790.309	92.82
790.486	89.28
790.662	89.9
790.839	89.35
791.015	86.65
791.192	83.5
791.368	88.97
791.544	81.74
791.721	81.61
791.897	82.46
792.073	83.08
792.249	78.26
792.426	85.71
792.602	84.94
792.778	85.32
792.954	83.64
793.13	85.74
793.307	84.9
793.483	86
793.659	86.01
793.835	85.53
794.011	87.22
794.187	86.87
794.363	88.57
794.539	86.61
794.715	87.4
794.891	86.78
795.067	81.42
795.243	78.88
795.419	83.21
795.595	87.22
795.771	88.31
795.947	97.65
796.122	95.42
796.298	96.96
796.474	94.71
796.65	91.47
796.826	91.08
797.001	94.15
797.177	90.42
797.353	86.43
797.529	89.79
797.704	84.06
797.88	80.71
798.056	80.66
798.231	85.41
798.407	80
798.582	79.95
798.758	83.43
798.934	87.56
799.109	84.97
799.285	90.02
799.46	95.33
799.636	98.97
799.811	91.72
799.986	91.23
800.162	88.34
800.337	86.51
800.513	80.52
800.688	80.85
800.863	80.03
801.039	82.24
801.214	78.08
801.389	78.65
801.565	82.66
801.74	91.11
801.915	92.11
802.09	95.93
802.265	96.02
802.441	88.93
802.616	78.33
802.791	77.68
802.966	79.14
803.141	78.04
803.316	80.21
803.491	82.39
803.666	83.88
803.841	80.38
804.016	81.66
804.191	88.8
804.366	101.42
804.541	93.93
804.716	93.38
804.891	92.83
805.066	95.44
805.241	85.59
805.416	84.26
805.591	83.21
805.765	87.14
805.94	82.71
806.115	84.28
806.29	87.92
806.464	86.92
806.639	80.34
806.814	71.97
806.989	67.18
807.163	63.64
807.338	63.52
807.512	63.31
807.687	74.05
807.862	69.5
808.036	68.6
808.211	74.65
808.385	76.61
808.56	71.88
808.734	70.24
808.909	78.45
809.083	72.35
809.258	77.24
809.432	76.24
809.606	76.49
809.781	74.4
809.955	74.18
810.13	71.62
810.304	74.37
810.478	76.69
810.652	74.77
810.827	75.8
811.001	77.72
811.175	82.52
811.349	84.94
811.524	83.13
811.698	79.56
811.872	77.63
812.046	75.03
812.22	74.25
812.394	73.95
812.568	83.39
812.742	83.65
812.916	83.05
813.09	87.33
813.264	97.74
813.438	100.37
813.612	104.42
813.786	96.54
813.96	97.31
814.134	78.98
814.308	80.85
814.482	76.86
814.656	82.39
814.83	81.33
815.003	101.44
815.177	89.06
815.351	94.14
815.525	97.25
815.698	101.08
815.872	91.36
816.046	97.68
816.219	84.9
816.393	89.46
816.567	87.61
816.74	84.82
816.914	82.63
817.088	85.89
817.261	81.86
817.435	82.89
817.608	84.85
817.782	78.2
817.955	86.05
818.129	91.98
818.302	83.13
818.475	82.24
818.649	93.49
818.822	86.89
818.996	77.99
819.169	83.61
819.342	83.1
819.516	72.94
819.689	72.9
819.862	81.2
820.035	82.8
820.209	83.62
820.382	97.43
820.555	99.33
820.728	96.12
820.901	91.35
821.075	93.48
821.248	93.48
821.421	98.36
821.594	96.71
821.767	104.34
821.94	104.44
822.113	84.8
822.286	71.53
822.459	68.07
822.632	67.56
822.805	70.46
822.978	75.72
823.151	79.72
823.324	81.41
823.496	77.02
823.669	69.79
823.842	71.22
824.015	76.02
824.188	73.36
824.361	85.77
824.533	95.4
824.706	84.47
824.879	89.43
825.051	82.78
825.224	75.91
825.397	77.81
825.569	79.61
825.742	62
825.915	65.65
826.087	69.59
826.26	59.1
826.432	77.9
826.605	74.07
826.777	81.07
826.95	78.56
827.122	69.04
827.295	56.87
827.467	69.01
827.64	57.67
827.812	51.2
827.984	62.65
828.157	73.29
828.329	63.02
828.501	82.91
828.674	79.5
828.846	81.33
829.018	88
829.19	95.62
829.363	83.17
829.535	94.88
829.707	93.22
829.879	77.44
830.051	64.75
830.223	84.08
830.395	76.84
830.568	65.6
830.74	79.58
830.912	82.58
831.084	74.34
831.256	75.35
831.428	80.45
831.6	78.47
831.772	80.97
831.943	73.5
832.115	72.68
832.287	85.61
832.459	82.19
832.631	93.67
832.803	100.97
832.975	106.16
833.146	93.69
833.318	92.1
833.49	97.65
833.662	107.59
833.833	99.71
834.005	107.85
834.177	126.95
834.348	110.28
834.52	84.92
834.692	77.13
834.863	67.32
835.035	49.21
835.206	59.48
835.378	64.52
835.549	80.18
835.721	88.48
835.892	100.17
836.064	109.16
836.235	134.07
836.407	121.93
836.578	92.62
836.749	79.33
836.921	69.17
837.092	62.91
837.264	55.82
837.435	69.25
837.606	77.17
837.777	69.55
837.949	48.17
838.12	51.71
838.291	46.89
838.462	34.01
838.633	58.84
838.805	73.77
838.976	80.9
839.147	124.03
839.318	114.86
839.489	102.93
839.66	115.39
839.831	129.25
840.002	88.71
840.173	105.52
840.344	104.69
840.515	104.35
840.686	98.63
840.857	93.38
841.028	112.66
841.199	94.93
841.369	78.8
841.54	80.17
841.711	87.17
841.882	61.32
842.053	59.2
842.223	77.32
842.394	84.28
842.565	79.43
842.736	99.12
842.906	154.85
843.077	134.13
843.248	181.75
843.418	180.98
843.589	101.15
843.759	94.33
843.93	83.75
844.101	70.7
844.271	54.35
844.442	73.93
844.612	85.3
844.783	70.22
844.953	57.71
845.123	58.51
845.294	48.99
845.464	35.9
845.635	67.6
845.805	101.29
845.975	110.68
846.146	129.44
846.316	119.58
846.486	134.19
846.656	98.11
846.827	98.04
846.997	108.16
847.167	84.56
847.337	62.1
847.507	62.09
847.677	54.3
847.848	66.14
848.018	94.89
848.188	114.38
848.358	113.62
848.528	138.28
848.698	150.14
848.868	126.01
849.038	97.9
849.208	74.05
849.378	52.09
849.548	23.51
849.718	59.04
849.887	51.59
850.057	55.8
850.227	57.04
850.397	56.66
850.567	59.51
850.737	74.37
850.906	62.86
851.076	65.69
851.246	73.84
851.415	58.08
851.585	66.17
851.755	74.21
851.924	84.42
852.094	84.6
852.264	80.62
852.433	64.36
852.603	73.53
852.772	60.11
852.942	48
853.111	61.07
853.281	69.75
853.45	64.9
853.62	47.56
853.789	24.3
853.959	39.61
854.128	54.9
854.297	43.67
854.467	109.31
854.636	134.16
854.805	105.9
854.975	98.86
855.144	85.31
855.313	53.44
855.482	65.22
855.652	59.33
855.821	69.96
855.99	63.26
856.159	57.82
856.328	75.18
856.497	61.75
856.667	47.92
856.836	59.17
857.005	55.24
857.174	20.03
857.343	21.37
857.512	50.49
857.681	19.75
857.85	73.98
858.019	96.63
858.188	68.65
858.356	47.58
858.525	51.62
858.694	56.72
858.863	67.09
859.032	61.4
859.201	46.2
859.369	78.72
859.538	64.6
859.707	17.9
859.876	20.94
860.044	47.34
860.213	24.95
860.382	11.01
860.55	18.36
860.719	42.01
860.888	109.48
861.056	72.45
861.225	108.72
861.393	146.46
861.562	134.65
861.73	103.33
861.899	91.72
862.067	68.76
862.236	44.14
862.404	32.86
862.572	34.93
862.741	58.84
862.909	63.25
863.078	75.92
863.246	84.24
863.414	106.21
863.582	118.04
863.751	82.86
863.919	79.22
864.087	87.96
864.255	68.73
864.424	53.98
864.592	56.97
864.76	57.49
864.928	51.47
865.096	34.51
865.264	40.65
865.432	41.26
865.6	35.79
865.768	25.48
865.936	15.69
866.104	15.21
866.272	13.25
866.44	7.11
866.608	-2.82
866.776	19.95
866.944	72.25
867.112	92.99
867.28	76.73
867.448	102.83
867.615	84.1
867.783	71.65
867.951	55.42
868.119	91.32
868.286	93.15
868.454	100.92
868.622	87.06
868.789	104.12
868.957	89.49
869.125	80.54
869.292	49.39
869.46	66.33
869.627	64.2
869.795	60.25
869.963	81.32
870.13	94.18
870.298	73.89
870.465	78.48
870.632	53.47
870.8	29.01
870.967	71.51
871.135	59.54
871.302	12.47
871.469	45.22
871.637	42.76
871.804	1.8
871.971	-2.61
872.139	17.82
872.306	11.9
872.473	50.38
872.64	55.94
872.807	62.23
872.975	56.93
873.142	67.27
873.309	37.64
873.476	47.63
873.643	34.27
873.81	41.38
873.977	35.43
874.144	28.1
874.311	38
874.478	63.71
874.645	55.76
874.812	57.42
874.979	56.96
875.146	39.02
875.313	25.92
875.48	33.51
875.647	49.37
875.813	50.09
875.98	51.29
876.147	45.87
876.314	49.91
876.481	35.72
876.647	38.91
876.814	48.83
876.981	45.23
877.147	40.27
877.314	46.26
877.481	60.18
877.647	44.06
877.814	53.7
877.98	58.5
878.147	38.91
878.314	50.32
878.48	81.49
878.647	119
878.813	94.18
878.979	101.58
879.146	85.1
879.312	96.93
879.479	56.07
879.645	79.14
879.811	59.55
879.978	42.76
880.144	49.32
880.31	50.04
880.477	19.78
880.643	43.91
880.809	66.14
880.975	72.35
881.142	16.42
881.308	33.59
881.474	56.54
881.64	10.85
881.806	-48.44
881.972	96.97
882.138	173.63
882.304	112.39
882.47	71.62
882.636	55.95
882.802	45.8
882.968	25.99
883.134	14.37
883.3	43.51
883.466	53.95
883.632	83.38
883.798	81.92
883.964	150.41
884.129	210.61
884.295	154.08
884.461	68.02
884.627	56.61
884.793	59.12
884.958	51.8
885.124	54.27
885.29	49.07
885.455	46.66
885.621	44.68
885.787	46.07
885.952	32.57
886.118	42.88
886.283	47.9
886.449	47.44
886.614	29.79
886.78	45.75
886.945	47.38
887.111	49.05
887.276	47.91
887.442	61.3
887.607	46.97
887.773	37.99
887.938	32.14
888.103	15.41
888.269	27.99
888.434	34.37
888.599	31.4
888.764	41.1
888.93	35.36
889.095	19.29
889.26	18.13
889.425	12.31
889.59	49.36
889.756	45.01
889.921	33.58
890.086	38.21
890.251	45.01
890.416	-16.04
890.581	-38.28
890.746	33.87
890.911	60.52
891.076	72.03
891.241	83.48
891.406	111.69
891.571	95.81
891.736	45.82
891.901	40.35
892.065	63.03
892.23	45.05
892.395	26.48
892.56	-30.75
892.725	37.49
892.889	22.31
893.054	38.54
893.219	38.66
893.384	54.69
893.548	28.87
893.713	18.96
893.878	0.92
