Data from Ofav_PP_Phys_313_Reflection_3.txt Node
Date: Tue Jul 27 19:06:29 EDT 2021
User: USUARIO
Spectrometer: FLMT01687
Trigger mode: 0
Integration Time (sec): 8.500000E-1
Scans to average: 2
Electric dark correction enabled: true
Nonlinearity correction enabled: false
Boxcar width: 2
XAxis mode: Wavelengths
Number of Pixels in Spectrum: 3648
>>>>>Begin Spectral Data<<<<<
179.494	-1808.15
179.716	-581.99
179.937	-418.73
180.158	-360.93
180.38	-353.48
180.601	-311.86
180.823	114.45
181.044	79.94
181.265	57.77
181.486	89.03
181.708	38.16
181.929	59.97
182.15	64.03
182.372	66.15
182.593	59.63
182.814	89.8
183.035	90.22
183.257	64.24
183.478	48.3
183.699	32.06
183.92	44.54
184.141	28.83
184.363	47.49
184.584	59.88
184.805	80.28
185.026	78.51
185.247	95.29
185.468	75.97
185.689	55.27
185.91	34.84
186.132	-5.4
186.353	3.71
186.574	-14.64
186.795	-7.21
187.016	-1.87
187.237	-5.67
187.458	2.51
187.679	40
187.9	17.52
188.121	29.92
188.342	33
188.563	24.45
188.784	29.17
189.005	36.1
189.226	36.56
189.447	27.47
189.667	35.86
189.888	8.98
190.109	27.53
190.33	38.22
190.551	50.77
190.772	29.74
190.993	47.2
191.214	41.2
191.434	38.41
191.655	44.97
191.876	47.82
192.097	45.13
192.318	52.75
192.538	60.56
192.759	46.87
192.98	32.07
193.201	33.79
193.421	24.15
193.642	-12.55
193.863	10.13
194.083	32
194.304	25.96
194.525	-0.95
194.745	1.33
194.966	-58.71
195.187	-90.11
195.407	-55.94
195.628	-10.43
195.848	29.75
196.069	66.1
196.29	81.95
196.51	73.23
196.731	60.45
196.951	44.75
197.172	9.96
197.392	47.62
197.613	68.15
197.833	54.54
198.054	68.94
198.274	55.9
198.495	59.27
198.715	41.21
198.936	33.66
199.156	55.14
199.377	87.57
199.597	73.46
199.817	58.62
200.038	38.62
200.258	7.08
200.479	18.08
200.699	9.6
200.919	2.51
201.14	21.55
201.36	9.44
201.58	15.74
201.801	10.72
202.021	13.78
202.241	24.46
202.461	30.23
202.682	8.33
202.902	-5.25
203.122	22.25
203.342	14.17
203.563	25.61
203.783	28.75
204.003	34.52
204.223	15.66
204.443	8.14
204.663	-42.46
204.884	-19.65
205.104	-8.79
205.324	5.94
205.544	-0.02
205.764	-8.52
205.984	-7.13
206.204	-20.35
206.424	-43.65
206.644	3.67
206.864	44.34
207.084	19.41
207.304	25.5
207.525	26.38
207.745	38.46
207.964	25.77
208.184	46.11
208.404	32.7
208.624	33.97
208.844	18.97
209.064	25.61
209.284	14.58
209.504	22.41
209.724	12.71
209.944	-6.81
210.164	11.9
210.384	98.34
210.604	78.76
210.823	86.52
211.043	76.15
211.263	65.94
211.483	75.78
211.703	66.76
211.922	54.36
212.142	58.98
212.362	31.43
212.582	-25.08
212.801	2.13
213.021	-26.76
213.241	-37.53
213.461	-54.24
213.68	-14.13
213.9	-7.39
214.12	17.93
214.339	34.34
214.559	49.21
214.779	54.29
214.998	29.53
215.218	22.78
215.438	25.8
215.657	24.17
215.877	13.94
216.096	15.67
216.316	14.06
216.535	8.72
216.755	23.88
216.974	38.36
217.194	61
217.413	58.3
217.633	52.2
217.852	26.66
218.072	13.11
218.291	-9.49
218.511	-2.42
218.73	10.71
218.95	10.26
219.169	20.05
219.389	28.45
219.608	26.1
219.827	52.08
220.047	35.78
220.266	40.77
220.485	31.25
220.705	34
220.924	2.11
221.143	6.23
221.363	-26.66
221.582	-11.46
221.801	-35.3
222.021	4.09
222.24	12.15
222.459	6.75
222.678	2.11
222.897	28.91
223.117	22.52
223.336	3.09
223.555	15.93
223.774	9.83
223.993	4.62
224.213	-20.01
224.432	-21.68
224.651	2.22
224.87	-10.46
225.089	-8.73
225.308	-11.07
225.527	16.91
225.746	-16.64
225.965	8.22
226.184	-2.58
226.404	5.58
226.623	-12.72
226.842	-3.62
227.061	-13.01
227.28	0.19
227.499	20.82
227.718	12.09
227.936	21.8
228.155	25.2
228.374	32.61
228.593	24.1
228.812	33.8
229.031	34.82
229.25	35.3
229.469	12.53
229.688	6.01
229.907	-22.23
230.125	-12.21
230.344	7.75
230.563	26.21
230.782	37.45
231.001	39.47
231.22	29.91
231.438	9.42
231.657	-4
231.876	-13.21
232.095	4.02
232.313	18.16
232.532	32.82
232.751	43.94
232.969	39.29
233.188	44.32
233.407	45.39
233.625	50.17
233.844	37.17
234.063	52.1
234.281	44.26
234.5	18.43
234.719	41.77
234.937	21.43
235.156	11.11
235.374	8.65
235.593	27.38
235.811	-10.87
236.03	7.6
236.249	-0.85
236.467	2.75
236.686	-1.02
236.904	17.43
237.123	28.55
237.341	34.04
237.559	24.61
237.778	32.86
237.996	26.57
238.215	6
238.433	8.93
238.652	15.92
238.87	23.31
239.088	4.6
239.307	37.01
239.525	34.76
239.743	18.37
239.962	2.58
240.18	20.83
240.398	-0.86
240.617	8.06
240.835	21.57
241.053	33.75
241.271	20.75
241.49	33.88
241.708	40
241.926	29.18
242.144	4.75
242.363	1.2
242.581	-3.47
242.799	-16.06
243.017	-39.43
243.235	-42.94
243.453	-25.27
243.672	6.39
243.89	11.13
244.108	13.83
244.326	20.79
244.544	9.92
244.762	-1.36
244.98	15.69
245.198	3.08
245.416	0.62
245.634	14.14
245.852	25.97
246.07	21.47
246.288	40
246.506	49.52
246.724	48.27
246.942	22.95
247.16	8.7
247.378	18.75
247.596	17.75
247.814	16.88
248.032	34.77
248.25	40.36
248.468	50.27
248.685	43.88
248.903	37.98
249.121	36.18
249.339	36.82
249.557	27.29
249.775	3.75
249.992	11.39
250.21	3.74
250.428	4.26
250.646	-15.89
250.863	23.12
251.081	29.99
251.299	41.42
251.517	42.91
251.734	67.29
251.952	44.13
252.17	56.43
252.387	34.36
252.605	37.1
252.823	39.97
253.04	59.71
253.258	52.14
253.475	52.59
253.693	43.85
253.911	52.16
254.128	32.79
254.346	25.98
254.563	32.91
254.781	35.16
254.998	24.32
255.216	10.97
255.433	26.45
255.651	40.38
255.868	40.38
256.086	19.41
256.303	33.36
256.521	40.33
256.738	28.73
256.956	21.41
257.173	34.74
257.39	34.22
257.608	13.02
257.825	12.11
258.043	30.3
258.26	33.07
258.477	29.1
258.695	34.46
258.912	47
259.129	50.59
259.346	42.55
259.564	41.83
259.781	67.35
259.998	71.78
260.216	52.46
260.433	51.04
260.65	59.56
260.867	39.27
261.084	17.23
261.302	3.97
261.519	7.87
261.736	5.17
261.953	9.49
262.17	11.81
262.387	18.44
262.604	25.13
262.822	14.1
263.039	6.86
263.256	9
263.473	18.44
263.69	12.04
263.907	-0.84
264.124	14.71
264.341	24.77
264.558	26.71
264.775	24.05
264.992	46.02
265.209	39.85
265.426	35.99
265.643	34.41
265.86	32.96
266.077	13.97
266.294	21.61
266.51	38.26
266.727	36.39
266.944	42.97
267.161	46.99
267.378	43.63
267.595	44.58
267.812	46.42
268.028	46.41
268.245	48.67
268.462	66.68
268.679	40.97
268.896	43.23
269.112	32.01
269.329	43.1
269.546	30.9
269.763	18.49
269.979	3.67
270.196	12.73
270.413	20.35
270.629	27.03
270.846	59.31
271.063	56.7
271.279	40
271.496	18.12
271.712	-14.08
271.929	-51.89
272.146	-78.64
272.362	-33.26
272.579	-24
272.795	20.48
273.012	22.33
273.228	26.26
273.445	30.94
273.661	43.26
273.878	22.53
274.094	18.1
274.311	26.46
274.527	11.03
274.744	4.52
274.96	2.03
275.177	-4.71
275.393	-1.47
275.609	25.53
275.826	20.85
276.042	23.07
276.259	46.77
276.475	44.52
276.691	38.65
276.908	37.28
277.124	36.25
277.34	42.24
277.557	30.81
277.773	28.27
277.989	37.58
278.205	42.15
278.422	35.34
278.638	35.25
278.854	54.93
279.07	54.21
279.286	36.69
279.503	26.39
279.719	40.3
279.935	33.53
280.151	42.06
280.367	53.07
280.583	59.27
280.799	61.13
281.016	44.18
281.232	29.28
281.448	16.54
281.664	7.68
281.88	-9.18
282.096	-3.86
282.312	-5.86
282.528	-1.58
282.744	-16.93
282.96	-28.29
283.176	-15.17
283.392	0.86
283.608	-2.12
283.824	27.41
284.04	16.78
284.256	19.24
284.471	20.64
284.687	35.74
284.903	35.99
285.119	54.92
285.335	53.23
285.551	33.53
285.767	38.37
285.982	26.15
286.198	26.08
286.414	3.35
286.63	9.7
286.846	3.32
287.061	-0.93
287.277	-8.06
287.493	14.45
287.709	22.06
287.924	18.66
288.14	38.36
288.356	64.73
288.571	64.29
288.787	65.33
289.003	62.42
289.218	59.18
289.434	34.19
289.65	19.37
289.865	-11.59
290.081	1.64
290.296	-10.37
290.512	-13.76
290.727	-4.61
290.943	13.9
291.159	25.15
291.374	41.8
291.59	36.09
291.805	30.85
292.021	24.86
292.236	16.89
292.451	20.56
292.667	28.47
292.882	22.29
293.098	23.88
293.313	29.04
293.529	36.69
293.744	32.86
293.959	41.4
294.175	40.04
294.39	33.46
294.605	27.33
294.821	31.53
295.036	28.62
295.251	32.31
295.467	19.01
295.682	-7.58
295.897	4.14
296.112	-3.06
296.328	-6.16
296.543	7.09
296.758	27.31
296.973	21.84
297.188	31.69
297.404	24.44
297.619	30.43
297.834	24.04
298.049	19.57
298.264	24.87
298.479	29.41
298.694	18.14
298.909	16.13
299.125	15.3
299.34	-3.98
299.555	6.09
299.77	7.9
299.985	18.31
300.2	18.68
300.415	36.56
300.63	24.93
300.845	39.35
301.06	25.99
301.275	19.56
301.49	23.44
301.704	10.06
301.919	11.47
302.134	25.86
302.349	37.93
302.564	26.83
302.779	26.2
302.994	22
303.209	24.78
303.423	5.4
303.638	-13.83
303.853	1.63
304.068	19.14
304.283	4.58
304.497	10.44
304.712	38.13
304.927	38.23
305.142	18.59
305.356	25.98
305.571	21.57
305.786	10.4
306	12.75
306.215	22.13
306.43	22.58
306.644	40.19
306.859	35.01
307.074	49.9
307.288	50.18
307.503	46.63
307.717	31.35
307.932	26.21
308.147	26.73
308.361	21.3
308.576	9.24
308.79	24.19
309.005	21.31
309.219	8.32
309.434	8.57
309.648	8.3
309.863	-12.41
310.077	-1.15
310.292	3.95
310.506	-16.24
310.72	0.69
310.935	3.36
311.149	7.58
311.364	-1.73
311.578	25.76
311.792	10.6
312.007	23.79
312.221	32.61
312.435	27.22
312.649	31.76
312.864	16.08
313.078	7.4
313.292	-8.66
313.507	24.14
313.721	41.98
313.935	45.61
314.149	47.2
314.363	37.89
314.578	32.2
314.792	17.02
315.006	36.65
315.22	33.89
315.434	35.96
315.648	27.99
315.862	21.34
316.077	11.42
316.291	4.56
316.505	5.74
316.719	19.13
316.933	38.18
317.147	25.7
317.361	23.38
317.575	22.64
317.789	15.77
318.003	-3.4
318.217	-7.12
318.431	3.24
318.645	12.68
318.859	20.21
319.073	13.74
319.287	9.35
319.5	0.34
319.714	-2.53
319.928	-5.86
320.142	-11.14
320.356	20.21
320.57	36.35
320.784	36.04
320.997	47.3
321.211	58.27
321.425	40.42
321.639	18.62
321.853	16.86
322.066	10.68
322.28	-5.35
322.494	11.35
322.707	22.58
322.921	19.34
323.135	16.48
323.349	34.03
323.562	26.2
323.776	19.77
323.989	3.14
324.203	5.95
324.417	-26.15
324.63	8.94
324.844	19.72
325.057	26.78
325.271	8.4
325.485	23.99
325.698	11.49
325.912	4.68
326.125	24.81
326.339	38.82
326.552	42.66
326.766	43.45
326.979	42.1
327.193	36.17
327.406	27.42
327.619	24.55
327.833	30.64
328.046	28.07
328.26	24.6
328.473	10.26
328.686	3.53
328.9	-9.96
329.113	-15.93
329.326	-24.65
329.54	14.12
329.753	14.06
329.966	27.28
330.179	50.53
330.393	50.46
330.606	24.58
330.819	41.35
331.032	21.84
331.246	42.56
331.459	30.6
331.672	32.65
331.885	25.66
332.098	54.02
332.311	31.66
332.525	38.62
332.738	39.04
332.951	31.24
333.164	19.38
333.377	26.32
333.59	22.78
333.803	26.88
334.016	23.74
334.229	11.25
334.442	18.53
334.655	27.5
334.868	32.93
335.081	36.84
335.294	51.54
335.507	43.04
335.72	37.36
335.933	13.77
336.146	13.83
336.359	-4.62
336.572	-3.98
336.785	-10.1
336.997	14.18
337.21	23.55
337.423	43.67
337.636	29.87
337.849	17.66
338.062	1.61
338.274	13.61
338.487	18.94
338.7	23.38
338.913	24.64
339.125	39.12
339.338	21.9
339.551	6.36
339.763	13.89
339.976	22.38
340.189	10.87
340.402	16.6
340.614	17.4
340.827	15.31
341.039	2.93
341.252	-5.95
341.465	-26.02
341.677	-12.62
341.89	-20.43
342.102	6
342.315	19.29
342.527	28.92
342.74	30.8
342.952	25.15
343.165	37.19
343.377	29.26
343.59	18.55
343.802	12.53
344.015	20.51
344.227	2.09
344.44	-32.12
344.652	-2.44
344.864	-10.97
345.077	2.18
345.289	-7.44
345.502	4.25
345.714	-0.69
345.926	1.31
346.139	0.55
346.351	11.95
346.563	10.78
346.775	5.65
346.988	4.97
347.2	0.97
347.412	3.56
347.624	21.44
347.837	25.75
348.049	20.7
348.261	14.51
348.473	12.46
348.685	12.67
348.897	19.29
349.11	24.26
349.322	16.59
349.534	18.79
349.746	22.25
349.958	13.63
350.17	13.07
350.382	9.89
350.594	-7.51
350.806	-4.67
351.018	-0.32
351.23	2.54
351.442	14.45
351.654	44.04
351.866	28.94
352.078	26.72
352.29	12.31
352.502	10.58
352.714	6.64
352.926	12.45
353.138	21.79
353.35	38.6
353.561	36.76
353.773	34.36
353.985	23.52
354.197	5.17
354.409	-3.7
354.621	3.23
354.832	-1.08
355.044	5.3
355.256	22.36
355.468	20.25
355.679	30.91
355.891	39.14
356.103	44.71
356.314	37.28
356.526	41.94
356.738	27.08
356.949	22.66
357.161	21.3
357.373	17.72
357.584	22.65
357.796	39.85
358.008	43.52
358.219	44.07
358.431	44.27
358.642	41.46
358.854	33.06
359.065	28.42
359.277	28.88
359.488	41.8
359.7	32.76
359.911	37.38
360.123	38.83
360.334	35.81
360.546	16.74
360.757	22.33
360.969	15.92
361.18	19.14
361.391	28.21
361.603	29.93
361.814	31.44
362.025	32.11
362.237	27.29
362.448	10.6
362.659	1.79
362.871	3.29
363.082	1.05
363.293	-3
363.504	2.3
363.716	10.84
363.927	-6
364.138	-8.56
364.349	4.13
364.56	-3.64
364.772	3.84
364.983	15.56
365.194	14.74
365.405	25.8
365.616	25.07
365.827	29.8
366.038	41.07
366.25	40.38
366.461	33.47
366.672	34.36
366.883	24.41
367.094	18.97
367.305	20.78
367.516	14.51
367.727	38.96
367.938	25.8
368.149	13.99
368.36	-0.02
368.571	-6.83
368.781	-15.69
368.992	-4.36
369.203	-1.19
369.414	15.4
369.625	28.13
369.836	24.74
370.047	24.71
370.258	28.37
370.468	26.58
370.679	23.49
370.89	17.58
371.101	20.61
371.312	29.27
371.522	15.32
371.733	26.85
371.944	34.11
372.155	37.63
372.365	19.72
372.576	34.84
372.787	30.93
372.997	29.64
373.208	21.73
373.419	30.27
373.629	30.19
373.84	24.39
374.05	21.94
374.261	13.97
374.472	13.93
374.682	-0.01
374.893	13.44
375.103	15.16
375.314	28.58
375.524	34.29
375.735	41.76
375.945	41.07
376.156	44.73
376.366	42.14
376.577	33.38
376.787	36.32
376.997	35.93
377.208	38.95
377.418	38.1
377.629	42.1
377.839	46.44
378.049	42.19
378.26	38.13
378.47	36.77
378.68	42.25
378.89	31.01
379.101	25.39
379.311	12.47
379.521	5.87
379.732	-1.47
379.942	14.96
380.152	13.16
380.362	23.14
380.572	27.25
380.783	27.02
380.993	14.4
381.203	19.03
381.413	14.47
381.623	20.47
381.833	22.85
382.043	26.35
382.253	22.8
382.463	20.33
382.674	11.09
382.884	-1.58
383.094	-11.08
383.304	-6.5
383.514	-3.34
383.724	-7.64
383.934	-6.15
384.144	-6.81
384.353	-3.28
384.563	1.65
384.773	12.9
384.983	16.58
385.193	18.58
385.403	18.23
385.613	19.97
385.823	10.66
386.033	9.41
386.242	18.25
386.452	13.94
386.662	14.1
386.872	19.47
387.082	21
387.291	9.32
387.501	11.55
387.711	6.96
387.921	8.88
388.13	9.27
388.34	13.08
388.55	12.52
388.759	10.91
388.969	9.22
389.179	10.79
389.388	11.89
389.598	11.03
389.807	11.76
390.017	8.9
390.227	9.57
390.436	11.23
390.646	11.97
390.855	9.01
391.065	8.63
391.274	5.41
391.484	1.44
391.693	0.18
391.903	2.14
392.112	3.17
392.322	2.83
392.531	3.92
392.74	3.5
392.95	4.35
393.159	4.05
393.369	4.86
393.578	6.19
393.787	6.03
393.997	5.78
394.206	6.34
394.415	6.28
394.625	4.16
394.834	3.88
395.043	3.81
395.252	4.06
395.462	4.4
395.671	4.31
395.88	5.81
396.089	5.56
396.298	5.43
396.508	5.36
396.717	6.35
396.926	5.39
397.135	4.97
397.344	4.79
397.553	4.61
397.762	4.26
397.971	4.54
398.181	4.95
398.39	4.34
398.599	4.61
398.808	4.73
399.017	5.1
399.226	5.03
399.435	5.24
399.644	5.34
399.853	5.5
400.062	5.47
400.27	5.22
400.479	4.93
400.688	4.74
400.897	4.6
401.106	4.37
401.315	4.78
401.524	5.25
401.733	5.17
401.941	5.15
402.15	5.17
402.359	4.9
402.568	4.75
402.777	4.53
402.985	4.38
403.194	4.48
403.403	4.61
403.612	4.39
403.82	4.46
404.029	4.62
404.238	4.52
404.446	4.55
404.655	4.71
404.864	4.68
405.072	4.67
405.281	4.64
405.489	4.51
405.698	4.48
405.906	4.59
406.115	4.42
406.324	4.27
406.532	4.21
406.741	4.23
406.949	4.34
407.158	4.37
407.366	4.37
407.574	4.49
407.783	4.48
407.991	4.35
408.2	4.41
408.408	4.58
408.617	4.48
408.825	4.44
409.033	4.42
409.242	4.29
409.45	4.19
409.658	4.17
409.867	4.19
410.075	4.04
410.283	4.07
410.491	4.11
410.7	4.11
410.908	3.99
411.116	4.19
411.324	4.23
411.533	4.14
411.741	3.95
411.949	3.89
412.157	3.82
412.365	3.91
412.573	3.81
412.781	3.91
412.99	4.02
413.198	4.12
413.406	4.01
413.614	4.13
413.822	4.23
414.03	4.17
414.238	4.02
414.446	4.04
414.654	4.06
414.862	4
415.07	4.06
415.278	4.11
415.486	3.99
415.694	3.83
415.902	3.85
416.109	3.94
416.317	3.93
416.525	3.88
416.733	3.89
416.941	3.92
417.149	3.8
417.357	3.84
417.564	3.84
417.772	3.92
417.98	3.92
418.188	4.11
418.395	3.97
418.603	4.03
418.811	4.08
419.019	3.97
419.226	3.89
419.434	4.03
419.642	4.14
419.849	4.04
420.057	4.1
420.265	4.13
420.472	3.79
420.68	3.65
420.887	3.75
421.095	3.67
421.302	3.51
421.51	3.64
421.717	3.61
421.925	3.54
422.132	3.38
422.34	3.24
422.547	3.25
422.755	3.52
422.962	3.46
423.17	3.8
423.377	3.77
423.585	3.97
423.792	3.88
423.999	3.82
424.207	3.65
424.414	3.64
424.621	3.47
424.829	3.43
425.036	3.41
425.243	3.34
425.451	3.42
425.658	3.33
425.865	3.3
426.072	3.35
426.28	3.41
426.487	3.62
426.694	3.65
426.901	3.64
427.108	3.55
427.315	3.51
427.523	3.32
427.73	3.15
427.937	3.13
428.144	3.19
428.351	3.15
428.558	3.27
428.765	3.5
428.972	3.54
429.179	3.49
429.386	3.6
429.593	3.45
429.8	3.43
430.007	3.32
430.214	3.39
430.421	3.39
430.628	3.58
430.835	3.6
431.042	3.55
431.249	3.58
431.456	3.57
431.662	3.52
431.869	3.42
432.076	3.46
432.283	3.35
432.49	3.29
432.697	3.28
432.903	3.51
433.11	3.73
433.317	3.71
433.524	3.71
433.73	3.69
433.937	3.53
434.144	3.36
434.35	3.41
434.557	3.45
434.764	3.32
434.97	3.27
435.177	3.29
435.384	3.14
435.59	3.12
435.797	3.17
436.003	3.26
436.21	3.2
436.416	3.3
436.623	3.26
436.829	3.21
437.036	3.21
437.242	3.25
437.449	3.22
437.655	3.32
437.862	3.4
438.068	3.24
438.275	3.26
438.481	3.32
438.687	3.3
438.894	3.37
439.1	3.52
439.307	3.46
439.513	3.46
439.719	3.45
439.926	3.44
440.132	3.55
440.338	3.52
440.544	3.46
440.751	3.37
440.957	3.37
441.163	3.12
441.369	3.15
441.575	3.26
441.782	3.31
441.988	3.25
442.194	3.39
442.4	3.44
442.606	3.53
442.812	3.65
443.018	3.53
443.224	3.49
443.431	3.38
443.637	3.34
443.843	3.21
444.049	3.42
444.255	3.42
444.461	3.37
444.667	3.23
444.873	3.26
445.079	3.26
445.284	3.32
445.49	3.36
445.696	3.45
445.902	3.54
446.108	3.42
446.314	3.26
446.52	3.35
446.726	3.37
446.931	3.36
447.137	3.4
447.343	3.42
447.549	3.37
447.755	3.25
447.96	3.15
448.166	3.02
448.372	3.11
448.578	3.17
448.783	3.3
448.989	3.38
449.195	3.4
449.4	3.38
449.606	3.32
449.812	3.28
450.017	3.24
450.223	3.29
450.428	3.28
450.634	3.3
450.84	3.28
451.045	3.3
451.251	3.36
451.456	3.41
451.662	3.36
451.867	3.46
452.073	3.39
452.278	3.32
452.483	3.25
452.689	3.31
452.894	3.32
453.1	3.36
453.305	3.4
453.51	3.44
453.716	3.29
453.921	3.22
454.127	3.26
454.332	3.22
454.537	3.27
454.742	3.31
454.948	3.27
455.153	3.23
455.358	3.23
455.563	3.17
455.769	3.18
455.974	3.21
456.179	3.18
456.384	3.02
456.589	3.06
456.795	3.05
457	2.96
457.205	2.86
457.41	3.02
457.615	2.96
457.82	2.92
458.025	2.96
458.23	3.08
458.435	3.11
458.64	3.09
458.845	3.18
459.05	3.16
459.255	3.19
459.46	3.13
459.665	3.21
459.87	3.27
460.075	3.35
460.28	3.45
460.485	3.5
460.69	3.43
460.895	3.41
461.099	3.34
461.304	3.2
461.509	3.18
461.714	3.25
461.919	3.21
462.123	3.3
462.328	3.31
462.533	3.33
462.738	3.26
462.942	3.28
463.147	3.2
463.352	3.13
463.556	3.08
463.761	3.07
463.966	3
464.17	3.11
464.375	3.15
464.58	3.2
464.784	3.23
464.989	3.35
465.193	3.3
465.398	3.43
465.602	3.5
465.807	3.44
466.011	3.36
466.216	3.24
466.42	3.22
466.625	3.11
466.829	3.21
467.034	3.3
467.238	3.45
467.443	3.4
467.647	3.44
467.851	3.43
468.056	3.33
468.26	3.23
468.464	3.25
468.669	3.19
468.873	3.16
469.077	3.17
469.282	3.12
469.486	3.07
469.69	3.08
469.894	3.16
470.099	3.12
470.303	3.24
470.507	3.22
470.711	3.37
470.915	3.37
471.119	3.46
471.324	3.46
471.528	3.5
471.732	3.46
471.936	3.46
472.14	3.48
472.344	3.5
472.548	3.46
472.752	3.35
472.956	3.21
473.16	3.25
473.364	3.13
473.568	3.25
473.772	3.34
473.976	3.35
474.18	3.24
474.384	3.31
474.588	3.24
474.792	3.12
474.995	3.15
475.199	3.14
475.403	3.16
475.607	3.19
475.811	3.22
476.015	3.24
476.218	3.22
476.422	3.17
476.626	3.16
476.83	3.24
477.033	3.31
477.237	3.38
477.441	3.45
477.644	3.4
477.848	3.36
478.052	3.28
478.255	3.25
478.459	3.24
478.663	3.29
478.866	3.28
479.07	3.36
479.273	3.37
479.477	3.33
479.681	3.45
479.884	3.42
480.088	3.38
480.291	3.45
480.495	3.5
480.698	3.42
480.901	3.52
481.105	3.57
481.308	3.46
481.512	3.39
481.715	3.32
481.919	3.27
482.122	3.22
482.325	3.3
482.529	3.32
482.732	3.35
482.935	3.28
483.138	3.37
483.342	3.28
483.545	3.4
483.748	3.33
483.952	3.42
484.155	3.28
484.358	3.42
484.561	3.34
484.764	3.4
484.967	3.43
485.171	3.48
485.374	3.33
485.577	3.33
485.78	3.35
485.983	3.29
486.186	3.33
486.389	3.41
486.592	3.35
486.795	3.35
486.998	3.37
487.201	3.38
487.404	3.39
487.607	3.44
487.81	3.49
488.013	3.45
488.216	3.51
488.419	3.47
488.622	3.49
488.825	3.4
489.028	3.48
489.231	3.38
489.433	3.36
489.636	3.3
489.839	3.38
490.042	3.31
490.245	3.33
490.447	3.4
490.65	3.46
490.853	3.4
491.056	3.45
491.258	3.46
491.461	3.4
491.664	3.32
491.866	3.37
492.069	3.39
492.272	3.36
492.474	3.4
492.677	3.45
492.879	3.41
493.082	3.29
493.285	3.32
493.487	3.28
493.69	3.23
493.892	3.28
494.095	3.48
494.297	3.5
494.5	3.54
494.702	3.58
494.905	3.59
495.107	3.55
495.309	3.49
495.512	3.47
495.714	3.5
495.917	3.47
496.119	3.44
496.321	3.47
496.524	3.49
496.726	3.54
496.928	3.56
497.13	3.6
497.333	3.68
497.535	3.69
497.737	3.66
497.939	3.68
498.142	3.68
498.344	3.67
498.546	3.67
498.748	3.71
498.95	3.75
499.152	3.71
499.355	3.6
499.557	3.62
499.759	3.67
499.961	3.7
500.163	3.74
500.365	3.8
500.567	3.82
500.769	3.77
500.971	3.74
501.173	3.73
501.375	3.81
501.577	3.85
501.779	3.89
501.981	3.87
502.183	3.93
502.385	3.84
502.587	3.72
502.788	3.73
502.99	3.71
503.192	3.62
503.394	3.66
503.596	3.79
503.798	3.8
503.999	3.86
504.201	3.92
504.403	3.95
504.605	3.94
504.806	3.93
505.008	3.94
505.21	3.85
505.411	3.74
505.613	3.71
505.815	3.68
506.016	3.65
506.218	3.72
506.42	3.77
506.621	3.89
506.823	3.93
507.024	3.95
507.226	3.98
507.427	4.04
507.629	3.9
507.83	3.86
508.032	3.81
508.233	3.83
508.435	3.77
508.636	3.91
508.838	3.9
509.039	3.95
509.24	3.9
509.442	3.98
509.643	3.87
509.845	3.91
510.046	3.86
510.247	3.87
510.448	3.93
510.65	3.98
510.851	3.97
511.052	4.03
511.254	4.11
511.455	3.99
511.656	3.99
511.857	3.97
512.058	3.95
512.26	3.89
512.461	3.97
512.662	3.91
512.863	3.88
513.064	3.8
513.265	3.81
513.466	3.84
513.667	3.88
513.868	3.89
514.069	4
514.27	3.97
514.471	3.91
514.672	3.94
514.873	3.97
515.074	3.93
515.275	4.02
515.476	3.99
515.677	3.92
515.878	3.9
516.079	3.89
516.28	3.85
516.481	3.92
516.682	3.95
516.882	3.98
517.083	4.01
517.284	4.03
517.485	4
517.686	4.04
517.886	4.08
518.087	4.07
518.288	4.05
518.488	4.04
518.689	4.03
518.89	3.94
519.091	4
519.291	4.03
519.492	4.06
519.692	4.12
519.893	4.2
520.094	4.12
520.294	4.1
520.495	4.06
520.695	4.04
520.896	4.03
521.096	4.1
521.297	4.14
521.497	4.18
521.698	4.11
521.898	4.08
522.099	4.12
522.299	4.07
522.499	4.08
522.7	4.14
522.9	4.19
523.101	4.16
523.301	4.18
523.501	4.17
523.702	4.22
523.902	4.29
524.102	4.3
524.302	4.35
524.503	4.36
524.703	4.32
524.903	4.28
525.103	4.3
525.304	4.26
525.504	4.3
525.704	4.27
525.904	4.26
526.104	4.24
526.304	4.29
526.504	4.29
526.705	4.29
526.905	4.35
527.105	4.35
527.305	4.29
527.505	4.29
527.705	4.34
527.905	4.23
528.105	4.23
528.305	4.24
528.505	4.23
528.705	4.26
528.905	4.22
529.105	4.27
529.304	4.27
529.504	4.32
529.704	4.26
529.904	4.36
530.104	4.33
530.304	4.33
530.503	4.38
530.703	4.41
530.903	4.45
531.103	4.47
531.303	4.52
531.502	4.51
531.702	4.48
531.902	4.42
532.101	4.45
532.301	4.47
532.501	4.43
532.7	4.49
532.9	4.53
533.1	4.54
533.299	4.58
533.499	4.6
533.698	4.57
533.898	4.58
534.097	4.63
534.297	4.57
534.496	4.58
534.696	4.61
534.895	4.6
535.095	4.58
535.294	4.63
535.494	4.6
535.693	4.66
535.892	4.7
536.092	4.74
536.291	4.71
536.491	4.77
536.69	4.7
536.889	4.71
537.088	4.64
537.288	4.7
537.487	4.7
537.686	4.76
537.886	4.82
538.085	4.9
538.284	4.9
538.483	4.94
538.682	4.97
538.882	4.96
539.081	4.96
539.28	4.99
539.479	4.98
539.678	5.01
539.877	4.99
540.076	4.98
540.275	4.96
540.474	4.98
540.673	4.96
540.872	5
541.071	5.07
541.27	5.13
541.469	5.09
541.668	5.09
541.867	5.12
542.066	5.09
542.265	5.16
542.464	5.22
542.663	5.27
542.862	5.27
543.06	5.31
543.259	5.26
543.458	5.27
543.657	5.31
543.856	5.38
544.054	5.4
544.253	5.39
544.452	5.46
544.651	5.45
544.849	5.42
545.048	5.46
545.247	5.56
545.445	5.57
545.644	5.6
545.843	5.64
546.041	5.64
546.24	5.59
546.438	5.64
546.637	5.66
546.836	5.66
547.034	5.71
547.233	5.83
547.431	5.83
547.63	5.9
547.828	6
548.027	6.04
548.225	6.01
548.423	6.05
548.622	6.02
548.82	6.06
549.019	6.14
549.217	6.2
549.415	6.26
549.614	6.33
549.812	6.32
550.01	6.33
550.209	6.42
550.407	6.46
550.605	6.54
550.803	6.58
551.002	6.58
551.2	6.6
551.398	6.63
551.596	6.69
551.794	6.78
551.993	6.8
552.191	6.82
552.389	6.91
552.587	6.9
552.785	6.94
552.983	7.02
553.181	7.09
553.379	7.1
553.577	7.21
553.775	7.31
553.973	7.38
554.171	7.38
554.369	7.47
554.567	7.51
554.765	7.57
554.963	7.61
555.161	7.69
555.359	7.75
555.557	7.84
555.755	7.92
555.952	8.03
556.15	8.1
556.348	8.16
556.546	8.2
556.744	8.24
556.941	8.26
557.139	8.37
557.337	8.47
557.535	8.55
557.732	8.53
557.93	8.64
558.128	8.65
558.325	8.71
558.523	8.76
558.721	8.87
558.918	8.93
559.116	9.06
559.313	9.12
559.511	9.21
559.708	9.22
559.906	9.32
560.104	9.38
560.301	9.42
560.498	9.52
560.696	9.62
560.893	9.68
561.091	9.77
561.288	9.97
561.486	9.98
561.683	10.12
561.88	10.18
562.078	10.25
562.275	10.18
562.473	10.28
562.67	10.34
562.867	10.45
563.064	10.5
563.262	10.62
563.459	10.78
563.656	10.87
563.853	10.98
564.051	10.99
564.248	11.03
564.445	11.07
564.642	11.11
564.839	11.23
565.036	11.49
565.234	11.58
565.431	11.68
565.628	11.73
565.825	11.71
566.022	11.73
566.219	11.82
566.416	11.82
566.613	12.01
566.81	12.07
567.007	12.08
567.204	12.14
567.401	12.25
567.598	12.21
567.795	12.32
567.991	12.37
568.188	12.52
568.385	12.57
568.582	12.71
568.779	12.8
568.976	12.98
569.172	13.02
569.369	13
569.566	13.04
569.763	12.97
569.96	13.05
570.156	13.05
570.353	13.12
570.55	13.16
570.746	13.3
570.943	13.29
571.14	13.3
571.336	13.39
571.533	13.34
571.729	13.42
571.926	13.46
572.123	13.57
572.319	13.7
572.516	13.86
572.712	13.88
572.909	13.87
573.105	13.89
573.302	13.89
573.498	13.88
573.695	13.89
573.891	13.88
574.087	13.88
574.284	13.9
574.48	13.95
574.677	13.85
574.873	13.91
575.069	13.98
575.266	13.98
575.462	13.96
575.658	14.05
575.854	14.17
576.051	14.18
576.247	14.14
576.443	14.24
576.639	14.35
576.835	14.32
577.032	14.27
577.228	14.42
577.424	14.4
577.62	14.41
577.816	14.36
578.012	14.47
578.208	14.45
578.404	14.45
578.6	14.46
578.796	14.44
578.993	14.42
579.189	14.38
579.384	14.35
579.58	14.29
579.776	14.29
579.972	14.28
580.168	14.29
580.364	14.35
580.56	14.36
580.756	14.44
580.952	14.4
581.148	14.38
581.343	14.34
581.539	14.38
581.735	14.3
581.931	14.32
582.127	14.33
582.322	14.3
582.518	14.05
582.714	14.07
582.909	14.07
583.105	14.06
583.301	14.03
583.496	14.15
583.692	14.09
583.888	14
584.083	13.87
584.279	13.89
584.474	13.92
584.67	13.85
584.866	13.78
585.061	13.77
585.257	13.69
585.452	13.67
585.648	13.72
585.843	13.76
586.039	13.83
586.234	13.86
586.429	13.83
586.625	13.84
586.82	13.86
587.015	13.86
587.211	13.78
587.406	13.78
587.601	13.81
587.797	13.77
587.992	13.75
588.187	13.78
588.383	13.77
588.578	13.67
588.773	13.65
588.968	13.66
589.163	13.75
589.359	13.77
589.554	13.87
589.749	13.96
589.944	13.97
590.139	13.9
590.334	13.91
590.529	13.94
590.724	13.93
590.919	13.91
591.114	13.94
591.309	13.89
591.504	13.92
591.699	13.93
591.894	13.88
592.089	13.94
592.284	13.99
592.479	13.88
592.674	13.91
592.869	13.99
593.064	14.06
593.259	14.25
593.454	14.35
593.648	14.37
593.843	14.47
594.038	14.46
594.233	14.37
594.428	14.48
594.622	14.51
594.817	14.6
595.012	14.59
595.206	14.63
595.401	14.65
595.596	14.73
595.79	14.67
595.985	14.75
596.18	14.86
596.374	14.89
596.569	14.9
596.763	15.03
596.958	15.08
597.153	15.08
597.347	15.12
597.542	15.22
597.736	15.28
597.931	15.25
598.125	15.41
598.319	15.44
598.514	15.47
598.708	15.41
598.903	15.45
599.097	15.44
599.291	15.44
599.486	15.42
599.68	15.5
599.874	15.63
600.069	15.67
600.263	15.71
600.457	15.8
600.651	15.79
600.846	15.78
601.04	15.77
601.234	15.81
601.428	15.9
601.622	16
601.817	16
602.011	16
602.205	16.13
602.399	16.11
602.593	16.16
602.787	16.21
602.981	16.14
603.175	16.08
603.369	16.02
603.563	15.94
603.757	15.89
603.951	15.93
604.145	15.83
604.339	15.79
604.533	15.76
604.727	15.75
604.921	15.73
605.115	15.78
605.309	15.81
605.502	15.87
605.696	15.81
605.89	15.73
606.084	15.72
606.278	15.64
606.471	15.49
606.665	15.42
606.859	15.41
607.053	15.34
607.246	15.33
607.44	15.3
607.634	15.41
607.827	15.27
608.021	15.22
608.214	15.12
608.408	15.1
608.602	15.01
608.795	15.09
608.989	15.02
609.182	14.99
609.376	14.9
609.569	14.77
609.763	14.65
609.956	14.6
610.15	14.64
610.343	14.57
610.537	14.51
610.73	14.53
610.923	14.54
611.117	14.44
611.31	14.37
611.504	14.39
611.697	14.34
611.89	14.19
612.083	14.03
612.277	14
612.47	13.93
612.663	13.86
612.856	13.84
613.05	13.85
613.243	13.83
613.436	13.71
613.629	13.66
613.822	13.63
614.015	13.57
614.209	13.45
614.402	13.37
614.595	13.33
614.788	13.23
614.981	13.21
615.174	13.15
615.367	13.1
615.56	12.97
615.753	12.86
615.946	12.74
616.139	12.74
616.332	12.73
616.525	12.75
616.718	12.77
616.911	12.8
617.103	12.72
617.296	12.66
617.489	12.52
617.682	12.44
617.875	12.39
618.067	12.36
618.26	12.32
618.453	12.42
618.646	12.39
618.838	12.32
619.031	12.27
619.224	12.33
619.417	12.32
619.609	12.21
619.802	12.14
619.994	12.15
620.187	12.03
620.38	11.87
620.572	11.9
620.765	11.88
620.957	11.84
621.15	11.81
621.342	11.83
621.535	11.79
621.727	11.75
621.92	11.64
622.112	11.62
622.305	11.57
622.497	11.53
622.69	11.54
622.882	11.54
623.074	11.58
623.267	11.51
623.459	11.46
623.651	11.42
623.844	11.47
624.036	11.42
624.228	11.55
624.42	11.58
624.613	11.56
624.805	11.52
624.997	11.47
625.189	11.3
625.381	11.37
625.574	11.3
625.766	11.34
625.958	11.27
626.15	11.34
626.342	11.23
626.534	11.25
626.726	11.16
626.918	11.16
627.11	11.19
627.302	11.09
627.494	11.09
627.686	11.08
627.878	11.06
628.07	10.96
628.262	10.97
628.454	10.89
628.646	10.81
628.838	10.82
629.029	10.85
629.221	10.82
629.413	10.83
629.605	10.88
629.797	10.86
629.989	10.81
630.18	10.79
630.372	10.76
630.564	10.67
630.755	10.58
630.947	10.52
631.139	10.5
631.33	10.5
631.522	10.5
631.714	10.54
631.905	10.51
632.097	10.48
632.289	10.4
632.48	10.31
632.672	10.25
632.863	10.21
633.055	10.16
633.246	10.2
633.438	10.29
633.629	10.23
633.821	10.16
634.012	10.25
634.203	10.24
634.395	10.16
634.586	10.24
634.777	10.22
634.969	10.09
635.16	10.09
635.351	10.05
635.543	9.97
635.734	10.07
635.925	10.13
636.117	10.06
636.308	10.12
636.499	10.08
636.69	9.96
636.881	9.95
637.073	9.97
637.264	9.93
637.455	9.93
637.646	10
637.837	9.97
638.028	9.91
638.219	9.88
638.41	9.86
638.601	9.77
638.792	9.78
638.983	9.87
639.174	9.79
639.365	9.77
639.556	9.75
639.747	9.6
639.938	9.54
640.129	9.6
640.32	9.61
640.511	9.66
640.701	9.68
640.892	9.6
641.083	9.61
641.274	9.51
641.465	9.49
641.655	9.46
641.846	9.45
642.037	9.3
642.228	9.32
642.418	9.23
642.609	9.23
642.8	9.25
642.99	9.33
643.181	9.25
643.372	9.3
643.562	9.29
643.753	9.31
643.943	9.27
644.134	9.3
644.324	9.24
644.515	9.24
644.705	9.08
644.896	8.99
645.086	8.93
645.277	8.85
645.467	8.79
645.658	8.8
645.848	8.9
646.038	8.84
646.229	8.9
646.419	8.93
646.61	8.96
646.8	8.95
646.99	9.02
647.18	8.98
647.371	8.93
647.561	8.84
647.751	8.75
647.941	8.71
648.132	8.73
648.322	8.73
648.512	8.76
648.702	8.83
648.892	8.82
649.082	8.85
649.272	8.79
649.462	8.76
649.653	8.63
649.843	8.61
650.033	8.51
650.223	8.5
650.413	8.49
650.603	8.59
650.793	8.58
650.983	8.55
651.172	8.59
651.362	8.58
651.552	8.43
651.742	8.32
651.932	8.28
652.122	8.24
652.312	8.19
652.502	8.22
652.691	8.26
652.881	8.26
653.071	8.2
653.261	8.19
653.45	8.2
653.64	8.28
653.83	8.26
654.019	8.19
654.209	8.13
654.399	7.99
654.588	7.79
654.778	7.61
654.968	7.52
655.157	7.45
655.347	7.36
655.536	7.29
655.726	7.24
655.915	7.28
656.105	7.22
656.294	7.18
656.484	7.09
656.673	7.06
656.863	6.94
657.052	6.84
657.241	6.72
657.431	6.66
657.62	6.55
657.809	6.39
657.999	6.32
658.188	6.33
658.377	6.32
658.567	6.26
658.756	6.22
658.945	6.15
659.134	6.04
659.324	5.96
659.513	5.92
659.702	5.85
659.891	5.76
660.08	5.65
660.269	5.48
660.458	5.38
660.648	5.44
660.837	5.44
661.026	5.51
661.215	5.4
661.404	5.22
661.593	5.03
661.782	4.88
661.971	4.69
662.16	4.71
662.349	4.79
662.538	4.74
662.726	4.75
662.915	4.78
663.104	4.82
663.293	4.82
663.482	4.79
663.671	4.67
663.86	4.56
664.048	4.48
664.237	4.36
664.426	4.37
664.615	4.35
664.803	4.32
664.992	4.29
665.181	4.38
665.369	4.39
665.558	4.39
665.747	4.44
665.935	4.39
666.124	4.39
666.312	4.35
666.501	4.41
666.69	4.38
666.878	4.43
667.067	4.28
667.255	4.32
667.444	4.25
667.632	4.34
667.82	4.38
668.009	4.51
668.197	4.48
668.386	4.57
668.574	4.52
668.762	4.4
668.951	4.5
669.139	4.68
669.327	4.72
669.516	4.87
669.704	5.02
669.892	4.99
670.08	4.92
670.269	4.86
670.457	4.78
670.645	4.82
670.833	4.8
671.021	4.79
671.21	4.75
671.398	4.81
671.586	4.81
671.774	4.89
671.962	4.93
672.15	5.12
672.338	5.23
672.526	5.34
672.714	5.47
672.902	5.56
673.09	5.73
673.278	5.67
673.466	5.76
673.654	5.88
673.842	6.01
674.03	5.91
674.218	6.08
674.405	6.13
674.593	6.04
674.781	6.08
674.969	6.09
675.157	5.99
675.344	5.97
675.532	6.13
675.72	6.21
675.908	6.31
676.095	6.46
676.283	6.62
676.471	6.7
676.658	6.61
676.846	6.69
677.033	6.89
677.221	6.84
677.409	6.83
677.596	7
677.784	7.06
677.971	6.97
678.159	7.13
678.346	7.08
678.534	7.14
678.721	7.28
678.909	7.48
679.096	7.41
679.283	7.62
679.471	7.72
679.658	7.7
679.846	7.68
680.033	7.89
680.22	7.91
680.408	7.86
680.595	7.98
680.782	8.02
680.969	8.1
681.157	8.23
681.344	8.24
681.531	8.25
681.718	8.4
681.905	8.38
682.093	8.39
682.28	8.48
682.467	8.76
682.654	8.71
682.841	8.81
683.028	8.81
683.215	9.03
683.402	8.85
683.589	9.16
683.776	9.29
683.963	9.47
684.15	9.6
684.337	9.8
684.524	9.88
684.711	9.99
684.898	10.07
685.085	10.07
685.271	10.27
685.458	10.24
685.645	10.3
685.832	10.38
686.019	10.8
686.205	10.95
686.392	11.38
686.579	11.69
686.766	11.96
686.952	11.98
687.139	12.11
687.326	12.23
687.512	12.29
687.699	12.53
687.886	12.79
688.072	13.09
688.259	13.34
688.445	13.62
688.632	13.9
688.818	14.15
689.005	14.48
689.191	14.82
689.378	15.31
689.564	15.64
689.751	15.91
689.937	16.38
690.124	16.74
690.31	17.09
690.496	17.59
690.683	18.35
690.869	18.66
691.055	19
691.242	19.53
691.428	19.99
691.614	20.18
691.8	20.54
691.987	21.02
692.173	21.47
692.359	22.07
692.545	22.61
692.731	23.36
692.918	23.87
693.104	24.43
693.29	24.86
693.476	25.5
693.662	26.17
693.848	26.86
694.034	27.28
694.22	27.85
694.406	28.42
694.592	28.9
694.778	29.28
694.964	30.08
695.15	30.8
695.336	31.31
695.522	32.07
695.708	33.17
695.894	33.71
696.08	34.27
696.265	35.09
696.451	35.72
696.637	36.15
696.823	36.82
697.009	37.45
697.194	38.13
697.38	38.7
697.566	39.44
697.751	40.06
697.937	40.7
698.123	41.27
698.308	41.41
698.494	41.73
698.68	42.42
698.865	43.11
699.051	43.56
699.236	44.67
699.422	45.36
699.607	45.91
699.793	46.48
699.978	46.95
700.164	47.27
700.349	47.6
700.535	48.11
700.72	48.68
700.906	49.62
701.091	50.11
701.276	50.88
701.462	51.44
701.647	51.9
701.832	52.43
702.018	53.25
702.203	53.74
702.388	54.24
702.573	54.88
702.759	55.16
702.944	55.68
703.129	56.28
703.314	56.9
703.499	57.19
703.684	57.99
703.87	58.22
704.055	58.62
704.24	58.85
704.425	59.33
704.61	59.83
704.795	60.3
704.98	60.72
705.165	61.46
705.35	62.28
705.535	62.7
705.72	62.94
705.905	63.55
706.09	64.05
706.275	64.17
706.459	64.51
706.644	65.42
706.829	66.02
707.014	66.5
707.199	66.99
707.384	67.19
707.568	67.52
707.753	67.67
707.938	67.44
708.123	67.93
708.307	68.35
708.492	68.77
708.677	68.94
708.861	69.9
709.046	69.91
709.231	69.98
709.415	70.11
709.6	70.57
709.784	70.68
709.969	71.17
710.153	71.57
710.338	71.95
710.522	72.49
710.707	72.81
710.891	73.13
711.076	73.65
711.26	74.02
711.445	74.26
711.629	74.69
711.813	74.57
711.998	74.88
712.182	74.94
712.366	75.33
712.551	75.21
712.735	75.58
712.919	76
713.103	76.14
713.288	75.74
713.472	76.26
713.656	76.37
713.84	76.54
714.024	76.99
714.208	77.72
714.393	78.08
714.577	78.6
714.761	78.64
714.945	78.62
715.129	78.48
715.313	78.44
715.497	79.02
715.681	79.03
715.865	79.64
716.049	79.95
716.233	80.52
716.417	80.59
716.601	81.23
716.785	81.17
716.968	81.53
717.152	81.46
717.336	82
717.52	82.45
717.704	82.77
717.888	83.35
718.071	83.48
718.255	83.14
718.439	82.63
718.622	82.58
718.806	82.29
718.99	82.84
719.174	82.87
719.357	83.2
719.541	83.84
719.724	84.23
719.908	83.9
720.092	84.22
720.275	84.46
720.459	84.31
720.642	84.53
720.826	85.16
721.009	85.55
721.193	85.36
721.376	85.6
721.559	86.02
721.743	85.82
721.926	85.86
722.11	86.09
722.293	86.44
722.476	86.54
722.66	86.71
722.843	86.7
723.026	87.48
723.21	87.99
723.393	87.28
723.576	87.95
723.759	87.86
723.942	87.8
724.126	87.69
724.309	89.04
724.492	89.08
724.675	89.51
724.858	89.95
725.041	90.03
725.224	89.74
725.407	89.79
725.59	90.56
725.774	91.13
725.957	91.83
726.14	92.46
726.322	92.65
726.505	92.2
726.688	92.34
726.871	92.15
727.054	92.25
727.237	92.73
727.42	93.09
727.603	92.75
727.786	92.45
727.968	91.97
728.151	91.79
728.334	91.99
728.517	91.86
728.699	92.61
728.882	92.48
729.065	93.06
729.248	93.09
729.43	93.6
729.613	93.81
729.796	94.33
729.978	95
730.161	95.04
730.343	95.04
730.526	95.21
730.708	95.24
730.891	94.64
731.073	95.24
731.256	96.31
731.438	96.23
731.621	96.67
731.803	96.47
731.986	96.97
732.168	96.13
732.35	96.23
732.533	95.8
732.715	96.17
732.898	96.07
733.08	96.83
733.262	96.9
733.444	97.41
733.627	97.58
733.809	97.48
733.991	97.58
734.173	97.96
734.355	98.87
734.538	99.02
734.72	99.81
734.902	100.13
735.084	100.05
735.266	99.45
735.448	99.49
735.63	99.45
735.812	99.2
735.994	97.95
736.176	98.48
736.358	99.43
736.54	98.38
736.722	98.66
736.904	100.87
737.086	100.06
737.268	99.49
737.45	100.76
737.632	100.23
737.814	99.32
737.995	100.05
738.177	99.38
738.359	99.14
738.541	99.29
738.723	99.74
738.904	101.01
739.086	101.8
739.268	101.89
739.449	102.9
739.631	102.99
739.813	102.03
739.994	102.24
740.176	101.91
740.358	101.17
740.539	102
740.721	102.03
740.902	101.63
741.084	102.41
741.265	102.22
741.447	100.95
741.628	100.27
741.81	99.82
741.991	99.16
742.172	99.35
742.354	100.26
742.535	101.53
742.717	102.78
742.898	103.92
743.079	103.7
743.261	102.81
743.442	102.29
743.623	100.84
743.804	99.53
743.986	100.85
744.167	101.07
744.348	99.75
744.529	101.33
744.71	100.94
744.891	101.04
745.073	101.24
745.254	102.03
745.435	101.26
745.616	101.43
745.797	99.66
745.978	99.55
746.159	101.06
746.34	100.82
746.521	100.34
746.702	100.28
746.883	100.33
747.064	98.79
747.245	100.55
747.426	101.81
747.606	101.48
747.787	102.63
747.968	102.86
748.149	102.04
748.33	101.62
748.51	103.93
748.691	102.54
748.872	103.47
749.053	103.64
749.233	104.47
749.414	102.14
749.595	102.74
749.775	103.77
749.956	102.89
750.137	102.25
750.317	103.15
750.498	104.08
750.678	103.15
750.859	103.28
751.04	104.29
751.22	104.63
751.4	103.45
751.581	103.03
751.761	102.99
751.942	101.6
752.122	101.46
752.303	101.44
752.483	101.46
752.663	101.94
752.844	101.66
753.024	100.72
753.204	100.74
753.385	99.67
753.565	101.4
753.745	103.67
753.925	104.95
754.106	105.69
754.286	105.41
754.466	103.25
754.646	102.18
754.826	100.97
755.006	100.88
755.187	102.61
755.367	101.97
755.547	101.16
755.727	100.77
755.907	99.56
756.087	99.76
756.267	100.15
756.447	100.65
756.627	102.12
756.807	102.49
756.987	101.16
757.167	102.13
757.346	101.88
757.526	101.55
757.706	100.43
757.886	99.24
758.066	98.54
758.246	98.3
758.425	98.21
758.605	99.61
758.785	101.36
758.965	101.82
759.144	103.94
759.324	104.26
759.504	104.74
759.683	105.26
759.863	104.07
760.043	102.34
760.222	101.75
760.402	100.16
760.581	100
760.761	98.12
760.94	97.16
761.12	97.97
761.299	98.5
761.479	98.22
761.658	100.02
761.838	102.46
762.017	102.42
762.197	102.26
762.376	102.4
762.555	101.75
762.735	101.29
762.914	98.84
763.093	98.44
763.273	98.88
763.452	99.49
763.631	97.52
763.81	98.72
763.99	100.18
764.169	99.8
764.348	100.9
764.527	100.83
764.706	99.49
764.885	99.37
765.064	99.65
765.243	98.67
765.423	98.7
765.602	99.44
765.781	99.16
765.96	97.81
766.139	97.21
766.318	97.6
766.497	98.15
766.676	99.68
766.854	100.05
767.033	100.98
767.212	102.64
767.391	101.88
767.57	102.16
767.749	99.95
767.928	99.28
768.106	99.62
768.285	99.8
768.464	98
768.643	100.16
768.821	100.85
769	98.65
769.179	99.05
769.357	98.41
769.536	98.01
769.715	97.68
769.893	98.88
770.072	98.73
770.25	100.04
770.429	99.88
770.607	98.99
770.786	99.23
770.964	97.15
771.143	94.71
771.321	94.14
771.5	96.93
771.678	95.95
771.857	97.06
772.035	100.1
772.213	100.89
772.392	97.26
772.57	97
772.748	97.17
772.927	96.42
773.105	96.31
773.283	95.76
773.461	96.55
773.64	96.44
773.818	96.28
773.996	93.9
774.174	94.8
774.352	92.45
774.531	93.05
774.709	91.82
774.887	96
775.065	97.48
775.243	98.87
775.421	100.35
775.599	100.72
775.777	98.58
775.955	96.79
776.133	99.06
776.311	98.61
776.489	98.46
776.667	97.42
776.844	97.31
777.022	95.02
777.2	94.28
777.378	93.13
777.556	94.83
777.734	95.3
777.911	93.49
778.089	93.1
778.267	93.03
778.445	91.77
778.622	89.95
778.8	92.97
778.978	92.35
779.155	91.65
779.333	91.59
779.511	90.98
779.688	89.06
779.866	87.92
780.043	89.68
780.221	89.08
780.398	91.54
780.576	92.5
780.753	95.06
780.931	90.57
781.108	91.96
781.286	90.7
781.463	87.55
781.64	85.86
781.818	89.69
781.995	87.24
782.172	88.1
782.35	89.88
782.527	93
782.704	93.56
782.882	97.14
783.059	97.02
783.236	97.13
783.413	94.81
783.59	92.8
783.768	90.7
783.945	92.42
784.122	93.7
784.299	96.21
784.476	99.21
784.653	101.46
784.83	99.41
785.007	99.62
785.184	96.42
785.361	92.6
785.538	88.33
785.715	86.17
785.892	82.39
786.069	83.83
786.246	84.58
786.423	88.26
786.6	94.08
786.776	95.9
786.953	91.13
787.13	93.56
787.307	89.62
787.484	86.98
787.66	92.25
787.837	95.37
788.014	94.12
788.191	94.53
788.367	93.71
788.544	93.64
788.721	93
788.897	93.4
789.074	95.76
789.25	91.85
789.427	87.88
789.603	87.47
789.78	86
789.956	83.89
790.133	88.26
790.309	90.07
790.486	86.55
790.662	87.76
790.839	89.3
791.015	85.37
791.192	85.64
791.368	93.49
791.544	88.31
791.721	91.29
791.897	98.56
792.073	98.15
792.249	94.08
792.426	98.93
792.602	95.25
792.778	91.37
792.954	86.67
793.13	86.43
793.307	88.01
793.483	87.96
793.659	88.42
793.835	89.8
794.011	94.46
794.187	94.52
794.363	94.91
794.539	87.8
794.715	90.07
794.891	84.78
795.067	82.7
795.243	81.37
795.419	85.7
795.595	82.31
795.771	85.1
795.947	86.11
796.122	90.05
796.298	92.57
796.474	93.42
796.65	94.29
796.826	91.71
797.001	88.13
797.177	84.33
797.353	82.81
797.529	81.43
797.704	83.1
797.88	83.09
798.056	84.16
798.231	91.63
798.407	87.89
798.582	85.43
798.758	85.71
798.934	85.96
799.109	81.84
799.285	88.19
799.46	92.4
799.636	96.48
799.811	92.82
799.986	89.65
800.162	80.33
800.337	81.72
800.513	83
800.688	84.84
800.863	88.3
801.039	95.38
801.214	94.67
801.389	91.45
801.565	87.58
801.74	93.17
801.915	88.02
802.09	91.55
802.265	87.01
802.441	92.44
802.616	79.03
802.791	79.85
802.966	74.34
803.141	77.22
803.316	75.25
803.491	79.36
803.666	80.52
803.841	85.14
804.016	85.78
804.191	87.15
804.366	96.97
804.541	98.16
804.716	93.59
804.891	94.63
805.066	99.78
805.241	95.4
805.416	82.36
805.591	80.56
805.765	77.76
805.94	73.63
806.115	69.63
806.29	78.58
806.464	81.78
806.639	82.61
806.814	81.77
806.989	80.48
807.163	80.16
807.338	74.75
807.512	77.79
807.687	82.74
807.862	77.36
808.036	79.13
808.211	79.82
808.385	73.85
808.56	72.11
808.734	74.63
808.909	70.54
809.083	72.25
809.258	74.34
809.432	77.25
809.606	69.61
809.781	72.13
809.955	70.51
810.13	68.56
810.304	59.43
810.478	73.13
810.652	74.33
810.827	79.32
811.001	88.15
811.175	93.81
811.349	89.37
811.524	81.6
811.698	74.59
811.872	71.8
812.046	71.37
812.22	72.22
812.394	75.41
812.568	79.22
812.742	80.99
812.916	79.2
813.09	81.56
813.264	91.13
813.438	102.6
813.612	101.33
813.786	94.44
813.96	98.51
814.134	91.73
814.308	80.22
814.482	79.56
814.656	83.01
814.83	78.93
815.003	78.87
815.177	74.17
815.351	77.11
815.525	86.27
815.698	87.91
815.872	87.77
816.046	100.41
816.219	94.89
816.393	93.52
816.567	86.45
816.74	80.82
816.914	75.5
817.088	72.86
817.261	75.11
817.435	89.42
817.608	89.95
817.782	89.44
817.955	92.77
818.129	90.21
818.302	68.55
818.475	83.98
818.649	89.74
818.822	92.88
818.996	94.66
819.169	97.37
819.342	84.87
819.516	77.92
819.689	79.52
819.862	81.07
820.035	74.36
820.209	71.55
820.382	82.44
820.555	78.73
820.728	71.16
820.901	73.23
821.075	79.57
821.248	84.63
821.421	94.17
821.594	93.35
821.767	107.75
821.94	112.8
822.113	91.66
822.286	81.87
822.459	81.78
822.632	74.52
822.805	72.6
822.978	78.85
823.151	82.53
823.324	78.86
823.496	74.91
823.669	65.8
823.842	61.91
824.015	57.27
824.188	55.19
824.361	68.65
824.533	73.99
824.706	71.5
824.879	86.5
825.051	92.57
825.224	85.86
825.397	102.96
825.569	104.47
825.742	99.65
825.915	111.78
826.087	104.01
826.26	84.58
826.432	98.17
826.605	87.75
826.777	77.7
826.95	74.16
827.122	75.14
827.295	52.3
827.467	52.04
827.64	37.42
827.812	50.56
827.984	45.27
828.157	60.69
828.329	63.22
828.501	92.17
828.674	76.38
828.846	73.49
829.018	74.11
829.19	69.32
829.363	50.16
829.535	50.42
829.707	61.59
829.879	63.26
830.051	64.99
830.223	89.28
830.395	102.42
830.568	98.77
830.74	87.22
830.912	88.18
831.084	73.42
831.256	75.53
831.428	71.93
831.6	77.44
831.772	89.37
831.943	92.77
832.115	75.46
832.287	91.32
832.459	70.11
832.631	71.14
832.803	79.54
832.975	95.24
833.146	80.97
833.318	104.79
833.49	101.97
833.662	105.99
833.833	82.68
834.005	79.51
834.177	87.68
834.348	81.7
834.52	50.2
834.692	48.33
834.863	55.47
835.035	39.57
835.206	46.46
835.378	48.34
835.549	65.55
835.721	60.74
835.892	65.76
836.064	67.47
836.235	94.35
836.407	92.93
836.578	86.59
836.749	86.41
836.921	81.42
837.092	84.53
837.264	73.52
837.435	78.84
837.606	67.51
837.777	57.83
837.949	19.84
838.12	12.74
838.291	19.48
838.462	22.36
838.633	44.32
838.805	88.66
838.976	117.34
839.147	138.12
839.318	126.76
839.489	110.66
839.66	121.01
839.831	114.88
840.002	94.65
840.173	85.37
840.344	95.79
840.515	84.75
840.686	86.82
840.857	74.95
841.028	97.34
841.199	80.13
841.369	73.09
841.54	79.91
841.711	101.61
841.882	82.66
842.053	83.94
842.223	107.51
842.394	109.98
842.565	94.19
842.736	115.55
842.906	175.9
843.077	115.69
843.248	181.53
843.418	182.53
843.589	100.13
843.759	75.99
843.93	77.31
844.101	66.89
844.271	55.35
844.442	82.78
844.612	93.21
844.783	72.45
844.953	57.44
845.123	56.34
845.294	37.82
845.464	45.31
845.635	75.63
845.805	91.04
845.975	105.03
846.146	112.6
846.316	96.58
846.486	109.58
846.656	86.29
846.827	63.68
846.997	76.52
847.167	69.44
847.337	54.63
847.507	56.88
847.677	82.18
847.848	92.18
848.018	133.95
848.188	136.53
848.358	141.18
848.528	136.16
848.698	133
848.868	107.95
849.038	94.55
849.208	58.59
849.378	76.21
849.548	45.37
849.718	53.32
849.887	46.78
850.057	46.47
850.227	52.49
850.397	60.19
850.567	48.75
850.737	38.68
850.906	46.91
851.076	14.85
851.246	13.23
851.415	23.55
851.585	39.13
851.755	33.31
851.924	56.33
852.094	72.08
852.264	54.74
852.433	44.11
852.603	58.32
852.772	58.13
852.942	41.9
853.111	61.18
853.281	69.51
853.45	56.29
853.62	35.01
853.789	20.49
853.959	37.27
854.128	46.91
854.297	49.37
854.467	85.53
854.636	84.65
854.805	48.8
854.975	51.98
855.144	42.71
855.313	36.37
855.482	65.69
855.652	89.31
855.821	68.26
855.99	60.56
856.159	65.81
856.328	42.68
856.497	6.89
856.667	24.8
856.836	22.63
857.005	18.6
857.174	20.51
857.343	24.52
857.512	37.73
857.681	-19.16
857.85	-29.57
858.019	-54.45
858.188	-56.3
858.356	-23.94
858.525	22.62
858.694	32.2
858.863	69.51
859.032	84.74
859.201	58.66
859.369	76.77
859.538	74.56
859.707	56.83
859.876	31.54
860.044	79.3
860.213	62.62
860.382	69.33
860.55	87.83
860.719	89.88
860.888	70.09
861.056	69.96
861.225	61.38
861.393	47.15
861.562	74.36
861.73	64.95
861.899	68.24
862.067	78.6
862.236	75.81
862.404	45.97
862.572	30.02
862.741	33.25
862.909	21.87
863.078	16.9
863.246	34.19
863.414	66.04
863.582	83.3
863.751	79.34
863.919	79.12
864.087	90.31
864.255	50.59
864.424	23.28
864.592	7.01
864.76	7
864.928	-2.46
865.096	-5.59
865.264	19.9
865.432	35.97
865.6	38.61
865.768	37.04
865.936	34.34
866.104	22.39
866.272	-3.1
866.44	7.29
866.608	9.01
866.776	20.61
866.944	46.9
867.112	43.05
867.28	10.08
867.448	20.12
867.615	30.94
867.783	40.84
867.951	56.49
868.119	114.87
868.286	122.63
868.454	120.11
868.622	95.01
868.789	114.8
868.957	81.65
869.125	67.4
869.292	39.41
869.46	50.05
869.627	41.24
869.795	37.9
869.963	48.28
870.13	59.87
870.298	51.96
870.465	64.6
870.632	73.21
870.8	65.94
870.967	87.2
871.135	97.32
871.302	50.86
871.469	44.03
871.637	59
871.804	37.21
871.971	38.6
872.139	53.7
872.306	59.3
872.473	58.34
872.64	48.32
872.807	49.84
872.975	44.18
873.142	37.45
873.309	16.54
873.476	48.64
873.643	31.85
873.81	44.13
873.977	35.98
874.144	50.32
874.311	51.34
874.478	57.64
874.645	49.02
874.812	82.65
874.979	71.47
875.146	58.5
875.313	62.08
875.48	88.96
875.647	73.15
875.813	83.06
875.98	59.58
876.147	49.37
876.314	34.62
876.481	30.97
876.647	43.06
876.814	62.33
876.981	69.38
877.147	65.93
877.314	56.11
877.481	53.94
877.647	19.72
877.814	21.43
877.98	21.71
878.147	18.27
878.314	22.31
878.48	67.61
878.647	65.63
878.813	49.37
878.979	35.46
879.146	13.6
879.312	-63.08
879.479	-15.33
879.645	52.63
879.811	44.85
879.978	43.47
880.144	66.89
880.31	57.66
880.477	26.26
880.643	42.5
880.809	45.74
880.975	58.14
881.142	-7.83
881.308	32.07
881.474	99.7
881.64	169.99
881.806	32.52
881.972	103.61
882.138	128.42
882.304	49.76
882.47	2.91
882.636	21.91
882.802	25.95
882.968	4.89
883.134	5.42
883.3	29.01
883.466	39.75
883.632	24.94
883.798	42.84
883.964	59.25
884.129	157.26
884.295	52.1
884.461	78.34
884.627	57.5
884.793	69.61
884.958	54.52
885.124	61.99
885.29	56.75
885.455	60.94
885.621	69.39
885.787	62.97
885.952	49.94
886.118	60.34
886.283	70.53
886.449	50.36
886.614	40.99
886.78	60.58
886.945	73.47
887.111	65.44
887.276	52.57
887.442	53.87
887.607	24.49
887.773	-53.64
887.938	-91.06
888.103	-69.87
888.269	9.38
888.434	26.97
888.599	21.51
888.764	19.84
888.93	11.99
889.095	-14.98
889.26	-5.94
889.425	57.89
889.59	111.38
889.756	88.39
889.921	73.02
890.086	67.79
890.251	55.89
890.416	12.08
890.581	2.95
890.746	35.44
890.911	53.52
891.076	7.92
891.241	3.22
891.406	53.87
891.571	27.25
891.736	-4.93
891.901	21.8
892.065	41.78
892.23	34.04
892.395	24.35
892.56	-6.87
892.725	-5.11
892.889	23.64
893.054	28.27
893.219	39.81
893.384	53.52
893.548	46.79
893.713	33.23
893.878	4.96
