Data from Ofav_PP_Phys_9IR44_Reflection_2.txt Node
Date: Tue Jul 27 19:05:45 EDT 2021
User: USUARIO
Spectrometer: FLMT01687
Trigger mode: 0
Integration Time (sec): 8.500000E-1
Scans to average: 2
Electric dark correction enabled: true
Nonlinearity correction enabled: false
Boxcar width: 2
XAxis mode: Wavelengths
Number of Pixels in Spectrum: 3648
>>>>>Begin Spectral Data<<<<<
179.494	-1062.22
179.716	-327.42
179.937	-209.34
180.158	-197.98
180.38	-172.9
180.601	-106.05
180.823	87.85
181.044	63.3
181.265	-16.92
181.486	-102.88
181.708	-31.06
181.929	129.79
182.15	77.48
182.372	19.69
182.593	-19.19
182.814	68.12
183.035	87.28
183.257	77.14
183.478	64.95
183.699	63.89
183.92	51.41
184.141	43.17
184.363	62.23
184.584	77.86
184.805	97.9
185.026	78.61
185.247	100.06
185.468	74.73
185.689	46.72
185.91	3.78
186.132	6.44
186.353	7.72
186.574	-3.91
186.795	-4.99
187.016	18.62
187.237	16.08
187.458	15.31
187.679	30.69
187.9	35.84
188.121	48.54
188.342	90.22
188.563	93.38
188.784	96.6
189.005	121.64
189.226	109.82
189.447	81.84
189.667	76.29
189.888	84.93
190.109	45.42
190.33	51.94
190.551	48.73
190.772	46.45
190.993	27.71
191.214	43.29
191.434	32.68
191.655	35.77
191.876	29.32
192.097	34.65
192.318	32.36
192.538	19.97
192.759	28.04
192.98	32.92
193.201	44.51
193.421	61.48
193.642	47.95
193.863	38.2
194.083	52.18
194.304	31.08
194.525	1.22
194.745	-9.61
194.966	-29.53
195.187	-54.66
195.407	-39.67
195.628	-13.33
195.848	40.86
196.069	43.67
196.29	84.22
196.51	97.36
196.731	79.05
196.951	59.15
197.172	60.84
197.392	40.88
197.613	49.67
197.833	41.74
198.054	62.63
198.274	67.04
198.495	79.73
198.715	85.33
198.936	88.48
199.156	77.26
199.377	72.03
199.597	67.69
199.817	53.37
200.038	55.32
200.258	22.88
200.479	53.48
200.699	43.28
200.919	40.32
201.14	40.07
201.36	23.32
201.58	30.76
201.801	40.35
202.021	41.29
202.241	71.04
202.461	90.88
202.682	68.01
202.902	62.53
203.122	71.12
203.342	47.15
203.563	52.32
203.783	50.39
204.003	45.85
204.223	18.72
204.443	12.58
204.663	3.28
204.884	-3.47
205.104	-1.13
205.324	51.16
205.544	61.17
205.764	43.79
205.984	64.08
206.204	120.41
206.424	88.91
206.644	53.78
206.864	50.68
207.084	39.76
207.304	26.3
207.525	23.51
207.745	26.08
207.964	50.07
208.184	40.71
208.404	35.41
208.624	40.11
208.844	44.21
209.064	34.2
209.284	35.1
209.504	28.43
209.724	16.75
209.944	-6.14
210.164	-41.52
210.384	-40.29
210.604	-25.94
210.823	23.2
211.043	22.09
211.263	16.59
211.483	42.37
211.703	51.9
211.922	35.23
212.142	53.48
212.362	50.6
212.582	0.15
212.801	15.76
213.021	22.19
213.241	-2.23
213.461	-33.25
213.68	8.44
213.9	3.04
214.12	15.41
214.339	49.97
214.559	66.48
214.779	69.7
214.998	33.42
215.218	25.43
215.438	38.17
215.657	26.64
215.877	21.5
216.096	45.39
216.316	62.63
216.535	43.24
216.755	65.07
216.974	71.78
217.194	70.66
217.413	51.25
217.633	48.51
217.852	35.21
218.072	16.91
218.291	0.87
218.511	17.46
218.73	25.11
218.95	39.08
219.169	63.17
219.389	66.05
219.608	77.53
219.827	75.59
220.047	58.62
220.266	48.35
220.485	51.69
220.705	33.61
220.924	14.64
221.143	4.08
221.363	-22.91
221.582	-26.06
221.801	-30.46
222.021	3.59
222.24	17.71
222.459	6.51
222.678	7.76
222.897	47.52
223.117	40.64
223.336	33.79
223.555	34.21
223.774	38.98
223.993	15.82
224.213	27.51
224.432	37.71
224.651	50.75
224.87	38.54
225.089	32.71
225.308	23.12
225.527	37.21
225.746	17.78
225.965	24.6
226.184	30.43
226.404	38.45
226.623	17.14
226.842	27.94
227.061	19.17
227.28	37.25
227.499	56.34
227.718	40.07
227.936	46.65
228.155	49.17
228.374	41.12
228.593	19.18
228.812	32.85
229.031	10.83
229.25	1.9
229.469	-37.78
229.688	-44.94
229.907	-62.45
230.125	-7.53
230.344	-6.37
230.563	30.6
230.782	33.4
231.001	42.66
231.22	36.46
231.438	37.79
231.657	17.94
231.876	21.78
232.095	12.82
232.313	29.84
232.532	37.87
232.751	47.06
232.969	56.83
233.188	67.59
233.407	50.82
233.625	39.96
233.844	38.91
234.063	36.85
234.281	36.37
234.5	26.46
234.719	55.36
234.937	43.48
235.156	28.55
235.374	31.8
235.593	41.09
235.811	20.22
236.03	17.69
236.249	21.11
236.467	21.2
236.686	27.01
236.904	30.88
237.123	32.04
237.341	29.52
237.559	19.17
237.778	24.95
237.996	17.91
238.215	35.85
238.433	53.84
238.652	50.2
238.87	42.41
239.088	25.17
239.307	15.6
239.525	-22.38
239.743	-7.18
239.962	1.13
240.18	25.15
240.398	25.2
240.617	32.37
240.835	45.99
241.053	35.41
241.271	42.29
241.49	45.16
241.708	63.08
241.926	36.5
242.144	33.27
242.363	19.96
242.581	23.09
242.799	21.49
243.017	-3.92
243.235	16.05
243.453	35.33
243.672	24.03
243.89	18.02
244.108	53.01
244.326	53.27
244.544	21.07
244.762	29.87
244.98	31.66
245.198	23.1
245.416	14.87
245.634	43.63
245.852	48.36
246.07	46.1
246.288	49.15
246.506	43.9
246.724	41.78
246.942	36.72
247.16	27.69
247.378	18.69
247.596	22.56
247.814	22.03
248.032	14.32
248.25	20.01
248.468	25.76
248.685	29.94
248.903	32.76
249.121	41.73
249.339	49.65
249.557	58.9
249.775	38.49
249.992	27.67
250.21	16.5
250.428	16.49
250.646	-11.1
250.863	6.16
251.081	12.84
251.299	16.22
251.517	7.73
251.734	19.15
251.952	-11.24
252.17	-3.94
252.387	-18.78
252.605	5.12
252.823	18.26
253.04	45.97
253.258	49.62
253.475	57.05
253.693	68.95
253.911	81.38
254.128	73.74
254.346	74.36
254.563	83.73
254.781	50.8
254.998	52.67
255.216	31.42
255.433	30.23
255.651	33.54
255.868	46.31
256.086	28.17
256.303	32.97
256.521	38.64
256.738	19.14
256.956	18.83
257.173	27.67
257.39	27.27
257.608	25.16
257.825	32.91
258.043	41.24
258.26	38.56
258.477	37.6
258.695	35.55
258.912	49.46
259.129	38.13
259.346	46.79
259.564	65.6
259.781	75.95
259.998	58.85
260.216	58.46
260.433	46.31
260.65	41.15
260.867	35.8
261.084	30.21
261.302	25.51
261.519	31.62
261.736	20.31
261.953	13.72
262.17	11.89
262.387	13.08
262.604	15.36
262.822	34
263.039	38.66
263.256	41.7
263.473	65.65
263.69	57.74
263.907	35.62
264.124	43.33
264.341	54.8
264.558	44.83
264.775	45.26
264.992	54.15
265.209	43.8
265.426	49.66
265.643	37.98
265.86	42.75
266.077	47.65
266.294	56.47
266.51	47.35
266.727	41.4
266.944	41.37
267.161	27.72
267.378	11.45
267.595	28.37
267.812	36.86
268.028	58.8
268.245	57.55
268.462	64.63
268.679	20.81
268.896	27.04
269.112	3.65
269.329	6.06
269.546	19.28
269.763	29.2
269.979	32.73
270.196	44.1
270.413	50.55
270.629	57.49
270.846	68.25
271.063	51.55
271.279	52.18
271.496	47.76
271.712	8.24
271.929	-1.9
272.146	-15.75
272.362	1.15
272.579	9.14
272.795	35.47
273.012	25.71
273.228	30.11
273.445	31.68
273.661	34.69
273.878	21.88
274.094	12.63
274.311	27.53
274.527	23.42
274.744	19.86
274.96	19.97
275.177	17.99
275.393	27.58
275.609	29.15
275.826	18.68
276.042	28.44
276.259	51.98
276.475	36.16
276.691	41.82
276.908	43.88
277.124	37.77
277.34	35.55
277.557	25.19
277.773	27.88
277.989	28.97
278.205	37.96
278.422	41.25
278.638	51.8
278.854	58.31
279.07	60.58
279.286	51.75
279.503	48.76
279.719	44.04
279.935	37.85
280.151	39.31
280.367	43.85
280.583	43.52
280.799	55.29
281.016	57.86
281.232	56.3
281.448	60.51
281.664	59.27
281.88	45.74
282.096	43.48
282.312	40.67
282.528	28.52
282.744	14.17
282.96	16.43
283.176	20.99
283.392	31.37
283.608	56.03
283.824	59.31
284.04	47.31
284.256	41.6
284.471	35.67
284.687	29.77
284.903	29.18
285.119	50.68
285.335	36.67
285.551	32.31
285.767	36.52
285.982	35.35
286.198	15.71
286.414	21.02
286.63	24.81
286.846	16.92
287.061	10.84
287.277	5.63
287.493	7.71
287.709	21.52
287.924	19.67
288.14	36.2
288.356	67.19
288.571	78.39
288.787	59.3
289.003	59.96
289.218	67.96
289.434	54.25
289.65	43.16
289.865	34.27
290.081	40.36
290.296	27.79
290.512	13.04
290.727	9.42
290.943	9.11
291.159	2.12
291.374	7.47
291.59	29.5
291.805	44.1
292.021	49.98
292.236	54.17
292.451	41.07
292.667	42.93
292.882	33.39
293.098	36.1
293.313	41.94
293.529	63.21
293.744	61.62
293.959	70.51
294.175	69.65
294.39	59.84
294.605	43.12
294.821	37.92
295.036	33.95
295.251	30.73
295.467	16.29
295.682	4.73
295.897	5.92
296.112	17.71
296.328	26.38
296.543	38.65
296.758	43.02
296.973	41.35
297.188	36.38
297.404	23.93
297.619	25.84
297.834	27.12
298.049	30.04
298.264	33.72
298.479	30.59
298.694	38.71
298.909	42.23
299.125	42.83
299.34	31.14
299.555	50.9
299.77	43.52
299.985	43.51
300.2	46.2
300.415	58.14
300.63	35.01
300.845	39.46
301.06	32.99
301.275	43.56
301.49	27.79
301.704	34.47
301.919	36.22
302.134	44.92
302.349	38.54
302.564	36.33
302.779	30.36
302.994	25.35
303.209	22.27
303.423	17.56
303.638	16.49
303.853	22.37
304.068	27.05
304.283	24.6
304.497	23.99
304.712	33.63
304.927	24.04
305.142	29.85
305.356	14.14
305.571	24.4
305.786	14.95
306	41.03
306.215	25.61
306.43	34.92
306.644	41.61
306.859	52.39
307.074	29.83
307.288	27.33
307.503	34.12
307.717	21.15
307.932	11.78
308.147	29.61
308.361	38.11
308.576	42.3
308.79	50.97
309.005	49.41
309.219	38.79
309.434	32.81
309.648	13.67
309.863	-6.6
310.077	-8.32
310.292	10.02
310.506	6.57
310.72	21.21
310.935	26.91
311.149	43.94
311.364	12.67
311.578	20.39
311.792	25.76
312.007	44.94
312.221	46.68
312.435	46.72
312.649	38.09
312.864	-3.47
313.078	-38.08
313.292	-38.44
313.507	-15.62
313.721	13.83
313.935	38.29
314.149	33.38
314.363	25.28
314.578	21.67
314.792	23.9
315.006	26.24
315.22	36.44
315.434	39.57
315.648	41.11
315.862	32.27
316.077	46.04
316.291	61.82
316.505	51.13
316.719	54.31
316.933	47.57
317.147	15.6
317.361	10.24
317.575	11.71
317.789	13.43
318.003	13
318.217	43.92
318.431	39.52
318.645	34.51
318.859	36.69
319.073	27.6
319.287	29.37
319.5	24.72
319.714	19.51
319.928	18.08
320.142	17.34
320.356	20.63
320.57	35.03
320.784	34.52
320.997	41.65
321.211	48.46
321.425	37.94
321.639	19.07
321.853	22.19
322.066	22.69
322.28	2.74
322.494	9.28
322.707	30.38
322.921	32.15
323.135	21.75
323.349	33.23
323.562	37.85
323.776	18.52
323.989	12.23
324.203	19.64
324.417	13.87
324.63	25.64
324.844	30.41
325.057	25.53
325.271	19.24
325.485	24.43
325.698	15.37
325.912	8.08
326.125	25.58
326.339	33.42
326.552	42.11
326.766	42.52
326.979	55.1
327.193	41.83
327.406	27.07
327.619	21.84
327.833	31.77
328.046	36.29
328.26	42.73
328.473	35.71
328.686	36.05
328.9	21
329.113	8.47
329.326	-9.5
329.54	27.93
329.753	19.27
329.966	34.06
330.179	37.62
330.393	57.04
330.606	42.4
330.819	50.93
331.032	46.13
331.246	55.88
331.459	45.57
331.672	52.1
331.885	56.24
332.098	55.89
332.311	43.99
332.525	47.32
332.738	37.37
332.951	32.71
333.164	24.17
333.377	18.53
333.59	19.79
333.803	34.86
334.016	35.14
334.229	47.06
334.442	57.94
334.655	53.35
334.868	52.08
335.081	46.5
335.294	52.57
335.507	27.46
335.72	32.77
335.933	19.78
336.146	26.74
336.359	10.29
336.572	32.29
336.785	28.14
336.997	44.18
337.21	51.15
337.423	49.69
337.636	31.96
337.849	17.24
338.062	12.18
338.274	7.74
338.487	22.86
338.7	22.99
338.913	31.7
339.125	17.35
339.338	16.1
339.551	-9.74
339.763	-6.66
339.976	5.64
340.189	26.88
340.402	14.87
340.614	8.63
340.827	17.52
341.039	-6.94
341.252	-19.45
341.465	-32.92
341.677	-16.92
341.89	-24.93
342.102	11.95
342.315	14.09
342.527	23.97
342.74	35.65
342.952	36.66
343.165	31.95
343.377	30.39
343.59	34.46
343.802	29.25
344.015	24.11
344.227	10.63
344.44	-2.48
344.652	-9.8
344.864	-43.94
345.077	-10.91
345.289	2.09
345.502	8.59
345.714	17
345.926	35.49
346.139	23.73
346.351	22.42
346.563	24.5
346.775	15.28
346.988	14.5
347.2	12.72
347.412	22.55
347.624	21.36
347.837	22.55
348.049	26.22
348.261	26.54
348.473	25.17
348.685	39
348.897	39.47
349.11	38.88
349.322	29.71
349.534	31.73
349.746	23.7
349.958	31.1
350.17	52.7
350.382	54.59
350.594	46.39
350.806	53.31
351.018	52.22
351.23	40.61
351.442	48.49
351.654	75.66
351.866	69.85
352.078	68.89
352.29	58.09
352.502	61.96
352.714	47.9
352.926	43.47
353.138	37.7
353.35	34.89
353.561	33.56
353.773	23.61
353.985	12.62
354.197	15.31
354.409	16.38
354.621	11.67
354.832	26.06
355.044	24.25
355.256	24.43
355.468	29.48
355.679	29.68
355.891	21.61
356.103	31.91
356.314	39.56
356.526	42.02
356.738	50.44
356.949	46.13
357.161	37.8
357.373	40.3
357.584	31.12
357.796	37.87
358.008	48.9
358.219	59.92
358.431	53.77
358.642	51.81
358.854	50.75
359.065	41.43
359.277	37.74
359.488	42.35
359.7	46.11
359.911	44.33
360.123	56.51
360.334	56.83
360.546	45.9
360.757	44.47
360.969	34.69
361.18	26.55
361.391	16.52
361.603	19.89
361.814	17.88
362.025	31.55
362.237	29.61
362.448	25.25
362.659	21.19
362.871	30.55
363.082	21.36
363.293	28.79
363.504	36.1
363.716	42.31
363.927	16.22
364.138	22.49
364.349	10.87
364.56	15.78
364.772	15.78
364.983	46.64
365.194	45.96
365.405	48.15
365.616	43.06
365.827	52.36
366.038	54.13
366.25	51.18
366.461	62.31
366.672	50.91
366.883	38.37
367.094	27.67
367.305	18.36
367.516	-1.29
367.727	19.98
367.938	1.48
368.149	-6.66
368.36	-4.33
368.571	4.76
368.781	7.38
368.992	10.95
369.203	1.9
369.414	4.06
369.625	4.4
369.836	2.65
370.047	10.8
370.258	11.26
370.468	5.8
370.679	15.73
370.89	16.62
371.101	2.69
371.312	18.49
371.522	11.72
371.733	13.07
371.944	10.63
372.155	20.73
372.365	7.9
372.576	21.42
372.787	18.72
372.997	19.19
373.208	20.03
373.419	25.53
373.629	29.38
373.84	26.38
374.05	29.42
374.261	24.02
374.472	34.18
374.682	30.15
374.893	33.83
375.103	24.79
375.314	35.43
375.524	35.38
375.735	36.37
375.945	40.62
376.156	44.69
376.366	43.04
376.577	28.29
376.787	25.21
376.997	16.5
377.208	22.63
377.418	20.15
377.629	30.2
377.839	35.19
378.049	39.52
378.26	31.58
378.47	36.5
378.68	34.48
378.89	30.86
379.101	23.93
379.311	19.05
379.521	15.06
379.732	15.86
379.942	22.06
380.152	19.27
380.362	29.31
380.572	26.87
380.783	17.47
380.993	15.12
381.203	15.4
381.413	7.84
381.623	9.59
381.833	11.48
382.043	18.24
382.253	20.31
382.463	20.55
382.674	29.09
382.884	24.86
383.094	11.98
383.304	16.86
383.514	18.83
383.724	10.02
383.934	10.55
384.144	4.49
384.353	4.07
384.563	6.39
384.773	5.68
384.983	4.97
385.193	11.99
385.403	8.18
385.613	7.75
385.823	9.36
386.033	9.68
386.242	15.66
386.452	14.62
386.662	17.3
386.872	17.94
387.082	14.54
387.291	4.61
387.501	6.75
387.711	-0.37
387.921	-1.46
388.13	3.05
388.34	6.27
388.55	7.36
388.759	6.52
388.969	7.17
389.179	9.25
389.388	9.48
389.598	10.4
389.807	10.46
390.017	10.57
390.227	9.53
390.436	10.31
390.646	7.98
390.855	8.14
391.065	6.17
391.274	5.58
391.484	4.16
391.693	4.45
391.903	5.19
392.112	7.07
392.322	6.38
392.531	6.32
392.74	6.46
392.95	6.25
393.159	5.61
393.369	6.04
393.578	6.46
393.787	5.01
393.997	5.51
394.206	6.04
394.415	6.06
394.625	6.11
394.834	6.1
395.043	6.2
395.252	5.05
395.462	5.25
395.671	4.68
395.88	5.86
396.089	5.86
396.298	6.12
396.508	5.86
396.717	6.45
396.926	6.02
397.135	5.33
397.344	5.35
397.553	5.39
397.762	4.4
397.971	3.74
398.181	3.89
398.39	3.84
398.599	4.04
398.808	4.75
399.017	5.56
399.226	5.69
399.435	5.82
399.644	5.78
399.853	5.7
400.062	5.69
400.27	5.26
400.479	4.87
400.688	4.7
400.897	4.51
401.106	4.64
401.315	5.05
401.524	5.34
401.733	5.14
401.941	5.31
402.15	4.85
402.359	4.52
402.568	4.49
402.777	4.43
402.985	4.26
403.194	4.47
403.403	4.68
403.612	4.51
403.82	4.6
404.029	4.66
404.238	4.72
404.446	4.72
404.655	4.77
404.864	4.79
405.072	4.73
405.281	4.49
405.489	4.25
405.698	4.39
405.906	4.38
406.115	4.39
406.324	4.5
406.532	4.51
406.741	4.4
406.949	4.42
407.158	4.34
407.366	4.29
407.574	4.44
407.783	4.44
407.991	4.32
408.2	4.34
408.408	4.42
408.617	4.22
408.825	4.12
409.033	4.17
409.242	4.15
409.45	4.08
409.658	4.22
409.867	4.17
410.075	4.09
410.283	4.15
410.491	4.04
410.7	3.94
410.908	3.91
411.116	3.93
411.324	3.86
411.533	3.95
411.741	3.96
411.949	3.97
412.157	4
412.365	4.07
412.573	4.05
412.781	3.97
412.99	4.06
413.198	4.16
413.406	4.07
413.614	4.11
413.822	4.17
414.03	4.1
414.238	3.91
414.446	3.95
414.654	3.86
414.862	3.91
415.07	3.85
415.278	3.94
415.486	3.86
415.694	3.79
415.902	3.8
416.109	3.86
416.317	3.89
416.525	3.88
416.733	3.93
416.941	4.02
417.149	3.98
417.357	3.91
417.564	3.74
417.772	3.81
417.98	3.65
418.188	3.72
418.395	3.68
418.603	3.9
418.811	3.95
419.019	3.91
419.226	3.89
419.434	3.97
419.642	4.01
419.849	3.87
420.057	3.89
420.265	3.98
420.472	3.94
420.68	3.7
420.887	3.86
421.095	3.79
421.302	3.58
421.51	3.44
421.717	3.58
421.925	3.35
422.132	3.39
422.34	3.46
422.547	3.53
422.755	3.55
422.962	3.61
423.17	3.66
423.377	3.66
423.585	3.77
423.792	3.84
423.999	3.81
424.207	3.68
424.414	3.63
424.621	3.53
424.829	3.2
425.036	3.07
425.243	3.15
425.451	3.12
425.658	3.04
425.865	3.29
426.072	3.23
426.28	3.23
426.487	3.21
426.694	3.24
426.901	3.23
427.108	3.24
427.315	3.2
427.523	3.27
427.73	3.19
427.937	3.02
428.144	3.15
428.351	3.16
428.558	3.25
428.765	3.33
428.972	3.45
429.179	3.54
429.386	3.57
429.593	3.44
429.8	3.38
430.007	3.28
430.214	3.17
430.421	3.23
430.628	3.21
430.835	3.25
431.042	3.39
431.249	3.36
431.456	3.32
431.662	3.45
431.869	3.58
432.076	3.45
432.283	3.51
432.49	3.5
432.697	3.44
432.903	3.39
433.11	3.65
433.317	3.57
433.524	3.51
433.73	3.36
433.937	3.27
434.144	3.17
434.35	3.28
434.557	3.34
434.764	3.48
434.97	3.5
435.177	3.5
435.384	3.34
435.59	3.35
435.797	3.38
436.003	3.51
436.21	3.27
436.416	3.34
436.623	3.3
436.829	3.23
437.036	3.18
437.242	3.31
437.449	3.16
437.655	3.28
437.862	3.33
438.068	3.24
438.275	3.3
438.481	3.42
438.687	3.29
438.894	3.33
439.1	3.35
439.307	3.28
439.513	3.34
439.719	3.48
439.926	3.39
440.132	3.53
440.338	3.53
440.544	3.52
440.751	3.4
440.957	3.37
441.163	3.14
441.369	3.22
441.575	3.12
441.782	3.3
441.988	3.33
442.194	3.44
442.4	3.5
442.606	3.52
442.812	3.47
443.018	3.42
443.224	3.26
443.431	3.11
443.637	3.23
443.843	3.13
444.049	3.24
444.255	3.32
444.461	3.36
444.667	3.25
444.873	3.11
445.079	3.1
445.284	3.18
445.49	3.09
445.696	3.05
445.902	3.2
446.108	3.17
446.314	3.16
446.52	3.2
446.726	3.28
446.931	3.29
447.137	3.31
447.343	3.19
447.549	3.16
447.755	3.11
447.96	3.03
448.166	3.03
448.372	3.14
448.578	3.21
448.783	3.19
448.989	3.3
449.195	3.21
449.4	3.22
449.606	3.29
449.812	3.34
450.017	3.3
450.223	3.3
450.428	3.22
450.634	3.06
450.84	3.08
451.045	3.07
451.251	3.13
451.456	3.17
451.662	3.21
451.867	3.24
452.073	3.16
452.278	3.11
452.483	3.16
452.689	3.23
452.894	3.18
453.1	3.23
453.305	3.27
453.51	3.32
453.716	3.22
453.921	3.21
454.127	3.28
454.332	3.24
454.537	3.21
454.742	3.23
454.948	3.15
455.153	3.18
455.358	3.24
455.563	3.21
455.769	3.21
455.974	3.29
456.179	3.23
456.384	3.07
456.589	3.15
456.795	3.11
457	3.05
457.205	3
457.41	3.1
457.615	2.93
457.82	2.94
458.025	2.89
458.23	2.96
458.435	2.85
458.64	2.84
458.845	2.8
459.05	2.78
459.255	2.8
459.46	2.94
459.665	3.12
459.87	3.21
460.075	3.33
460.28	3.26
460.485	3.25
460.69	3.07
460.895	3.09
461.099	3.1
461.304	3.07
461.509	3.08
461.714	3.15
461.919	3.15
462.123	3.09
462.328	3.11
462.533	3.11
462.738	3.17
462.942	3.14
463.147	3.22
463.352	3.22
463.556	3.33
463.761	3.24
463.966	3.18
464.17	3.19
464.375	3.18
464.58	3.03
464.784	3.09
464.989	3.17
465.193	3.13
465.398	3.23
465.602	3.32
465.807	3.24
466.011	3.19
466.216	3.14
466.42	3.14
466.625	3.05
466.829	3.01
467.034	3.11
467.238	3.15
467.443	3.19
467.647	3.18
467.851	3.25
468.056	3.14
468.26	3.13
468.464	3.04
468.669	3.01
468.873	3
469.077	2.99
469.282	2.89
469.486	2.83
469.69	2.81
469.894	2.82
470.099	2.83
470.303	2.88
470.507	2.96
470.711	3.14
470.915	3.11
471.119	3.26
471.324	3.28
471.528	3.28
471.732	3.22
471.936	3.36
472.14	3.35
472.344	3.4
472.548	3.36
472.752	3.37
472.956	3.22
473.16	3.23
473.364	3.27
473.568	3.28
473.772	3.19
473.976	3.22
474.18	3.14
474.384	3.11
474.588	3.1
474.792	3.16
474.995	3.14
475.199	3.14
475.403	3.13
475.607	3.14
475.811	3.11
476.015	3.14
476.218	3.11
476.422	3.07
476.626	3.05
476.83	3.13
477.033	3.1
477.237	3.11
477.441	3.17
477.644	3.19
477.848	3.16
478.052	3.15
478.255	3.21
478.459	3.2
478.663	3.15
478.866	3.18
479.07	3.23
479.273	3.23
479.477	3.23
479.681	3.36
479.884	3.32
480.088	3.33
480.291	3.37
480.495	3.42
480.698	3.32
480.901	3.38
481.105	3.37
481.308	3.29
481.512	3.25
481.715	3.2
481.919	3.14
482.122	3.12
482.325	3.14
482.529	3.15
482.732	3.28
482.935	3.26
483.138	3.33
483.342	3.3
483.545	3.35
483.748	3.28
483.952	3.27
484.155	3.26
484.358	3.32
484.561	3.34
484.764	3.33
484.967	3.42
485.171	3.38
485.374	3.34
485.577	3.32
485.78	3.34
485.983	3.3
486.186	3.32
486.389	3.36
486.592	3.33
486.795	3.39
486.998	3.45
487.201	3.45
487.404	3.45
487.607	3.48
487.81	3.38
488.013	3.33
488.216	3.43
488.419	3.39
488.622	3.26
488.825	3.27
489.028	3.25
489.231	3.16
489.433	3.18
489.636	3.25
489.839	3.34
490.042	3.31
490.245	3.27
490.447	3.25
490.65	3.26
490.853	3.21
491.056	3.23
491.258	3.28
491.461	3.23
491.664	3.16
491.866	3.23
492.069	3.29
492.272	3.24
492.474	3.31
492.677	3.39
492.879	3.3
493.082	3.24
493.285	3.28
493.487	3.25
493.69	3.2
493.892	3.24
494.095	3.34
494.297	3.32
494.5	3.38
494.702	3.41
494.905	3.42
495.107	3.37
495.309	3.36
495.512	3.27
495.714	3.28
495.917	3.26
496.119	3.24
496.321	3.28
496.524	3.33
496.726	3.4
496.928	3.41
497.13	3.46
497.333	3.48
497.535	3.51
497.737	3.42
497.939	3.46
498.142	3.42
498.344	3.44
498.546	3.43
498.748	3.48
498.95	3.48
499.152	3.46
499.355	3.37
499.557	3.41
499.759	3.48
499.961	3.47
500.163	3.57
500.365	3.65
500.567	3.63
500.769	3.58
500.971	3.6
501.173	3.55
501.375	3.61
501.577	3.68
501.779	3.73
501.981	3.77
502.183	3.8
502.385	3.81
502.587	3.67
502.788	3.67
502.99	3.66
503.192	3.59
503.394	3.56
503.596	3.68
503.798	3.78
503.999	3.79
504.201	3.82
504.403	3.85
504.605	3.81
504.806	3.78
505.008	3.82
505.21	3.82
505.411	3.71
505.613	3.74
505.815	3.76
506.016	3.76
506.218	3.87
506.42	3.95
506.621	3.88
506.823	3.88
507.024	3.87
507.226	3.81
507.427	3.84
507.629	3.89
507.83	3.82
508.032	3.82
508.233	3.85
508.435	3.88
508.636	3.92
508.838	3.99
509.039	3.96
509.24	3.93
509.442	4
509.643	3.92
509.845	3.94
510.046	3.98
510.247	3.99
510.448	3.95
510.65	4.04
510.851	4.01
511.052	4.04
511.254	4.08
511.455	4.1
511.656	4.11
511.857	4.14
512.058	4.13
512.26	4.15
512.461	4.18
512.662	4.19
512.863	4.11
513.064	4.13
513.265	4.12
513.466	4.16
513.667	4.16
513.868	4.21
514.069	4.24
514.27	4.16
514.471	4.12
514.672	4.12
514.873	4.15
515.074	4.19
515.275	4.29
515.476	4.27
515.677	4.28
515.878	4.29
516.079	4.28
516.28	4.23
516.481	4.21
516.682	4.29
516.882	4.37
517.083	4.35
517.284	4.41
517.485	4.44
517.686	4.37
517.886	4.38
518.087	4.37
518.288	4.38
518.488	4.36
518.689	4.42
518.89	4.38
519.091	4.47
519.291	4.51
519.492	4.55
519.692	4.58
519.893	4.65
520.094	4.54
520.294	4.54
520.495	4.57
520.695	4.53
520.896	4.44
521.096	4.51
521.297	4.51
521.497	4.55
521.698	4.48
521.898	4.5
522.099	4.55
522.299	4.53
522.499	4.51
522.7	4.54
522.9	4.6
523.101	4.56
523.301	4.59
523.501	4.61
523.702	4.65
523.902	4.65
524.102	4.68
524.302	4.68
524.503	4.74
524.703	4.76
524.903	4.8
525.103	4.84
525.304	4.86
525.504	4.83
525.704	4.82
525.904	4.78
526.104	4.72
526.304	4.74
526.504	4.7
526.705	4.69
526.905	4.73
527.105	4.75
527.305	4.75
527.505	4.79
527.705	4.85
527.905	4.87
528.105	4.89
528.305	4.89
528.505	4.89
528.705	4.91
528.905	4.91
529.105	4.94
529.304	4.96
529.504	4.98
529.704	4.97
529.904	4.96
530.104	4.95
530.304	4.95
530.503	4.98
530.703	4.96
530.903	4.98
531.103	5.02
531.303	5.04
531.502	5.09
531.702	5.09
531.902	5.08
532.101	5.08
532.301	5.12
532.501	5.02
532.7	5.1
532.9	5.05
533.1	5.03
533.299	5.04
533.499	5.16
533.698	5.12
533.898	5.21
534.097	5.28
534.297	5.25
534.496	5.25
534.696	5.3
534.895	5.29
535.095	5.31
535.294	5.33
535.494	5.32
535.693	5.4
535.892	5.43
536.092	5.42
536.291	5.38
536.491	5.41
536.69	5.36
536.889	5.36
537.088	5.36
537.288	5.42
537.487	5.4
537.686	5.42
537.886	5.49
538.085	5.52
538.284	5.56
538.483	5.6
538.682	5.63
538.882	5.57
539.081	5.55
539.28	5.56
539.479	5.57
539.678	5.61
539.877	5.68
540.076	5.73
540.275	5.75
540.474	5.78
540.673	5.75
540.872	5.75
541.071	5.74
541.27	5.78
541.469	5.77
541.668	5.8
541.867	5.86
542.066	5.9
542.265	5.94
542.464	6.01
542.663	6.1
542.862	6.1
543.06	6.1
543.259	6.11
543.458	6.1
543.657	6.1
543.856	6.16
544.054	6.25
544.253	6.22
544.452	6.28
544.651	6.31
544.849	6.25
545.048	6.29
545.247	6.37
545.445	6.33
545.644	6.31
545.843	6.44
546.041	6.43
546.24	6.44
546.438	6.52
546.637	6.6
546.836	6.58
547.034	6.64
547.233	6.74
547.431	6.72
547.63	6.74
547.828	6.8
548.027	6.84
548.225	6.79
548.423	6.9
548.622	6.96
548.82	7.02
549.019	7.04
549.217	7.06
549.415	7.1
549.614	7.12
549.812	7.11
550.01	7.14
550.209	7.25
550.407	7.24
550.605	7.31
550.803	7.36
551.002	7.4
551.2	7.43
551.398	7.59
551.596	7.62
551.794	7.69
551.993	7.74
552.191	7.76
552.389	7.74
552.587	7.78
552.785	7.81
552.983	7.89
553.181	8
553.379	8.06
553.577	8.15
553.775	8.23
553.973	8.26
554.171	8.29
554.369	8.38
554.567	8.38
554.765	8.42
554.963	8.5
555.161	8.57
555.359	8.63
555.557	8.76
555.755	8.83
555.952	8.91
556.15	8.95
556.348	8.95
556.546	9.04
556.744	9.13
556.941	9.14
557.139	9.24
557.337	9.44
557.535	9.44
557.732	9.41
557.93	9.55
558.128	9.6
558.325	9.62
558.523	9.69
558.721	9.84
558.918	9.88
559.116	10.05
559.313	10.08
559.511	10.16
559.708	10.24
559.906	10.29
560.104	10.25
560.301	10.31
560.498	10.39
560.696	10.42
560.893	10.48
561.091	10.59
561.288	10.75
561.486	10.78
561.683	10.91
561.88	11.04
562.078	11.14
562.275	11.11
562.473	11.22
562.67	11.28
562.867	11.36
563.064	11.37
563.262	11.47
563.459	11.53
563.656	11.58
563.853	11.6
564.051	11.64
564.248	11.7
564.445	11.79
564.642	11.87
564.839	12.01
565.036	12.18
565.234	12.2
565.431	12.35
565.628	12.38
565.825	12.31
566.022	12.41
566.219	12.51
566.416	12.48
566.613	12.52
566.81	12.68
567.007	12.63
567.204	12.74
567.401	12.88
567.598	13
567.795	13.03
567.991	13.13
568.188	13.24
568.385	13.23
568.582	13.24
568.779	13.28
568.976	13.35
569.172	13.36
569.369	13.4
569.566	13.53
569.763	13.48
569.96	13.53
570.156	13.55
570.353	13.58
570.55	13.54
570.746	13.7
570.943	13.77
571.14	13.78
571.336	13.84
571.533	13.84
571.729	13.87
571.926	13.83
572.123	13.87
572.319	13.95
572.516	14.05
572.712	14.09
572.909	14.12
573.105	14.19
573.302	14.14
573.498	14.16
573.695	14.14
573.891	14.09
574.087	13.97
574.284	14.06
574.48	14.11
574.677	14.17
574.873	14.26
575.069	14.35
575.266	14.39
575.462	14.39
575.658	14.39
575.854	14.42
576.051	14.43
576.247	14.36
576.443	14.33
576.639	14.36
576.835	14.31
577.032	14.31
577.228	14.32
577.424	14.35
577.62	14.26
577.816	14.31
578.012	14.33
578.208	14.37
578.404	14.42
578.6	14.47
578.796	14.42
578.993	14.4
579.189	14.32
579.384	14.29
579.58	14.25
579.776	14.29
579.972	14.32
580.168	14.33
580.364	14.22
580.56	14.28
580.756	14.25
580.952	14.19
581.148	14.23
581.343	14.29
581.539	14.23
581.735	14.22
581.931	14.27
582.127	14.23
582.322	14.21
582.518	14.13
582.714	14.11
582.909	14.07
583.105	14.02
583.301	13.99
583.496	13.97
583.692	13.99
583.888	13.93
584.083	13.89
584.279	13.84
584.474	13.9
584.67	13.77
584.866	13.78
585.061	13.86
585.257	13.84
585.452	13.85
585.648	13.92
585.843	13.88
586.039	13.86
586.234	13.81
586.429	13.73
586.625	13.66
586.82	13.62
587.015	13.57
587.211	13.54
587.406	13.6
587.601	13.55
587.797	13.52
587.992	13.49
588.187	13.53
588.383	13.46
588.578	13.45
588.773	13.48
588.968	13.55
589.163	13.58
589.359	13.55
589.554	13.55
589.749	13.57
589.944	13.5
590.139	13.55
590.334	13.6
590.529	13.67
590.724	13.69
590.919	13.72
591.114	13.65
591.309	13.66
591.504	13.63
591.699	13.58
591.894	13.53
592.089	13.54
592.284	13.56
592.479	13.56
592.674	13.55
592.869	13.55
593.064	13.63
593.259	13.69
593.454	13.69
593.648	13.78
593.843	13.83
594.038	13.89
594.233	13.85
594.428	13.95
594.622	14.02
594.817	14.12
595.012	13.98
595.206	14.01
595.401	14.14
595.596	14.13
595.79	14.1
595.985	14.17
596.18	14.22
596.374	14.24
596.569	14.27
596.763	14.37
596.958	14.51
597.153	14.55
597.347	14.49
597.542	14.56
597.736	14.53
597.931	14.48
598.125	14.6
598.319	14.6
598.514	14.67
598.708	14.73
598.903	14.82
599.097	14.78
599.291	14.81
599.486	14.81
599.68	14.86
599.874	14.89
600.069	14.92
600.263	15.06
600.457	15.06
600.651	15.05
600.846	15.05
601.04	15.04
601.234	15
601.428	15
601.622	15.02
601.817	14.96
602.011	14.96
602.205	14.9
602.399	14.9
602.593	14.99
602.787	15.07
602.981	15.12
603.175	15.27
603.369	15.25
603.563	15.23
603.757	15.2
603.951	15.11
604.145	14.91
604.339	14.95
604.533	14.89
604.727	14.91
604.921	14.94
605.115	15.04
605.309	15.01
605.502	15.08
605.696	15.08
605.89	15.05
606.084	15.06
606.278	15
606.471	14.88
606.665	14.78
606.859	14.81
607.053	14.69
607.246	14.64
607.44	14.6
607.634	14.68
607.827	14.58
608.021	14.49
608.214	14.43
608.408	14.38
608.602	14.23
608.795	14.2
608.989	14.23
609.182	14.29
609.376	14.24
609.569	14.21
609.763	14.12
609.956	14.08
610.15	14.02
610.343	13.93
610.537	13.9
610.73	13.83
610.923	13.83
611.117	13.83
611.31	13.79
611.504	13.81
611.697	13.77
611.89	13.69
612.083	13.57
612.277	13.54
612.47	13.4
612.663	13.41
612.856	13.29
613.05	13.19
613.243	13.15
613.436	13.09
613.629	13.01
613.822	13.05
614.015	13
614.209	12.96
614.402	12.89
614.595	12.88
614.788	12.75
614.981	12.72
615.174	12.6
615.367	12.67
615.56	12.5
615.753	12.44
615.946	12.36
616.139	12.34
616.332	12.25
616.525	12.26
616.718	12.26
616.911	12.31
617.103	12.33
617.296	12.28
617.489	12.3
617.682	12.28
617.875	12.17
618.067	12.07
618.26	12.07
618.453	11.91
618.646	11.88
618.838	11.79
619.031	11.82
619.224	11.75
619.417	11.84
619.609	11.8
619.802	11.85
619.994	11.74
620.187	11.72
620.38	11.61
620.572	11.58
620.765	11.53
620.957	11.6
621.15	11.6
621.342	11.54
621.535	11.55
621.727	11.53
621.92	11.45
622.112	11.41
622.305	11.5
622.497	11.38
622.69	11.35
622.882	11.37
623.074	11.39
623.267	11.29
623.459	11.3
623.651	11.23
623.844	11.2
624.036	11.18
624.228	11.27
624.42	11.26
624.613	11.26
624.805	11.19
624.997	11.12
625.189	11.06
625.381	11.08
625.574	11.07
625.766	11.06
625.958	11.06
626.15	11.01
626.342	10.95
626.534	10.96
626.726	10.95
626.918	10.81
627.11	10.79
627.302	10.8
627.494	10.81
627.686	10.83
627.878	10.92
628.07	10.86
628.262	10.78
628.454	10.69
628.646	10.63
628.838	10.71
629.029	10.73
629.221	10.72
629.413	10.72
629.605	10.68
629.797	10.53
629.989	10.55
630.18	10.53
630.372	10.48
630.564	10.52
630.755	10.52
630.947	10.39
631.139	10.41
631.33	10.45
631.522	10.35
631.714	10.26
631.905	10.29
632.097	10.2
632.289	10.09
632.48	10.02
632.672	9.97
632.863	9.88
633.055	9.85
633.246	9.91
633.438	9.98
633.629	9.98
633.821	10
634.012	9.98
634.203	9.94
634.395	9.83
634.586	9.95
634.777	9.91
634.969	9.89
635.16	9.9
635.351	9.88
635.543	9.75
635.734	9.79
635.925	9.74
636.117	9.69
636.308	9.67
636.499	9.56
636.69	9.49
636.881	9.52
637.073	9.51
637.264	9.53
637.455	9.49
637.646	9.46
637.837	9.41
638.028	9.34
638.219	9.33
638.41	9.39
638.601	9.37
638.792	9.3
638.983	9.3
639.174	9.16
639.365	9.14
639.556	9.11
639.747	9.09
639.938	9
640.129	9.02
640.32	8.96
640.511	8.94
640.701	8.94
640.892	8.93
641.083	8.88
641.274	8.81
641.465	8.74
641.655	8.75
641.846	8.76
642.037	8.76
642.228	8.8
642.418	8.75
642.609	8.63
642.8	8.53
642.99	8.52
643.181	8.44
643.372	8.49
643.562	8.43
643.753	8.5
643.943	8.52
644.134	8.5
644.324	8.46
644.515	8.5
644.705	8.41
644.896	8.3
645.086	8.28
645.277	8.25
645.467	8.21
645.658	8.18
645.848	8.19
646.038	8.14
646.229	8.21
646.419	8.25
646.61	8.28
646.8	8.25
646.99	8.25
647.18	8.08
647.371	7.99
647.561	7.85
647.751	7.83
647.941	7.76
648.132	7.85
648.322	7.83
648.512	7.92
648.702	7.94
648.892	8.01
649.082	7.98
649.272	7.97
649.462	7.96
649.653	7.9
649.843	7.8
650.033	7.71
650.223	7.65
650.413	7.57
650.603	7.6
650.793	7.57
650.983	7.64
651.172	7.69
651.362	7.69
651.552	7.62
651.742	7.65
651.932	7.61
652.122	7.66
652.312	7.68
652.502	7.61
652.691	7.62
652.881	7.59
653.071	7.57
653.261	7.54
653.45	7.61
653.64	7.66
653.83	7.66
654.019	7.57
654.209	7.5
654.399	7.47
654.588	7.28
654.778	7.16
654.968	7.08
655.157	7.06
655.347	6.99
655.536	7.04
655.726	7.02
655.915	7.03
656.105	6.99
656.294	6.9
656.484	6.85
656.673	6.87
656.863	6.77
657.052	6.7
657.241	6.59
657.431	6.46
657.62	6.31
657.809	6.23
657.999	6.18
658.188	6.21
658.377	6.2
658.567	6.17
658.756	6.08
658.945	6.04
659.134	5.98
659.324	6.02
659.513	5.97
659.702	5.93
659.891	5.83
660.08	5.67
660.269	5.41
660.458	5.27
660.648	5.27
660.837	5.23
661.026	5.28
661.215	5.25
661.404	5.28
661.593	5.12
661.782	5.02
661.971	4.92
662.16	4.99
662.349	4.84
662.538	4.89
662.726	4.9
662.915	4.91
663.104	4.76
663.293	4.75
663.482	4.64
663.671	4.56
663.86	4.44
664.048	4.45
664.237	4.43
664.426	4.43
664.615	4.36
664.803	4.31
664.992	4.25
665.181	4.3
665.369	4.3
665.558	4.33
665.747	4.41
665.935	4.41
666.124	4.39
666.312	4.32
666.501	4.27
666.69	4.28
666.878	4.27
667.067	4.1
667.255	4.17
667.444	4.29
667.632	4.42
667.82	4.48
668.009	4.64
668.197	4.74
668.386	4.71
668.574	4.6
668.762	4.55
668.951	4.59
669.139	4.65
669.327	4.56
669.516	4.61
669.704	4.55
669.892	4.64
670.08	4.55
670.269	4.55
670.457	4.46
670.645	4.55
670.833	4.45
671.021	4.51
671.21	4.49
671.398	4.54
671.586	4.49
671.774	4.59
671.962	4.6
672.15	4.86
672.338	4.98
672.526	5.26
672.714	5.31
672.902	5.33
673.09	5.36
673.278	5.41
673.466	5.42
673.654	5.6
673.842	5.68
674.03	5.75
674.218	5.78
674.405	5.79
674.593	5.66
674.781	5.77
674.969	5.67
675.157	5.7
675.344	5.8
675.532	5.94
675.72	6.08
675.908	6.23
676.095	6.2
676.283	6.24
676.471	6.28
676.658	6.32
676.846	6.35
677.033	6.59
677.221	6.69
677.409	6.76
677.596	6.79
677.784	6.98
677.971	6.96
678.159	7.12
678.346	7.08
678.534	7.09
678.721	7.11
678.909	7.31
679.096	7.05
679.283	7.32
679.471	7.38
679.658	7.31
679.846	7.3
680.033	7.53
680.22	7.49
680.408	7.45
680.595	7.66
680.782	7.73
680.969	7.86
681.157	7.98
681.344	8
681.531	7.86
681.718	7.91
681.905	7.85
682.093	7.86
682.28	8.12
682.467	8.45
682.654	8.51
682.841	8.63
683.028	8.68
683.215	8.74
683.402	8.66
683.589	8.81
683.776	8.95
683.963	9.02
684.15	9.11
684.337	9.32
684.524	9.35
684.711	9.46
684.898	9.49
685.085	9.62
685.271	9.78
685.458	9.92
685.645	10.05
685.832	10.32
686.019	10.52
686.205	10.65
686.392	10.82
686.579	11.15
686.766	11.29
686.952	11.52
687.139	11.6
687.326	11.97
687.512	12.12
687.699	12.31
687.886	12.57
688.072	12.88
688.259	13.09
688.445	13.31
688.632	13.86
688.818	14.2
689.005	14.37
689.191	14.71
689.378	14.94
689.564	15.21
689.751	15.34
689.937	15.95
690.124	16.31
690.31	16.69
690.496	16.95
690.683	17.44
690.869	17.77
691.055	18.2
691.242	18.94
691.428	19.61
691.614	20.15
691.8	20.68
691.987	21.17
692.173	21.56
692.359	22.19
692.545	22.74
692.731	23.49
692.918	24.13
693.104	24.69
693.29	25.03
693.476	25.71
693.662	26.12
693.848	26.67
694.034	27.2
694.22	27.84
694.406	28.34
694.592	28.8
694.778	29.36
694.964	30.03
695.15	30.72
695.336	31.27
695.522	32.06
695.708	33.06
695.894	33.7
696.08	34.3
696.265	35.09
696.451	35.71
696.637	35.96
696.823	36.59
697.009	37.31
697.194	37.85
697.38	38.47
697.566	39.21
697.751	39.97
697.937	40.54
698.123	41.14
698.308	41.61
698.494	42.15
698.68	42.69
698.865	43.62
699.051	44.34
699.236	45.2
699.422	45.77
699.607	46.55
699.793	47.04
699.978	47.68
700.164	48.23
700.349	48.98
700.535	49.37
700.72	49.76
700.906	50.6
701.091	51.29
701.276	51.88
701.462	52.57
701.647	53.43
701.832	54
702.018	54.58
702.203	55.27
702.388	55.83
702.573	56.26
702.759	56.63
702.944	57.11
703.129	57.7
703.314	58.32
703.499	58.56
703.684	59.23
703.87	59.87
704.055	60.3
704.24	60.69
704.425	61.36
704.61	61.86
704.795	62.2
704.98	62.7
705.165	63.48
705.35	64.26
705.535	64.92
705.72	65.61
705.905	66.18
706.09	66.63
706.275	66.86
706.459	67.35
706.644	67.71
706.829	68.31
707.014	68.95
707.199	69.32
707.384	69.54
707.568	70.19
707.753	70.3
707.938	70.27
708.123	70.8
708.307	71.23
708.492	71.86
708.677	72.2
708.861	73.01
709.046	73.39
709.231	73.58
709.415	72.93
709.6	73.04
709.784	72.99
709.969	73.5
710.153	73.76
710.338	74.7
710.522	75.71
710.707	75.48
710.891	75.59
711.076	76
711.26	76.47
711.445	76.52
711.629	77.31
711.813	77.53
711.998	77.78
712.182	77.72
712.366	78.24
712.551	78.19
712.735	78.46
712.919	78.65
713.103	78.11
713.288	77.74
713.472	78.29
713.656	78.6
713.84	79
714.024	80.2
714.208	80.44
714.393	80.81
714.577	80.78
714.761	81.03
714.945	81.03
715.129	81.24
715.313	81.24
715.497	81.85
715.681	81.84
715.865	82.18
716.049	82.53
716.233	83.03
716.417	83.62
716.601	84.11
716.785	84.21
716.968	84.82
717.152	84.89
717.336	84.78
717.52	84.63
717.704	84.98
717.888	85.2
718.071	85.41
718.255	85.54
718.439	86.11
718.622	85.98
718.806	85.64
718.99	85.99
719.174	85.67
719.357	85.36
719.541	85.55
719.724	85.97
719.908	85.78
720.092	86.56
720.275	87.33
720.459	87.77
720.642	88.08
720.826	88.57
721.009	88.94
721.193	89.06
721.376	89.45
721.559	89.75
721.743	89.83
721.926	89.6
722.11	89.48
722.293	88.93
722.476	89.2
722.66	89.33
722.843	89.28
723.026	89.72
723.21	90.52
723.393	90.07
723.576	90.12
723.759	89.89
723.942	89.74
724.126	89.92
724.309	90.89
724.492	91.36
724.675	92.23
724.858	92.6
725.041	92.4
725.224	92.74
725.407	92.52
725.59	92.64
725.774	92.95
725.957	93.9
726.14	93.33
726.322	94
726.505	94.31
726.688	94.49
726.871	93.9
727.054	95.06
727.237	95.27
727.42	95.27
727.603	95.09
727.786	94.91
727.968	94.2
728.151	93.46
728.334	93.27
728.517	93.37
728.699	94.23
728.882	94.48
729.065	95.06
729.248	95.36
729.43	95.63
729.613	95.71
729.796	95.05
729.978	95.85
730.161	96.05
730.343	96.4
730.526	97.86
730.708	98.63
730.891	98.59
731.073	99.07
731.256	99.6
731.438	98.13
731.621	98.51
731.803	98.87
731.986	98.92
732.168	98.59
732.35	98.71
732.533	98.11
732.715	97.36
732.898	97.19
733.08	97.76
733.262	97.23
733.444	97.76
733.627	98.13
733.809	97.97
733.991	97.97
734.173	99.47
734.355	100.08
734.538	100.32
734.72	101.52
734.902	102.12
735.084	101.96
735.266	101.48
735.448	101.49
735.63	102.13
735.812	101.4
735.994	100.41
736.176	100.64
736.358	101.7
736.54	100.08
736.722	100.35
736.904	101.49
737.086	101.57
737.268	100.24
737.45	101.12
737.632	101.1
737.814	101
737.995	101.06
738.177	101.29
738.359	101.66
738.541	101.89
738.723	102.09
738.904	102.69
739.086	102.92
739.268	102.73
739.449	102.47
739.631	102.68
739.813	102.22
739.994	102.91
740.176	102.73
740.358	103.27
740.539	102.61
740.721	103.24
740.902	102.82
741.084	102.84
741.265	101.95
741.447	102.72
741.628	102.26
741.81	101.7
741.991	101.91
742.172	102.86
742.354	103.35
742.535	104
742.717	105.66
742.898	106.16
743.079	105.38
743.261	104.06
743.442	104
743.623	102.8
743.804	101.86
743.986	102.34
744.167	104.1
744.348	102.45
744.529	103.19
744.71	104
744.891	104.82
745.073	103.34
745.254	105.11
745.435	104.35
745.616	103.25
745.797	101.73
745.978	101.72
746.159	102.09
746.34	102.81
746.521	103.4
746.702	104.14
746.883	103.82
747.064	102.24
747.245	102.52
747.426	102.92
747.606	102.48
747.787	103.61
747.968	104.5
748.149	104.2
748.33	102.92
748.51	104.45
748.691	103.43
748.872	103.14
749.053	102.16
749.233	103.95
749.414	102.13
749.595	103.97
749.775	104.9
749.956	106.63
750.137	104.89
750.317	104.68
750.498	104.2
750.678	103.99
750.859	103.11
751.04	104.06
751.22	104.75
751.4	104.74
751.581	104.64
751.761	104.73
751.942	104.61
752.122	104.83
752.303	103.49
752.483	102.54
752.663	101.49
752.844	101.39
753.024	100.18
753.204	101.15
753.385	100.97
753.565	102.61
753.745	103.1
753.925	104.48
754.106	104.54
754.286	104.98
754.466	103.82
754.646	104.08
754.826	102.05
755.006	102.33
755.187	102.16
755.367	101.78
755.547	100.3
755.727	101.6
755.907	100.31
756.087	100.65
756.267	101.73
756.447	103.33
756.627	104.12
756.807	103.96
756.987	103.79
757.167	103.26
757.346	102.35
757.526	100.34
757.706	100.64
757.886	100.49
758.066	101.02
758.246	100.09
758.425	101.72
758.605	102.93
758.785	104.28
758.965	104.23
759.144	107.9
759.324	107.71
759.504	106.93
759.683	105.79
759.863	105.27
760.043	102.36
760.222	102.3
760.402	101.89
760.581	102.76
760.761	102.13
760.94	101.28
761.12	100.79
761.299	99.66
761.479	99.1
761.658	98.41
761.838	99.69
762.017	101.25
762.197	100.98
762.376	100.24
762.555	100.18
762.735	99.56
762.914	97.22
763.093	98.22
763.273	98.54
763.452	99.45
763.631	98.42
763.81	99.53
763.99	100.43
764.169	101.47
764.348	102.43
764.527	103.39
764.706	101.87
764.885	101.17
765.064	100.03
765.243	101.27
765.423	101.1
765.602	101.76
765.781	102.75
765.96	102.68
766.139	99.88
766.318	99.4
766.497	100.88
766.676	101.07
766.854	100.7
767.033	100.94
767.212	100.74
767.391	99.27
767.57	99.75
767.749	97.03
767.928	97.22
768.106	98.64
768.285	98.88
768.464	96.4
768.643	98.77
768.821	98.76
769	99.57
769.179	100.93
769.357	100.95
769.536	99.79
769.715	99.8
769.893	100.5
770.072	98.69
770.25	100.51
770.429	101.05
770.607	99.78
770.786	98.84
770.964	95.92
771.143	93.11
771.321	94.53
771.5	98.11
771.678	96.56
771.857	98.67
772.035	102.82
772.213	100.82
772.392	97.6
772.57	98.76
772.748	99.86
772.927	97.38
773.105	98.44
773.283	98.75
773.461	97.35
773.64	96.45
773.818	96.79
773.996	94.76
774.174	95.56
774.352	94.63
774.531	97.22
774.709	95.52
774.887	99.83
775.065	99.42
775.243	100.67
775.421	97.86
775.599	97.43
775.777	95.38
775.955	93.29
776.133	94.8
776.311	94.58
776.489	96.29
776.667	97.59
776.844	100.49
777.022	99.37
777.2	102.18
777.378	101.25
777.556	99.41
777.734	97.47
777.911	95.06
778.089	93.49
778.267	94.4
778.445	92.5
778.622	92.51
778.8	96.87
778.978	95.95
779.155	96.25
779.333	96.98
779.511	95.42
779.688	89.71
779.866	89.85
780.043	89.84
780.221	90.21
780.398	91.94
780.576	95.22
780.753	95.59
780.931	92.5
781.108	94.37
781.286	93.58
781.463	92.65
781.64	95
781.818	96.37
781.995	93.89
782.172	94.04
782.35	94.14
782.527	93.44
782.704	92.97
782.882	95.3
783.059	94.3
783.236	93.32
783.413	92.07
783.59	91.16
783.768	88.6
783.945	91.2
784.122	93.09
784.299	93.12
784.476	94.66
784.653	96.99
784.83	94.76
785.007	93.37
785.184	94.49
785.361	94.07
785.538	93.32
785.715	92.72
785.892	91.64
786.069	90.26
786.246	88.92
786.423	87.99
786.6	92.85
786.776	93.65
786.953	93.54
787.13	96.48
787.307	96.68
787.484	95.63
787.66	96.52
787.837	97.06
788.014	94.27
788.191	93.51
788.367	92.25
788.544	94.12
788.721	91.33
788.897	96.36
789.074	95.13
789.25	91.23
789.427	89.08
789.603	89.6
789.78	86.94
789.956	89.39
790.133	91.29
790.309	91.52
790.486	90.41
790.662	90.83
790.839	90.64
791.015	87.7
791.192	86.27
791.368	88.68
791.544	84.4
791.721	86
791.897	87.49
792.073	88.98
792.249	84.25
792.426	90.11
792.602	88.24
792.778	87.32
792.954	83.77
793.13	87.92
793.307	86.43
793.483	83.76
793.659	83.67
793.835	86.56
794.011	91.34
794.187	87.69
794.363	91.01
794.539	91.35
794.715	89.42
794.891	86.62
795.067	85.45
795.243	84.41
795.419	86.81
795.595	90.84
795.771	93.54
795.947	98.35
796.122	95.11
796.298	96.45
796.474	95.89
796.65	92.08
796.826	88.99
797.001	93.72
797.177	88.49
797.353	84.41
797.529	83.34
797.704	86.14
797.88	84.53
798.056	87.89
798.231	91.81
798.407	92.29
798.582	91.01
798.758	92.55
798.934	98.74
799.109	92.42
799.285	94.01
799.46	95.29
799.636	90.84
799.811	79.66
799.986	84.89
800.162	81.26
800.337	82.12
800.513	81.13
800.688	86.24
800.863	82.77
801.039	81.02
801.214	81.16
801.389	81.6
801.565	80.96
801.74	90.2
801.915	94.38
802.09	89.47
802.265	90.81
802.441	90.65
802.616	79.52
802.791	78.23
802.966	81.12
803.141	81.54
803.316	80.16
803.491	84.73
803.666	88.44
803.841	86.24
804.016	87.46
804.191	87.31
804.366	95.1
804.541	94.19
804.716	94.76
804.891	99.82
805.066	106.46
805.241	91.41
805.416	83.69
805.591	80.66
805.765	75.57
805.94	74.37
806.115	80.37
806.29	86.08
806.464	93.27
806.639	91.05
806.814	82.94
806.989	82.01
807.163	77.74
807.338	72.44
807.512	75.37
807.687	77.08
807.862	71.77
808.036	70.71
808.211	75.65
808.385	70.35
808.56	72.59
808.734	80.3
808.909	81.57
809.083	77.21
809.258	79.43
809.432	81
809.606	71.31
809.781	64.73
809.955	63.66
810.13	65.5
810.304	61.42
810.478	68.22
810.652	75.4
810.827	77.48
811.001	77.94
811.175	82.46
811.349	84.01
811.524	78.11
811.698	73.5
811.872	77.38
812.046	73.22
812.22	68.95
812.394	79.61
812.568	89.43
812.742	88.67
812.916	84.65
813.09	83
813.264	84.78
813.438	87.58
813.612	89.34
813.786	89.16
813.96	95.64
814.134	85.88
814.308	83.87
814.482	78.04
814.656	85.11
814.83	80.16
815.003	86.88
815.177	81.75
815.351	85.61
815.525	81.52
815.698	87.12
815.872	76.64
816.046	79.08
816.219	81.5
816.393	91.7
816.567	86.11
816.74	91.09
816.914	87.33
817.088	83.32
817.261	74.41
817.435	78.05
817.608	77.66
817.782	77.39
817.955	86.5
818.129	96.7
818.302	91.36
818.475	99.26
818.649	95.42
818.822	82.84
818.996	78.12
819.169	82.63
819.342	78.42
819.516	88.91
819.689	92.22
819.862	97.82
820.035	89.64
820.209	83.82
820.382	75.19
820.555	79.07
820.728	74.59
820.901	75.33
821.075	79.26
821.248	94.97
821.421	76.35
821.594	74.21
821.767	85.18
821.94	90.94
822.113	69.8
822.286	77.37
822.459	87.51
822.632	80.85
822.805	76.91
822.978	81.89
823.151	81.31
823.324	78.1
823.496	80.1
823.669	76.02
823.842	80.03
824.015	84.93
824.188	82.62
824.361	92.2
824.533	101.19
824.706	93.98
824.879	91.8
825.051	82.12
825.224	72.64
825.397	67.53
825.569	73.37
825.742	63.84
825.915	63.54
826.087	61.83
826.26	57.92
826.432	56.52
826.605	63.3
826.777	53.14
826.95	60.78
827.122	59.44
827.295	50.21
827.467	49.67
827.64	46.62
827.812	41.22
827.984	52.4
828.157	60.02
828.329	68.42
828.501	81.82
828.674	67.85
828.846	75.2
829.018	80.55
829.19	79.4
829.363	78.26
829.535	94.9
829.707	88.81
829.879	88.15
830.051	75.83
830.223	85.16
830.395	86.25
830.568	74.57
830.74	75.68
830.912	81.15
831.084	83.29
831.256	66.29
831.428	73.43
831.6	65.4
831.772	73.31
831.943	66.34
832.115	80.5
832.287	79.88
832.459	80.77
832.631	69.79
832.803	82.5
832.975	95.53
833.146	84.23
833.318	86.31
833.49	111.17
833.662	95.5
833.833	76.65
834.005	74.16
834.177	74.22
834.348	63.17
834.52	55.53
834.692	56.86
834.863	70.02
835.035	77.77
835.206	74.13
835.378	75.29
835.549	91.94
835.721	89.78
835.892	79.59
836.064	74.18
836.235	100.38
836.407	78.47
836.578	71.9
836.749	77.36
836.921	70.95
837.092	55.15
837.264	60.67
837.435	66.46
837.606	58.72
837.777	62.82
837.949	58.05
838.12	57.63
838.291	54.46
838.462	81.27
838.633	103.53
838.805	97.66
838.976	101.03
839.147	113.55
839.318	84.67
839.489	77.81
839.66	91.68
839.831	90.31
840.002	70.35
840.173	73.46
840.344	79.48
840.515	83.2
840.686	85.54
840.857	91.26
841.028	100.74
841.199	88.23
841.369	69.21
841.54	70.82
841.711	72.87
841.882	64.57
842.053	66.71
842.223	86.52
842.394	79.21
842.565	68.64
842.736	72.39
842.906	95.28
843.077	100.12
843.248	127.9
843.418	148.18
843.589	82.32
843.759	75.05
843.93	67.36
844.101	79.92
844.271	71.82
844.442	111.82
844.612	116.53
844.783	116
844.953	79.91
845.123	70.73
845.294	55.9
845.464	63.5
845.635	72.49
845.805	101.96
845.975	112.27
846.146	122.38
846.316	83.12
846.486	91.25
846.656	60.85
846.827	42.28
846.997	29.62
847.167	38
847.337	37.24
847.507	24.68
847.677	38.6
847.848	38.6
848.018	66.02
848.188	47.91
848.358	93.62
848.528	88.87
848.698	126.06
848.868	96.85
849.038	116.8
849.208	82.76
849.378	98.02
849.548	72.14
849.718	106.99
849.887	90.58
850.057	97.97
850.227	99.04
850.397	96.24
850.567	61.56
850.737	63.13
850.906	55.73
851.076	45.73
851.246	48.01
851.415	60.38
851.585	72.28
851.755	71.46
851.924	80.75
852.094	81.81
852.264	73.63
852.433	49.74
852.603	51.16
852.772	44.94
852.942	49.54
853.111	58.42
853.281	77.04
853.45	78.23
853.62	55.11
853.789	45.28
853.959	64.76
854.128	71.63
854.297	85.45
854.467	147.73
854.636	148.61
854.805	114.63
854.975	118.77
855.144	84.41
855.313	79.26
855.482	83.39
855.652	81.48
855.821	105.4
855.99	104.98
856.159	84.91
856.328	74.11
856.497	72.43
856.667	56.9
856.836	69.87
857.005	99.31
857.174	72.18
857.343	70.55
857.512	58.27
857.681	15.05
857.85	7.17
858.019	59.72
858.188	40.94
858.356	51.2
858.525	88.87
858.694	89.99
858.863	88.16
859.032	87.06
859.201	83.26
859.369	92.18
859.538	75.31
859.707	66.76
859.876	74.04
860.044	68.2
860.213	47.98
860.382	76.31
860.55	82.75
860.719	82.8
860.888	120.8
861.056	118.62
861.225	114.48
861.393	102.98
861.562	105.64
861.73	111.36
861.899	87.08
862.067	83.95
862.236	67.57
862.404	58.57
862.572	43.84
862.741	54.92
862.909	49.98
863.078	59.89
863.246	66
863.414	75.64
863.582	68.26
863.751	46.01
863.919	45.56
864.087	43.16
864.255	52.18
864.424	56.83
864.592	66.01
864.76	78.15
864.928	70.27
865.096	50.27
865.264	64.2
865.432	72.3
865.6	68.16
865.768	54.53
865.936	53.57
866.104	29.57
866.272	20.85
866.44	8.43
866.608	22
866.776	56.35
866.944	76.46
867.112	90.99
867.28	105.96
867.448	109.24
867.615	91.21
867.783	96.94
867.951	78.81
868.119	81.76
868.286	94.22
868.454	95.32
868.622	78.34
868.789	96.14
868.957	73.62
869.125	64.31
869.292	59.88
869.46	59.81
869.627	58.42
869.795	83.11
869.963	78.46
870.13	102.41
870.298	102.76
870.465	107.08
870.632	74.28
870.8	67.51
870.967	75.79
871.135	73.41
871.302	8.04
871.469	54.4
871.637	75.53
871.804	40.54
871.971	45.78
872.139	94.16
872.306	76.43
872.473	94.47
872.64	94.05
872.807	102.56
872.975	69.85
873.142	83.14
873.309	57
873.476	64.55
873.643	45.23
873.81	75.61
873.977	54.1
874.144	49.71
874.311	74.05
874.478	82.29
874.645	69.09
874.812	100.29
874.979	111.71
875.146	58.94
875.313	40.05
875.48	58.16
875.647	47.32
875.813	40.26
875.98	72.71
876.147	117.29
876.314	88.01
876.481	75.16
876.647	73.19
876.814	90.27
876.981	84.41
877.147	94.53
877.314	83.72
877.481	105.07
877.647	77.08
877.814	47.58
877.98	50.81
878.147	22.14
878.314	-4.79
878.48	30.73
878.647	1.62
878.813	1.65
878.979	39.69
879.146	30.01
879.312	0.31
879.479	73.36
879.645	70.43
879.811	59.63
879.978	46.39
880.144	75.63
880.31	55.49
880.477	65.34
880.643	71.34
880.809	101.23
880.975	85.66
881.142	164.34
881.308	104.57
881.474	174.6
881.64	185.3
881.806	172.24
881.972	93.23
882.138	118.25
882.304	83.95
882.47	34.12
882.636	41.22
882.802	22.69
882.968	16
883.134	5.94
883.3	20.94
883.466	41.91
883.632	94.55
883.798	123.54
883.964	246.74
884.129	410.21
884.295	185.35
884.461	127.36
884.627	87.17
884.793	71.66
884.958	60.97
885.124	70.79
885.29	47.6
885.455	61.26
885.621	39
885.787	33.89
885.952	25.68
886.118	41.47
886.283	20.3
886.449	50.52
886.614	43.83
886.78	55.96
886.945	67.77
887.111	76.58
887.276	70.55
887.442	71.36
887.607	77.37
887.773	62.34
887.938	81.92
888.103	59.88
888.269	103.71
888.434	78.91
888.599	68.72
888.764	47.46
888.93	57.89
889.095	37.69
889.26	29.71
889.425	50.3
889.59	89.99
889.756	85.41
889.921	83.98
890.086	87.17
890.251	67.36
890.416	35.83
890.581	22.41
890.746	55.07
890.911	88.33
891.076	109.93
891.241	116.3
891.406	133.49
891.571	90.11
891.736	44.24
891.901	52.34
892.065	69.38
892.23	58.66
892.395	70.99
892.56	49.53
892.725	38.86
892.889	-20.33
893.054	-2.27
893.219	10.76
893.384	40.42
893.548	30.08
893.713	38.75
893.878	24.22
