Data from Ofav_PP_Phys_9JQ4_Reflection_1.txt Node
Date: Tue Jul 27 19:04:58 EDT 2021
User: USUARIO
Spectrometer: FLMT01687
Trigger mode: 0
Integration Time (sec): 8.500000E-1
Scans to average: 2
Electric dark correction enabled: true
Nonlinearity correction enabled: false
Boxcar width: 2
XAxis mode: Wavelengths
Number of Pixels in Spectrum: 3648
>>>>>Begin Spectral Data<<<<<
179.494	-920.74
179.716	-276.88
179.937	-182.14
180.158	-143.62
180.38	-110.48
180.601	-31.2
180.823	-28.47
181.044	-14.48
181.265	-57.1
181.486	-93.96
181.708	-20.77
181.929	-53.5
182.15	-122.45
182.372	-424.7
182.593	-51.1
182.814	4.4
183.035	21.88
183.257	25.78
183.478	33.68
183.699	12.95
183.92	21.89
184.141	18.1
184.363	47.9
184.584	41.45
184.805	62.62
185.026	50.27
185.247	64.13
185.468	28.31
185.689	13.89
185.91	-7.29
186.132	-28.07
186.353	-14.32
186.574	-11
186.795	-6.94
187.016	-0.44
187.237	9.84
187.458	8.12
187.679	1.96
187.9	7.69
188.121	-1.08
188.342	9.87
188.563	-4.33
188.784	27.73
189.005	22.73
189.226	41.12
189.447	26.81
189.667	45.77
189.888	33.54
190.109	35.99
190.33	46.85
190.551	51.64
190.772	31.14
190.993	34.94
191.214	39.54
191.434	34.75
191.655	40.85
191.876	39.58
192.097	41.07
192.318	44.91
192.538	43.93
192.759	44.09
192.98	40.26
193.201	46.05
193.421	46.04
193.642	16.44
193.863	11.14
194.083	22.88
194.304	13.99
194.525	-1.3
194.745	-23.54
194.966	-48.25
195.187	-55.24
195.407	-24.63
195.628	-31.15
195.848	17.89
196.069	35.61
196.29	42.77
196.51	47.05
196.731	50.71
196.951	58.73
197.172	59.26
197.392	56.74
197.613	56.54
197.833	65.63
198.054	61.39
198.274	42.02
198.495	46
198.715	38.92
198.936	34.11
199.156	54.61
199.377	96.86
199.597	75.4
199.817	57.32
200.038	91.36
200.258	12.53
200.479	7.07
200.699	27.94
200.919	14.49
201.14	17.38
201.36	21.51
201.58	44.7
201.801	38.5
202.021	55.22
202.241	57.31
202.461	54.58
202.682	12.68
202.902	-16.63
203.122	-23.2
203.342	-24.51
203.563	6.67
203.783	16.36
204.003	28.93
204.223	11.19
204.443	11.58
204.663	-1.13
204.884	-4.5
205.104	-0.98
205.324	13.14
205.544	9.99
205.764	1.18
205.984	-3.09
206.204	-17.92
206.424	-10.41
206.644	23.9
206.864	31.73
207.084	37.67
207.304	45.45
207.525	43.4
207.745	24.61
207.964	46.19
208.184	48.51
208.404	37.32
208.624	30.71
208.844	62.18
209.064	43.98
209.284	21.73
209.504	26.38
209.724	22.72
209.944	-46.95
210.164	-96.56
210.384	-38.44
210.604	-39.35
210.823	13.97
211.043	14.81
211.263	19.97
211.483	31.88
211.703	30.19
211.922	20.38
212.142	31.21
212.362	19.55
212.582	-12.81
212.801	8.81
213.021	-7.51
213.241	-17.03
213.461	-26.14
213.68	-22.19
213.9	-59.54
214.12	-36.95
214.339	-13.01
214.559	9.26
214.779	3.94
214.998	9.54
215.218	18.72
215.438	22.9
215.657	29.61
215.877	32.47
216.096	32.01
216.316	24.96
216.535	13.31
216.755	8.71
216.974	26.97
217.194	37.91
217.413	38.99
217.633	48.27
217.852	30.7
218.072	4.22
218.291	0.02
218.511	-3.13
218.73	-8.54
218.95	2.67
219.169	21.71
219.389	8.41
219.608	17.04
219.827	27.35
220.047	0.41
220.266	19.93
220.485	16.59
220.705	8.68
220.924	4.1
221.143	5.62
221.363	-16.82
221.582	-5.3
221.801	-3.14
222.021	22.44
222.24	32.89
222.459	25.7
222.678	36.59
222.897	44.29
223.117	30.07
223.336	17.89
223.555	35.99
223.774	29.07
223.993	9.89
224.213	2.71
224.432	-0.39
224.651	27.49
224.87	18.25
225.089	30.9
225.308	37.54
225.527	51.25
225.746	17.48
225.965	27.17
226.184	30.56
226.404	26.51
226.623	-9.33
226.842	10.83
227.061	6.3
227.28	1.66
227.499	3.15
227.718	19.13
227.936	5
228.155	21.98
228.374	36.71
228.593	45.73
228.812	45.1
229.031	36.67
229.25	26.27
229.469	-19.92
229.688	-57.41
229.907	-67.51
230.125	-1.65
230.344	12.75
230.563	40.26
230.782	47.68
231.001	38.76
231.22	21.59
231.438	1.96
231.657	-6.84
231.876	-8.48
232.095	14.68
232.313	14.45
232.532	25.67
232.751	17.68
232.969	14.95
233.188	5.16
233.407	14.66
233.625	17.1
233.844	6.36
234.063	10.13
234.281	16.25
234.5	14.4
234.719	29.9
234.937	42.23
235.156	44.68
235.374	37.92
235.593	51.9
235.811	51.66
236.03	39.56
236.249	27.72
236.467	25.38
236.686	9.27
236.904	2.53
237.123	1.71
237.341	4.09
237.559	10.01
237.778	13.43
237.996	2.08
238.215	16.1
238.433	29.13
238.652	25.37
238.87	29.57
239.088	35.05
239.307	35.45
239.525	-4.15
239.743	-0.56
239.962	4
240.18	8
240.398	10.54
240.617	25.78
240.835	28.5
241.053	33.98
241.271	21.22
241.49	16.42
241.708	25.77
241.926	22.7
242.144	-1.74
242.363	9.57
242.581	14.95
242.799	11.74
243.017	10.46
243.235	7.83
243.453	10.23
243.672	16.25
243.89	11.37
244.108	19.36
244.326	28.64
244.544	14.27
244.762	7.75
244.98	20.44
245.198	6.4
245.416	16.5
245.634	52
245.852	59.5
246.07	59.48
246.288	53.13
246.506	36.13
246.724	19.44
246.942	20.26
247.16	7.54
247.378	6.16
247.596	8.89
247.814	-1.98
248.032	-16.32
248.25	-12.61
248.468	-4.12
248.685	3.21
248.903	22.18
249.121	37.62
249.339	36.64
249.557	25.87
249.775	-2.5
249.992	-15.19
250.21	-6.09
250.428	-11.09
250.646	-19.65
250.863	19.93
251.081	38.87
251.299	22.28
251.517	18.25
251.734	39
251.952	7.69
252.17	14.01
252.387	-15.2
252.605	0.97
252.823	3.1
253.04	32.55
253.258	23.34
253.475	34.79
253.693	43.74
253.911	45.91
254.128	25.6
254.346	25.54
254.563	19.79
254.781	-0.31
254.998	-6.12
255.216	-32.95
255.433	-20.54
255.651	2.65
255.868	4.34
256.086	-6.17
256.303	13.36
256.521	20.38
256.738	15.13
256.956	20.45
257.173	35.71
257.39	40.02
257.608	44.44
257.825	41.85
258.043	38.1
258.26	32.37
258.477	24.04
258.695	16.29
258.912	18.85
259.129	18.86
259.346	13.59
259.564	22.91
259.781	48
259.998	35.51
260.216	46.96
260.433	50.35
260.65	49.58
260.867	32.62
261.084	25.79
261.302	4.01
261.519	-2.13
261.736	-10.02
261.953	-5.2
262.17	3.5
262.387	9.9
262.604	22.9
262.822	32.73
263.039	32.02
263.256	30
263.473	38.17
263.69	36.81
263.907	-1.84
264.124	-18.81
264.341	2.77
264.558	3.88
264.775	-9.98
264.992	25.15
265.209	37.25
265.426	38.08
265.643	26.39
265.86	24.33
266.077	5.32
266.294	-3.65
266.51	6.32
266.727	13.89
266.944	14.85
267.161	15.44
267.378	8.08
267.595	9.04
267.812	18.14
268.028	16.51
268.245	29.28
268.462	27.79
268.679	19.25
268.896	8.4
269.112	4.99
269.329	10.51
269.546	20.34
269.763	16.86
269.979	28.48
270.196	44.04
270.413	37.48
270.629	29.59
270.846	45.4
271.063	30.69
271.279	26.25
271.496	19.84
271.712	21.54
271.929	-11.62
272.146	-17.98
272.362	-7.51
272.579	2.53
272.795	19.42
273.012	23.07
273.228	32.35
273.445	31.09
273.661	42.09
273.878	29.82
274.094	35.13
274.311	35.63
274.527	27.97
274.744	10.13
274.96	12.59
275.177	-13.02
275.393	-14
275.609	-1.65
275.826	9.12
276.042	14.55
276.259	52.55
276.475	38.53
276.691	32.2
276.908	29.96
277.124	21.82
277.34	18.08
277.557	13.87
277.773	19.46
277.989	28.47
278.205	35.83
278.422	26.28
278.638	21.43
278.854	35.24
279.07	34.36
279.286	21.1
279.503	27.18
279.719	46.93
279.935	35.94
280.151	29.34
280.367	30.62
280.583	30.03
280.799	27.99
281.016	31.27
281.232	30.97
281.448	39.26
281.664	25.69
281.88	14.71
282.096	18.69
282.312	27.84
282.528	15.19
282.744	20.23
282.96	11.17
283.176	-3.26
283.392	-21.56
283.608	-13.03
283.824	11.7
284.04	-12.23
284.256	-2.88
284.471	1.72
284.687	6.85
284.903	8.89
285.119	32.51
285.335	21.25
285.551	3.8
285.767	13.25
285.982	-13.43
286.198	-12.48
286.414	-12.13
286.63	-11.99
286.846	-17.94
287.061	-2.35
287.277	-2.33
287.493	-11.75
287.709	-5.82
287.924	-4.73
288.14	-1.73
288.356	18.33
288.571	31.85
288.787	36.44
289.003	25.77
289.218	21.78
289.434	12.18
289.65	8.09
289.865	-1.82
290.081	20.16
290.296	7.99
290.512	9.23
290.727	13.06
290.943	27.26
291.159	25.94
291.374	42.39
291.59	35.19
291.805	46.13
292.021	35.72
292.236	27.42
292.451	29.77
292.667	24.36
292.882	11.29
293.098	16.43
293.313	31.51
293.529	39.86
293.744	37.4
293.959	39.95
294.175	38.27
294.39	26.65
294.605	19.49
294.821	25.24
295.036	23.24
295.251	23.62
295.467	17.08
295.682	-7.54
295.897	-6.42
296.112	6.97
296.328	20.35
296.543	27.92
296.758	32.59
296.973	39.67
297.188	47.63
297.404	29.18
297.619	20.41
297.834	13.79
298.049	0.01
298.264	-6.15
298.479	3.46
298.694	15.27
298.909	23.78
299.125	36.08
299.34	25.4
299.555	22.69
299.77	19.6
299.985	27.62
300.2	27.01
300.415	27.71
300.63	24.4
300.845	30.21
301.06	11.19
301.275	-4.03
301.49	12.27
301.704	16.61
301.919	19.77
302.134	38.1
302.349	49.4
302.564	38.45
302.779	20.08
302.994	5.55
303.209	3.55
303.423	-13.45
303.638	-13.8
303.853	8.24
304.068	18.05
304.283	8.9
304.497	-2.14
304.712	8.03
304.927	1.28
305.142	-3.37
305.356	-4.38
305.571	26.14
305.786	24.33
306	30.52
306.215	32.31
306.43	33.38
306.644	38.2
306.859	36.17
307.074	42.89
307.288	48.81
307.503	41.13
307.717	22.7
307.932	11.72
308.147	15.13
308.361	3.92
308.576	18.66
308.79	14.51
309.005	23.78
309.219	0.34
309.434	20.43
309.648	15.69
309.863	28.46
310.077	25.89
310.292	35.76
310.506	14.84
310.72	7.93
310.935	5.64
311.149	16.12
311.364	-5.95
311.578	8.26
311.792	4.84
312.007	9.78
312.221	11.76
312.435	20.34
312.649	24.6
312.864	-13.88
313.078	-26.39
313.292	-21
313.507	-11.06
313.721	-6.65
313.935	35.32
314.149	25.78
314.363	14.25
314.578	12.22
314.792	10.47
315.006	9.29
315.22	17.54
315.434	26.19
315.648	34.53
315.862	20.39
316.077	23.64
316.291	8.98
316.505	-3.63
316.719	1.83
316.933	31.07
317.147	25.19
317.361	35.28
317.575	32.95
317.789	18.43
318.003	-0.41
318.217	14.22
318.431	4.13
318.645	17.4
318.859	15.81
319.073	13.08
319.287	10.91
319.5	14.04
319.714	6.71
319.928	8.54
320.142	2.43
320.356	31.25
320.57	31.32
320.784	45.6
320.997	52.79
321.211	53
321.425	38.12
321.639	32.87
321.853	12.32
322.066	3.58
322.28	-5.99
322.494	-12.36
322.707	-2.45
322.921	5.71
323.135	8.14
323.349	41.81
323.562	50.97
323.776	46.87
323.989	29.73
324.203	28.53
324.417	-20.13
324.63	0.99
324.844	13.33
325.057	21.53
325.271	18.91
325.485	29.85
325.698	13
325.912	-0.33
326.125	13.32
326.339	18.6
326.552	15.14
326.766	16.38
326.979	22.79
327.193	6.45
327.406	2.2
327.619	4.37
327.833	1.2
328.046	7.17
328.26	16.8
328.473	13.15
328.686	8.86
328.9	22.55
329.113	25
329.326	26.3
329.54	40.33
329.753	25.8
329.966	22.02
330.179	-2.06
330.393	14.76
330.606	-7.26
330.819	15.18
331.032	1.99
331.246	13.24
331.459	16.97
331.672	31.97
331.885	31.62
332.098	43.13
332.311	45.17
332.525	42.38
332.738	21.75
332.951	25.29
333.164	10.99
333.377	10.58
333.59	5.4
333.803	22.66
334.016	19.62
334.229	22.95
334.442	25.96
334.655	31.26
334.868	38.17
335.081	44.58
335.294	37.01
335.507	38.12
335.72	45.91
335.933	39.9
336.146	33.68
336.359	46.62
336.572	54.12
336.785	51.25
336.997	68.02
337.21	68.74
337.423	58.38
337.636	36.63
337.849	23.57
338.062	5.77
338.274	14.03
338.487	20.33
338.7	19.84
338.913	24.11
339.125	31.5
339.338	15.35
339.551	15.49
339.763	16.11
339.976	2.34
340.189	-11.18
340.402	1.52
340.614	-12.72
340.827	2.14
341.039	-2.11
341.252	2.81
341.465	-21.72
341.677	-10.37
341.89	-18.3
342.102	11.55
342.315	20.41
342.527	23.64
342.74	18.24
342.952	14.14
343.165	11.15
343.377	6.62
343.59	1.49
343.802	10.51
344.015	4.19
344.227	6.16
344.44	-12.24
344.652	9.7
344.864	11.65
345.077	11.01
345.289	9.92
345.502	17.75
345.714	13.26
345.926	6.31
346.139	21.85
346.351	18.19
346.563	13.28
346.775	18.5
346.988	20.74
347.2	9.7
347.412	-4.36
347.624	3.4
347.837	-17.55
348.049	-16.92
348.261	-4.68
348.473	8.82
348.685	13.28
348.897	16.18
349.11	20.93
349.322	1.32
349.534	3.93
349.746	16.98
349.958	23.99
350.17	33.97
350.382	34.19
350.594	20.4
350.806	22.8
351.018	21.76
351.23	7.51
351.442	7.62
351.654	35.19
351.866	27.43
352.078	29.64
352.29	23.4
352.502	27.19
352.714	8.74
352.926	-3.85
353.138	2.47
353.35	10.26
353.561	15.73
353.773	19.87
353.985	25.09
354.197	1.63
354.409	-0.14
354.621	0.28
354.832	13.07
355.044	16.3
355.256	28.97
355.468	43.71
355.679	45.45
355.891	43.72
356.103	36.84
356.314	37.69
356.526	26.17
356.738	11.95
356.949	5.43
357.161	14.63
357.373	11.91
357.584	14.39
357.796	20.15
358.008	25.19
358.219	23.02
358.431	12.79
358.642	9.26
358.854	11.06
359.065	7.96
359.277	5.03
359.488	21.35
359.7	20.27
359.911	27.64
360.123	24.16
360.334	28.46
360.546	17.48
360.757	22.63
360.969	15.14
361.18	28.82
361.391	24.97
361.603	11.9
361.814	16.82
362.025	25.71
362.237	13.07
362.448	17.14
362.659	17.02
362.871	7.89
363.082	-0.52
363.293	6.38
363.504	-5.77
363.716	6.81
363.927	2.18
364.138	2.92
364.349	3.71
364.56	5.3
364.772	-1.99
364.983	3.1
365.194	-0.14
365.405	-5.15
365.616	1.88
365.827	13.35
366.038	14.61
366.25	15.03
366.461	14.39
366.672	10.85
366.883	8.15
367.094	0.82
367.305	-13.26
367.516	-22.82
367.727	-14.39
367.938	-26.33
368.149	-13.99
368.36	0.57
368.571	9.67
368.781	9.81
368.992	15.79
369.203	3.94
369.414	11.3
369.625	18.81
369.836	13.34
370.047	14.14
370.258	27.48
370.468	22.1
370.679	15.43
370.89	13.83
371.101	-0.36
371.312	3.28
371.522	5.97
371.733	17.96
371.944	29.58
372.155	35.04
372.365	24.33
372.576	23.41
372.787	19.43
372.997	19.05
373.208	25.08
373.419	34.35
373.629	30.72
373.84	28.45
374.05	22.46
374.261	18.47
374.472	14.15
374.682	11.58
374.893	10.65
375.103	7.49
375.314	8.65
375.524	13.09
375.735	13.76
375.945	8.04
376.156	22.21
376.366	16.39
376.577	9.08
376.787	7.06
376.997	12.64
377.208	7.04
377.418	11.84
377.629	8.47
377.839	21.47
378.049	25.88
378.26	20.22
378.47	25.17
378.68	40.95
378.89	28.51
379.101	15.71
379.311	3.53
379.521	-11.39
379.732	-18.37
379.942	-1.75
380.152	3.79
380.362	15.97
380.572	10.48
380.783	-2.95
380.993	-21.88
381.203	-19.42
381.413	-25.86
381.623	-6.07
381.833	1.91
382.043	21.52
382.253	17.98
382.463	20.26
382.674	17.26
382.884	16.96
383.094	-3.12
383.304	3.3
383.514	10.25
383.724	2
383.934	4.72
384.144	4.15
384.353	4.57
384.563	3.11
384.773	9.55
384.983	4.28
385.193	6.76
385.403	7.42
385.613	7.79
385.823	4.88
386.033	3.28
386.242	10.45
386.452	5.72
386.662	10.23
386.872	10.75
387.082	12.34
387.291	0.1
387.501	1.9
387.711	-1.39
387.921	0.34
388.13	3.29
388.34	10.21
388.55	10.11
388.759	4.84
388.969	4.17
389.179	5.28
389.388	5.85
389.598	9.9
389.807	13.38
390.017	12.93
390.227	10.45
390.436	11.75
390.646	7.54
390.855	6.14
391.065	4.29
391.274	3.31
391.484	0.71
391.693	1.91
391.903	3.4
392.112	3.41
392.322	4.08
392.531	3.14
392.74	2.56
392.95	1.02
393.159	1.93
393.369	2.7
393.578	4.14
393.787	5.65
393.997	6.82
394.206	7.51
394.415	6.46
394.625	6.23
394.834	4.36
395.043	3.75
395.252	3.2
395.462	4.05
395.671	3.3
395.88	4.62
396.089	5.36
396.298	5.41
396.508	5.1
396.717	5.21
396.926	4.75
397.135	4.33
397.344	4.15
397.553	3.88
397.762	3.67
397.971	3.37
398.181	2.89
398.39	2.38
398.599	2.5
398.808	2.78
399.017	2.86
399.226	3.33
399.435	3.79
399.644	3.9
399.853	4.19
400.062	4.21
400.27	3.79
400.479	3.14
400.688	3.06
400.897	2.69
401.106	2.94
401.315	3.2
401.524	3.41
401.733	3.31
401.941	3.18
402.15	2.99
402.359	2.68
402.568	2.85
402.777	2.71
402.985	2.66
403.194	2.73
403.403	2.97
403.612	2.86
403.82	2.75
404.029	2.79
404.238	2.76
404.446	2.71
404.655	2.91
404.864	3.16
405.072	3.29
405.281	3.23
405.489	3.03
405.698	2.9
405.906	2.86
406.115	2.66
406.324	2.63
406.532	2.52
406.741	2.58
406.949	2.66
407.158	2.68
407.366	2.58
407.574	2.82
407.783	2.74
407.991	2.66
408.2	2.72
408.408	2.82
408.617	2.79
408.825	2.75
409.033	2.65
409.242	2.56
409.45	2.53
409.658	2.54
409.867	2.52
410.075	2.54
410.283	2.63
410.491	2.57
410.7	2.5
410.908	2.47
411.116	2.45
411.324	2.47
411.533	2.44
411.741	2.3
411.949	2.4
412.157	2.53
412.365	2.63
412.573	2.66
412.781	2.77
412.99	2.8
413.198	2.82
413.406	2.74
413.614	2.81
413.822	2.85
414.03	2.74
414.238	2.58
414.446	2.65
414.654	2.57
414.862	2.57
415.07	2.52
415.278	2.59
415.486	2.28
415.694	2.24
415.902	2.25
416.109	2.38
416.317	2.46
416.525	2.57
416.733	2.63
416.941	2.67
417.149	2.45
417.357	2.37
417.564	2.38
417.772	2.43
417.98	2.44
418.188	2.73
418.395	2.69
418.603	2.62
418.811	2.71
419.019	2.55
419.226	2.35
419.434	2.4
419.642	2.55
419.849	2.27
420.057	2.35
420.265	2.36
420.472	2.23
420.68	2.15
420.887	2.33
421.095	2.28
421.302	2.26
421.51	2.39
421.717	2.45
421.925	2.32
422.132	2.43
422.34	2.48
422.547	2.42
422.755	2.41
422.962	2.51
423.17	2.53
423.377	2.54
423.585	2.66
423.792	2.6
423.999	2.54
424.207	2.45
424.414	2.34
424.621	2.08
424.829	1.89
425.036	1.92
425.243	1.91
425.451	1.92
425.658	1.95
425.865	2.28
426.072	2.33
426.28	2.31
426.487	2.44
426.694	2.45
426.901	2.22
427.108	2.18
427.315	2.3
427.523	2.08
427.73	2.02
427.937	2.08
428.144	2.01
428.351	1.88
428.558	2.04
428.765	2.18
428.972	2.17
429.179	2.15
429.386	2.13
429.593	2.17
429.8	2.1
430.007	2.05
430.214	2.08
430.421	2.33
430.628	2.19
430.835	2.25
431.042	2.14
431.249	2.19
431.456	2.05
431.662	2.17
431.869	2.21
432.076	2.41
432.283	2.37
432.49	2.26
432.697	2.17
432.903	2.15
433.11	2.3
433.317	2.31
433.524	2.39
433.73	2.56
433.937	2.52
434.144	2.33
434.35	2.24
434.557	2.3
434.764	2.11
434.97	2.09
435.177	2.15
435.384	2.09
435.59	1.95
435.797	2.09
436.003	2.12
436.21	2.01
436.416	2.02
436.623	2.1
436.829	1.97
437.036	2.03
437.242	2.15
437.449	2.17
437.655	2.18
437.862	2.28
438.068	2.17
438.275	2.2
438.481	2.1
438.687	2.08
438.894	2.01
439.1	1.94
439.307	1.8
439.513	1.99
439.719	2.1
439.926	2.1
440.132	2.32
440.338	2.28
440.544	2.15
440.751	2
440.957	2.03
441.163	1.84
441.369	1.94
441.575	2.02
441.782	2.2
441.988	2.17
442.194	2.27
442.4	2.28
442.606	2.27
442.812	2.15
443.018	2.13
443.224	2.03
443.431	1.97
443.637	2.06
443.843	1.99
444.049	2.03
444.255	1.98
444.461	1.96
444.667	1.82
444.873	1.85
445.079	1.86
445.284	2.07
445.49	2.14
445.696	2.1
445.902	2.06
446.108	2.02
446.314	1.94
446.52	1.96
446.726	2.04
446.931	2.16
447.137	2.14
447.343	2.08
447.549	1.92
447.755	1.81
447.96	1.74
448.166	1.78
448.372	1.93
448.578	2.01
448.783	2.11
448.989	2.22
449.195	2.17
449.4	2.11
449.606	2.14
449.812	2.11
450.017	2.02
450.223	1.94
450.428	1.83
450.634	1.78
450.84	1.82
451.045	1.89
451.251	2.04
451.456	2.1
451.662	2.08
451.867	2.13
452.073	2
452.278	1.95
452.483	1.93
452.689	2.01
452.894	2
453.1	2.02
453.305	2.08
453.51	2.08
453.716	1.97
453.921	2.05
454.127	2.12
454.332	2.14
454.537	2.25
454.742	2.15
454.948	2.01
455.153	2.01
455.358	1.87
455.563	1.79
455.769	1.93
455.974	1.93
456.179	1.88
456.384	1.81
456.589	1.82
456.795	1.7
457	1.77
457.205	1.72
457.41	1.84
457.615	1.78
457.82	1.81
458.025	1.78
458.23	1.8
458.435	1.8
458.64	1.79
458.845	1.9
459.05	1.79
459.255	1.82
459.46	1.85
459.665	1.88
459.87	1.89
460.075	2.04
460.28	1.99
460.485	1.97
460.69	1.96
460.895	1.96
461.099	1.93
461.304	1.92
461.509	1.97
461.714	2.02
461.919	1.94
462.123	1.89
462.328	1.93
462.533	1.8
462.738	1.83
462.942	1.86
463.147	1.89
463.352	1.8
463.556	1.91
463.761	1.82
463.966	1.78
464.17	1.8
464.375	1.89
464.58	1.83
464.784	1.86
464.989	1.93
465.193	1.9
465.398	1.99
465.602	2.04
465.807	2.01
466.011	1.93
466.216	1.88
466.42	1.84
466.625	1.74
466.829	1.71
467.034	1.87
467.238	1.88
467.443	1.97
467.647	2
467.851	2.02
468.056	1.89
468.26	1.93
468.464	1.79
468.669	1.83
468.873	1.85
469.077	1.86
469.282	1.79
469.486	1.79
469.69	1.69
469.894	1.73
470.099	1.72
470.303	1.77
470.507	1.74
470.711	1.88
470.915	1.87
471.119	1.85
471.324	1.88
471.528	1.91
471.732	1.9
471.936	1.9
472.14	1.96
472.344	2.02
472.548	2.08
472.752	2
472.956	1.95
473.16	2.02
473.364	1.91
473.568	1.89
473.772	1.88
473.976	1.83
474.18	1.77
474.384	1.77
474.588	1.77
474.792	1.81
474.995	1.87
475.199	1.84
475.403	1.93
475.607	1.92
475.811	1.96
476.015	1.99
476.218	1.99
476.422	1.93
476.626	1.87
476.83	1.89
477.033	1.88
477.237	1.91
477.441	1.97
477.644	2.02
477.848	1.92
478.052	1.83
478.255	1.85
478.459	1.76
478.663	1.78
478.866	1.82
479.07	1.9
479.273	1.89
479.477	1.87
479.681	1.9
479.884	1.91
480.088	1.91
480.291	1.95
480.495	1.98
480.698	1.96
480.901	2
481.105	2.04
481.308	1.94
481.512	1.93
481.715	1.9
481.919	1.85
482.122	1.82
482.325	1.88
482.529	1.91
482.732	1.92
482.935	1.91
483.138	1.98
483.342	1.97
483.545	2
483.748	1.97
483.952	2.01
484.155	1.92
484.358	1.97
484.561	1.99
484.764	1.96
484.967	2.01
485.171	2.05
485.374	1.99
485.577	1.94
485.78	2.01
485.983	1.93
486.186	1.9
486.389	1.9
486.592	1.85
486.795	1.86
486.998	1.96
487.201	2
487.404	2.04
487.607	2.11
487.81	2.16
488.013	2.06
488.216	2.14
488.419	2.08
488.622	2.06
488.825	1.97
489.028	2.02
489.231	1.93
489.433	1.96
489.636	1.97
489.839	2
490.042	1.91
490.245	1.93
490.447	1.93
490.65	1.93
490.853	1.92
491.056	2.02
491.258	1.99
491.461	1.97
491.664	1.94
491.866	1.98
492.069	1.98
492.272	2.04
492.474	2.13
492.677	2.16
492.879	2.1
493.082	2.05
493.285	2.04
493.487	1.98
493.69	1.97
493.892	1.97
494.095	2.03
494.297	2.05
494.5	2.09
494.702	2.09
494.905	2.13
495.107	2.14
495.309	2.1
495.512	2.05
495.714	2.09
495.917	2.09
496.119	2.08
496.321	2.1
496.524	2.13
496.726	2.15
496.928	2.1
497.13	2.17
497.333	2.17
497.535	2.23
497.737	2.19
497.939	2.23
498.142	2.14
498.344	2.14
498.546	2.08
498.748	2.14
498.95	2.16
499.152	2.17
499.355	2.17
499.557	2.18
499.759	2.19
499.961	2.22
500.163	2.29
500.365	2.29
500.567	2.28
500.769	2.23
500.971	2.21
501.173	2.19
501.375	2.27
501.577	2.3
501.779	2.37
501.981	2.43
502.183	2.46
502.385	2.41
502.587	2.36
502.788	2.36
502.99	2.34
503.192	2.26
503.394	2.25
503.596	2.35
503.798	2.38
503.999	2.42
504.201	2.5
504.403	2.54
504.605	2.52
504.806	2.53
505.008	2.55
505.21	2.49
505.411	2.44
505.613	2.44
505.815	2.43
506.016	2.37
506.218	2.46
506.42	2.51
506.621	2.54
506.823	2.54
507.024	2.55
507.226	2.51
507.427	2.46
507.629	2.4
507.83	2.35
508.032	2.34
508.233	2.37
508.435	2.39
508.636	2.53
508.838	2.62
509.039	2.66
509.24	2.66
509.442	2.68
509.643	2.55
509.845	2.53
510.046	2.57
510.247	2.62
510.448	2.69
510.65	2.78
510.851	2.71
511.052	2.74
511.254	2.75
511.455	2.75
511.656	2.77
511.857	2.78
512.058	2.75
512.26	2.72
512.461	2.69
512.662	2.61
512.863	2.61
513.064	2.57
513.265	2.55
513.466	2.59
513.667	2.67
513.868	2.74
514.069	2.76
514.27	2.78
514.471	2.77
514.672	2.71
514.873	2.74
515.074	2.82
515.275	2.86
515.476	2.87
515.677	2.87
515.878	2.86
516.079	2.79
516.28	2.76
516.481	2.7
516.682	2.8
516.882	2.77
517.083	2.76
517.284	2.79
517.485	2.82
517.686	2.78
517.886	2.81
518.087	2.84
518.288	2.88
518.488	2.86
518.689	2.86
518.89	2.82
519.091	2.84
519.291	2.78
519.492	2.8
519.692	2.81
519.893	2.84
520.094	2.78
520.294	2.82
520.495	2.85
520.695	2.91
520.896	2.94
521.096	3.01
521.297	3.05
521.497	3.06
521.698	3.01
521.898	2.97
522.099	3.02
522.299	2.98
522.499	2.99
522.7	2.99
522.9	3.03
523.101	2.99
523.301	3.03
523.501	3.07
523.702	3.12
523.902	3.14
524.102	3.18
524.302	3.17
524.503	3.17
524.703	3.16
524.903	3.18
525.103	3.17
525.304	3.17
525.504	3.16
525.704	3.18
525.904	3.17
526.104	3.19
526.304	3.24
526.504	3.22
526.705	3.22
526.905	3.26
527.105	3.27
527.305	3.23
527.505	3.26
527.705	3.27
527.905	3.24
528.105	3.24
528.305	3.28
528.505	3.3
528.705	3.33
528.905	3.36
529.105	3.37
529.304	3.35
529.504	3.36
529.704	3.35
529.904	3.38
530.104	3.38
530.304	3.42
530.503	3.46
530.703	3.47
530.903	3.48
531.103	3.5
531.303	3.53
531.502	3.53
531.702	3.51
531.902	3.48
532.101	3.5
532.301	3.48
532.501	3.42
532.7	3.49
532.9	3.52
533.1	3.55
533.299	3.58
533.499	3.67
533.698	3.62
533.898	3.63
534.097	3.63
534.297	3.65
534.496	3.64
534.696	3.67
534.895	3.68
535.095	3.72
535.294	3.74
535.494	3.73
535.693	3.83
535.892	3.86
536.092	3.89
536.291	3.84
536.491	3.92
536.69	3.9
536.889	3.94
537.088	3.87
537.288	3.97
537.487	3.96
537.686	3.97
537.886	4.06
538.085	4.12
538.284	4.1
538.483	4.11
538.682	4.14
538.882	4.12
539.081	4.14
539.28	4.2
539.479	4.23
539.678	4.26
539.877	4.27
540.076	4.29
540.275	4.28
540.474	4.28
540.673	4.27
540.872	4.31
541.071	4.33
541.27	4.36
541.469	4.38
541.668	4.37
541.867	4.3
542.066	4.31
542.265	4.4
542.464	4.41
542.663	4.49
542.862	4.62
543.06	4.65
543.259	4.63
543.458	4.7
543.657	4.76
543.856	4.77
544.054	4.85
544.253	4.87
544.452	4.95
544.651	4.92
544.849	4.93
545.048	4.92
545.247	4.98
545.445	4.93
545.644	5.03
545.843	5.12
546.041	5.2
546.24	5.21
546.438	5.33
546.637	5.3
546.836	5.31
547.034	5.33
547.233	5.44
547.431	5.43
547.63	5.51
547.828	5.55
548.027	5.59
548.225	5.55
548.423	5.57
548.622	5.61
548.82	5.64
549.019	5.67
549.217	5.73
549.415	5.75
549.614	5.82
549.812	5.86
550.01	5.89
550.209	6.03
550.407	6.13
550.605	6.14
550.803	6.17
551.002	6.26
551.2	6.25
551.398	6.33
551.596	6.4
551.794	6.49
551.993	6.53
552.191	6.56
552.389	6.54
552.587	6.63
552.785	6.7
552.983	6.76
553.181	6.83
553.379	6.93
553.577	6.97
553.775	7
553.973	7.03
554.171	7.07
554.369	7.08
554.567	7.16
554.765	7.28
554.963	7.39
555.161	7.5
555.359	7.64
555.557	7.77
555.755	7.83
555.952	7.86
556.15	7.93
556.348	7.99
556.546	7.98
556.744	8.04
556.941	8.15
557.139	8.21
557.337	8.3
557.535	8.35
557.732	8.41
557.93	8.51
558.128	8.57
558.325	8.62
558.523	8.72
558.721	8.78
558.918	8.8
559.116	8.94
559.313	9.03
559.511	9.13
559.708	9.22
559.906	9.3
560.104	9.28
560.301	9.33
560.498	9.38
560.696	9.45
560.893	9.57
561.091	9.72
561.288	9.87
561.486	9.96
561.683	10.05
561.88	10.07
562.078	10.16
562.275	10.11
562.473	10.13
562.67	10.22
562.867	10.35
563.064	10.38
563.262	10.51
563.459	10.69
563.656	10.75
563.853	10.8
564.051	10.83
564.248	10.93
564.445	10.95
564.642	10.97
564.839	11.11
565.036	11.25
565.234	11.29
565.431	11.39
565.628	11.47
565.825	11.41
566.022	11.48
566.219	11.54
566.416	11.5
566.613	11.54
566.81	11.69
567.007	11.66
567.204	11.71
567.401	11.85
567.598	12.01
567.795	12.08
567.991	12.14
568.188	12.25
568.385	12.21
568.582	12.2
568.779	12.19
568.976	12.29
569.172	12.38
569.369	12.48
569.566	12.52
569.763	12.47
569.96	12.53
570.156	12.47
570.353	12.51
570.55	12.52
570.746	12.65
570.943	12.66
571.14	12.72
571.336	12.74
571.533	12.74
571.729	12.72
571.926	12.74
572.123	12.79
572.319	12.89
572.516	12.98
572.712	13.06
572.909	13.05
573.105	13.1
573.302	13.07
573.498	13.03
573.695	13.04
573.891	13.01
574.087	12.93
574.284	12.97
574.48	13.02
574.677	13.04
574.873	13.17
575.069	13.24
575.266	13.19
575.462	13.17
575.658	13.15
575.854	13.14
576.051	13.07
576.247	13.08
576.443	13.12
576.639	13.19
576.835	13.16
577.032	13.22
577.228	13.18
577.424	13.15
577.62	13.12
577.816	13.1
578.012	13.07
578.208	13.13
578.404	13.1
578.6	13.1
578.796	13.06
578.993	13.05
579.189	13
579.384	13
579.58	12.94
579.776	12.96
579.972	12.98
580.168	12.92
580.364	12.89
580.56	12.9
580.756	12.81
580.952	12.7
581.148	12.72
581.343	12.74
581.539	12.73
581.735	12.72
581.931	12.77
582.127	12.74
582.322	12.75
582.518	12.65
582.714	12.7
582.909	12.64
583.105	12.62
583.301	12.49
583.496	12.5
583.692	12.52
583.888	12.47
584.083	12.46
584.279	12.44
584.474	12.39
584.67	12.24
584.866	12.2
585.061	12.16
585.257	12.1
585.452	12.17
585.648	12.16
585.843	12.23
586.039	12.26
586.234	12.23
586.429	12.14
586.625	12.14
586.82	12.06
587.015	12.01
587.211	11.99
587.406	12.08
587.601	12.16
587.797	12.16
587.992	12.14
588.187	12.13
588.383	12.01
588.578	11.92
588.773	11.86
588.968	11.92
589.163	11.99
589.359	12
589.554	12.03
589.749	12.13
589.944	12.1
590.139	12.15
590.334	12.19
590.529	12.23
590.724	12.22
590.919	12.28
591.114	12.29
591.309	12.29
591.504	12.24
591.699	12.26
591.894	12.21
592.089	12.2
592.284	12.28
592.479	12.29
592.674	12.27
592.869	12.26
593.064	12.32
593.259	12.35
593.454	12.38
593.648	12.38
593.843	12.52
594.038	12.55
594.233	12.54
594.428	12.66
594.622	12.78
594.817	12.74
595.012	12.74
595.206	12.77
595.401	12.79
595.596	12.81
595.79	12.83
595.985	12.93
596.18	13.01
596.374	13.06
596.569	13.09
596.763	13.21
596.958	13.24
597.153	13.26
597.347	13.18
597.542	13.3
597.736	13.35
597.931	13.38
598.125	13.48
598.319	13.57
598.514	13.57
598.708	13.56
598.903	13.67
599.097	13.68
599.291	13.76
599.486	13.78
599.68	13.79
599.874	13.75
600.069	13.85
600.263	13.86
600.457	13.94
600.651	14.03
600.846	14.12
601.04	14.06
601.234	14.06
601.428	14.06
601.622	14.08
601.817	13.99
602.011	14.04
602.205	14.08
602.399	14.11
602.593	14.16
602.787	14.2
602.981	14.15
603.175	14.25
603.369	14.21
603.563	14.22
603.757	14.25
603.951	14.25
604.145	14.11
604.339	14.1
604.533	14.1
604.727	14.01
604.921	14.01
605.115	14.04
605.309	14.02
605.502	13.99
605.696	14.03
605.89	14.01
606.084	13.91
606.278	13.9
606.471	13.78
606.665	13.65
606.859	13.64
607.053	13.67
607.246	13.62
607.44	13.57
607.634	13.66
607.827	13.56
608.021	13.45
608.214	13.34
608.408	13.33
608.602	13.23
608.795	13.24
608.989	13.19
609.182	13.17
609.376	13.12
609.569	13.02
609.763	12.91
609.956	12.91
610.15	12.89
610.343	12.82
610.537	12.78
610.73	12.76
610.923	12.78
611.117	12.72
611.31	12.63
611.504	12.64
611.697	12.62
611.89	12.56
612.083	12.42
612.277	12.4
612.47	12.27
612.663	12.2
612.856	12.04
613.05	12.06
613.243	11.97
613.436	11.89
613.629	11.79
613.822	11.69
614.015	11.62
614.209	11.56
614.402	11.45
614.595	11.42
614.788	11.4
614.981	11.36
615.174	11.31
615.367	11.36
615.56	11.19
615.753	11.18
615.946	11.13
616.139	11.16
616.332	11.08
616.525	11.06
616.718	11.03
616.911	10.97
617.103	10.92
617.296	10.87
617.489	10.85
617.682	10.72
617.875	10.75
618.067	10.59
618.26	10.54
618.453	10.47
618.646	10.51
618.838	10.39
619.031	10.42
619.224	10.43
619.417	10.49
619.609	10.47
619.802	10.44
619.994	10.39
620.187	10.3
620.38	10.26
620.572	10.12
620.765	10.08
620.957	10.09
621.15	10.15
621.342	10.16
621.535	10.23
621.727	10.14
621.92	10.08
622.112	9.99
622.305	9.93
622.497	9.85
622.69	9.83
622.882	9.85
623.074	9.91
623.267	9.85
623.459	9.81
623.651	9.8
623.844	9.8
624.036	9.74
624.228	9.82
624.42	9.78
624.613	9.87
624.805	9.82
624.997	9.77
625.189	9.69
625.381	9.74
625.574	9.66
625.766	9.63
625.958	9.59
626.15	9.61
626.342	9.55
626.534	9.59
626.726	9.52
626.918	9.46
627.11	9.35
627.302	9.31
627.494	9.26
627.686	9.26
627.878	9.3
628.07	9.31
628.262	9.27
628.454	9.11
628.646	9
628.838	9
629.029	9.01
629.221	8.95
629.413	9.03
629.605	9.08
629.797	9.08
629.989	9.01
630.18	9.05
630.372	9.01
630.564	9.02
630.755	8.95
630.947	8.88
631.139	8.78
631.33	8.75
631.522	8.68
631.714	8.61
631.905	8.59
632.097	8.58
632.289	8.5
632.48	8.41
632.672	8.4
632.863	8.45
633.055	8.48
633.246	8.49
633.438	8.58
633.629	8.54
633.821	8.45
634.012	8.44
634.203	8.45
634.395	8.4
634.586	8.47
634.777	8.51
634.969	8.49
635.16	8.45
635.351	8.38
635.543	8.31
635.734	8.32
635.925	8.23
636.117	8.19
636.308	8.2
636.499	8.13
636.69	8.07
636.881	8.14
637.073	8.21
637.264	8.28
637.455	8.28
637.646	8.34
637.837	8.27
638.028	8.15
638.219	8.1
638.41	8.14
638.601	8.04
638.792	8
638.983	8.05
639.174	8.02
639.365	7.98
639.556	8
639.747	8.05
639.938	8.06
640.129	8.07
640.32	8.04
640.511	8.03
640.701	7.98
640.892	7.92
641.083	7.81
641.274	7.75
641.465	7.64
641.655	7.65
641.846	7.64
642.037	7.68
642.228	7.68
642.418	7.73
642.609	7.75
642.8	7.66
642.99	7.66
643.181	7.64
643.372	7.58
643.562	7.47
643.753	7.54
643.943	7.53
644.134	7.56
644.324	7.58
644.515	7.59
644.705	7.5
644.896	7.51
645.086	7.5
645.277	7.45
645.467	7.46
645.658	7.42
645.848	7.36
646.038	7.21
646.229	7.28
646.419	7.26
646.61	7.23
646.8	7.18
646.99	7.27
647.18	7.24
647.371	7.19
647.561	7.12
647.751	7.17
647.941	7.04
648.132	6.98
648.322	6.94
648.512	7.03
648.702	6.96
648.892	6.98
649.082	7.04
649.272	7.05
649.462	7.02
649.653	6.98
649.843	6.99
650.033	6.88
650.223	6.86
650.413	6.84
650.603	6.82
650.793	6.76
650.983	6.77
651.172	6.83
651.362	6.85
651.552	6.83
651.742	6.82
651.932	6.78
652.122	6.72
652.312	6.62
652.502	6.68
652.691	6.69
652.881	6.7
653.071	6.73
653.261	6.74
653.45	6.57
653.64	6.61
653.83	6.61
654.019	6.5
654.209	6.48
654.399	6.51
654.588	6.33
654.778	6.2
654.968	6.09
655.157	5.97
655.347	5.9
655.536	5.91
655.726	5.77
655.915	5.77
656.105	5.75
656.294	5.69
656.484	5.6
656.673	5.62
656.863	5.55
657.052	5.48
657.241	5.41
657.431	5.35
657.62	5.21
657.809	5.09
657.999	5
658.188	4.95
658.377	4.91
658.567	4.89
658.756	4.91
658.945	4.89
659.134	4.88
659.324	4.85
659.513	4.83
659.702	4.81
659.891	4.73
660.08	4.55
660.269	4.42
660.458	4.24
660.648	4.22
660.837	4.16
661.026	4.16
661.215	4.14
661.404	4.15
661.593	3.98
661.782	3.94
661.971	3.87
662.16	3.88
662.349	3.8
662.538	3.8
662.726	3.74
662.915	3.71
663.104	3.64
663.293	3.71
663.482	3.64
663.671	3.57
663.86	3.5
664.048	3.47
664.237	3.39
664.426	3.41
664.615	3.42
664.803	3.39
664.992	3.39
665.181	3.42
665.369	3.43
665.558	3.45
665.747	3.44
665.935	3.45
666.124	3.49
666.312	3.48
666.501	3.45
666.69	3.46
666.878	3.42
667.067	3.29
667.255	3.27
667.444	3.36
667.632	3.55
667.82	3.6
668.009	3.73
668.197	3.82
668.386	3.86
668.574	3.8
668.762	3.73
668.951	3.8
669.139	3.85
669.327	3.78
669.516	3.83
669.704	3.91
669.892	3.9
670.08	3.87
670.269	3.97
670.457	3.97
670.645	4.03
670.833	4.09
671.021	4.2
671.21	4.11
671.398	4.14
671.586	4.11
671.774	4.1
671.962	4
672.15	4.25
672.338	4.39
672.526	4.61
672.714	4.66
672.902	4.75
673.09	4.79
673.278	4.77
673.466	4.83
673.654	5.03
673.842	5.27
674.03	5.24
674.218	5.29
674.405	5.25
674.593	5.16
674.781	5.15
674.969	5.12
675.157	5.17
675.344	5.23
675.532	5.29
675.72	5.35
675.908	5.54
676.095	5.58
676.283	5.6
676.471	5.74
676.658	5.79
676.846	5.77
677.033	5.92
677.221	6.09
677.409	6.09
677.596	6.1
677.784	6.2
677.971	6.19
678.159	6.26
678.346	6.24
678.534	6.29
678.721	6.41
678.909	6.55
679.096	6.54
679.283	6.77
679.471	6.81
679.658	6.84
679.846	6.88
680.033	7
680.22	7.04
680.408	7.09
680.595	7.17
680.782	7.14
680.969	7.2
681.157	7.29
681.344	7.32
681.531	7.22
681.718	7.31
681.905	7.23
682.093	7.21
682.28	7.23
682.467	7.57
682.654	7.55
682.841	7.7
683.028	7.67
683.215	7.9
683.402	7.72
683.589	7.9
683.776	8.07
683.963	8.14
684.15	8.22
684.337	8.33
684.524	8.42
684.711	8.4
684.898	8.63
685.085	8.68
685.271	8.87
685.458	8.89
685.645	9.02
685.832	9.1
686.019	9.22
686.205	9.3
686.392	9.5
686.579	9.69
686.766	9.92
686.952	10
687.139	10.18
687.326	10.44
687.512	10.61
687.699	10.6
687.886	10.88
688.072	11.08
688.259	11.26
688.445	11.53
688.632	11.93
688.818	12.13
689.005	12.32
689.191	12.62
689.378	12.81
689.564	13.13
689.751	13.41
689.937	13.91
690.124	14.15
690.31	14.58
690.496	15.1
690.683	15.55
690.869	15.77
691.055	16.11
691.242	16.41
691.428	16.64
691.614	17.2
691.8	17.73
691.987	18.15
692.173	18.58
692.359	19.02
692.545	19.45
692.731	19.87
692.918	20.46
693.104	21.13
693.29	21.61
693.476	21.96
693.662	22.71
693.848	23.19
694.034	23.63
694.22	24.28
694.406	24.9
694.592	25.3
694.778	26.03
694.964	26.69
695.15	27.3
695.336	27.72
695.522	28.44
695.708	29.02
695.894	29.52
696.08	29.93
696.265	30.85
696.451	31.46
696.637	31.91
696.823	32.58
697.009	33.45
697.194	33.94
697.38	34.6
697.566	35.29
697.751	36.17
697.937	36.57
698.123	37.22
698.308	37.49
698.494	38.37
698.68	38.47
698.865	38.95
699.051	39.4
699.236	40.2
699.422	40.38
699.607	41
699.793	41.7
699.978	42.33
700.164	42.94
700.349	43.72
700.535	44.48
700.72	45.11
700.906	45.7
701.091	46.02
701.276	46.46
701.462	46.97
701.647	47.59
701.832	48.35
702.018	49.2
702.203	49.73
702.388	50.36
702.573	50.82
702.759	50.96
702.944	51.4
703.129	52.04
703.314	52.47
703.499	52.97
703.684	53.8
703.87	54.04
704.055	54.41
704.24	54.91
704.425	55.33
704.61	55.96
704.795	56.74
704.98	57.3
705.165	57.62
705.35	58.48
705.535	58.57
705.72	59.05
705.905	59.66
706.09	60.24
706.275	60.49
706.459	61.38
706.644	61.5
706.829	61.99
707.014	62.63
707.199	62.82
707.384	62.82
707.568	63.62
707.753	63.55
707.938	63.59
708.123	64
708.307	64.27
708.492	64.48
708.677	64.71
708.861	65.38
709.046	65.73
709.231	65.99
709.415	65.63
709.6	66.05
709.784	66.35
709.969	66.54
710.153	66.62
710.338	67.59
710.522	68.16
710.707	67.82
710.891	68.03
711.076	68.89
711.26	68.98
711.445	69.17
711.629	69.61
711.813	70.06
711.998	70.34
712.182	70.5
712.366	70.9
712.551	70.88
712.735	70.83
712.919	70.69
713.103	70.63
713.288	70.33
713.472	70.79
713.656	70.91
713.84	71.18
714.024	71.46
714.208	71.66
714.393	72.24
714.577	72.84
714.761	73.14
714.945	73.58
715.129	73.49
715.313	73.45
715.497	73.61
715.681	73.72
715.865	74
716.049	74.77
716.233	75.21
716.417	75.41
716.601	75.66
716.785	75.54
716.968	75.41
717.152	74.91
717.336	75.1
717.52	75.14
717.704	75.15
717.888	75.7
718.071	75.56
718.255	75.63
718.439	75.55
718.622	75.57
718.806	75.29
718.99	76.01
719.174	75.69
719.357	75.98
719.541	76.5
719.724	76.89
719.908	76.64
720.092	77
720.275	77.14
720.459	77.02
720.642	77.32
720.826	78.24
721.009	78.74
721.193	79.07
721.376	79.75
721.559	79.63
721.743	79.26
721.926	79.25
722.11	79.12
722.293	78.93
722.476	79.19
722.66	79.62
722.843	79.92
723.026	80.02
723.21	80.58
723.393	80.17
723.576	80.94
723.759	80.44
723.942	80.5
724.126	80.23
724.309	81.04
724.492	80.51
724.675	80.86
724.858	81.04
725.041	81.24
725.224	81.73
725.407	81.59
725.59	82.56
725.774	83.14
725.957	83.75
726.14	83.83
726.322	84.29
726.505	84.17
726.688	84.56
726.871	84.18
727.054	84.45
727.237	84.3
727.42	84.47
727.603	84.64
727.786	85.39
727.968	85.46
728.151	86.11
728.334	86.42
728.517	86.3
728.699	86.12
728.882	85.74
729.065	85.95
729.248	85.68
729.43	85.71
729.613	86.21
729.796	86.65
729.978	87.6
730.161	87.87
730.343	87.83
730.526	89.07
730.708	89.16
730.891	89.54
731.073	89.65
731.256	90.97
731.438	90.2
731.621	90.88
731.803	90.05
731.986	91.09
732.168	90.64
732.35	90.67
732.533	90.29
732.715	90.19
732.898	89.87
733.08	90.58
733.262	90.15
733.444	90.6
733.627	91.37
733.809	91.66
733.991	91.49
734.173	92.4
734.355	92.74
734.538	92.33
734.72	92.94
734.902	93.14
735.084	93.65
735.266	93.43
735.448	93.3
735.63	92.17
735.812	91.76
735.994	90.9
736.176	91.64
736.358	93.17
736.54	94.13
736.722	94.63
736.904	95.91
737.086	95.65
737.268	95.13
737.45	94.82
737.632	95.15
737.814	94.84
737.995	94.99
738.177	95.06
738.359	96.08
738.541	95.72
738.723	96.14
738.904	96.54
739.086	96.28
739.268	96.15
739.449	96.67
739.631	96.19
739.813	95.44
739.994	96.21
740.176	96.32
740.358	96.7
740.539	97.5
740.721	98.33
740.902	97.99
741.084	98.49
741.265	98.26
741.447	98.02
741.628	97.69
741.81	97.64
741.991	96.58
742.172	97.16
742.354	97.51
742.535	98.58
742.717	98.81
742.898	99.47
743.079	98.79
743.261	97.74
743.442	97.83
743.623	97.05
743.804	96.55
743.986	97.34
744.167	98.72
744.348	97.58
744.529	98.9
744.71	99.21
744.891	98.98
745.073	98.53
745.254	99.81
745.435	98.62
745.616	98.88
745.797	98.29
745.978	97.36
746.159	97.79
746.34	99.45
746.521	99.12
746.702	99.96
746.883	101.1
747.064	98.67
747.245	99.14
747.426	99.27
747.606	98.12
747.787	98.1
747.968	99.99
748.149	99.27
748.33	99.69
748.51	101.04
748.691	100.35
748.872	100
749.053	99.67
749.233	99
749.414	98
749.595	98.97
749.775	100.22
749.956	100.48
750.137	100.5
750.317	100.29
750.498	100.18
750.678	99.88
750.859	99.6
751.04	99.58
751.22	100.21
751.4	100.09
751.581	100.6
751.761	101.29
751.942	101.37
752.122	101.73
752.303	101.33
752.483	99.29
752.663	98.25
752.844	97.31
753.024	96.93
753.204	97.08
753.385	97.43
753.565	99.91
753.745	102.46
753.925	102.1
754.106	102.52
754.286	102.14
754.466	100.34
754.646	99.02
754.826	98.81
755.006	99.29
755.187	101.32
755.367	101.22
755.547	101.46
755.727	102.42
755.907	101.1
756.087	101.03
756.267	100.12
756.447	100.63
756.627	100.35
756.807	100.28
756.987	99.28
757.167	99.28
757.346	98.18
757.526	96.91
757.706	96.49
757.886	95.81
758.066	97.43
758.246	98.2
758.425	100.63
758.605	101.73
758.785	102.46
758.965	103.13
759.144	104.53
759.324	103.3
759.504	103.47
759.683	104.14
759.863	101.92
760.043	100.06
760.222	100.56
760.402	100.02
760.581	100.49
760.761	99.95
760.94	98.72
761.12	98.42
761.299	97.91
761.479	95.53
761.658	95.66
761.838	96.33
762.017	95.18
762.197	95.79
762.376	97.11
762.555	97.39
762.735	97.95
762.914	98.25
763.093	98.09
763.273	97.43
763.452	96.48
763.631	95.81
763.81	95.85
763.99	96.65
764.169	97.88
764.348	100
764.527	100.79
764.706	99.08
764.885	98.37
765.064	98.85
765.243	97.38
765.423	97.52
765.602	97.77
765.781	99.2
765.96	97.46
766.139	97.91
766.318	97
766.497	98.84
766.676	96.36
766.854	95.83
767.033	96.31
767.212	98.02
767.391	96.49
767.57	99.48
767.749	98.11
767.928	97.27
768.106	97.98
768.285	98.22
768.464	97
768.643	99.11
768.821	100.24
769	98.2
769.179	99.68
769.357	97.97
769.536	95.91
769.715	94.03
769.893	94
770.072	93.56
770.25	95.03
770.429	95.38
770.607	94.63
770.786	95.07
770.964	93.22
771.143	91.35
771.321	91.11
771.5	94.54
771.678	94.01
771.857	94.08
772.035	96.41
772.213	96.29
772.392	94.83
772.57	94.38
772.748	95.32
772.927	94.65
773.105	95.25
773.283	93.84
773.461	94.07
773.64	94.81
773.818	94.63
773.996	94.03
774.174	95.48
774.352	92.71
774.531	92.12
774.709	91.14
774.887	94.51
775.065	93.99
775.243	96.03
775.421	96.1
775.599	95.18
775.777	93.01
775.955	93.49
776.133	95.57
776.311	95.57
776.489	97.23
776.667	98.28
776.844	97.53
777.022	97.36
777.2	98.9
777.378	98.54
777.556	98.95
777.734	97.44
777.911	96.15
778.089	95.44
778.267	94.59
778.445	90.97
778.622	91.42
778.8	92.3
778.978	89.96
779.155	89.67
779.333	88.66
779.511	88.93
779.688	85.62
779.866	85.29
780.043	85.88
780.221	87.86
780.398	87.62
780.576	91.6
780.753	96.08
780.931	95.3
781.108	95.09
781.286	95.29
781.463	93.74
781.64	91.56
781.818	92.15
781.995	89.6
782.172	89.7
782.35	91.06
782.527	91.03
782.704	90.87
782.882	95.89
783.059	94.16
783.236	89.52
783.413	89.35
783.59	87.35
783.768	84.74
783.945	87.57
784.122	87.67
784.299	87.65
784.476	87.48
784.653	90.49
784.83	88.69
785.007	92.16
785.184	90.94
785.361	93.01
785.538	89.78
785.715	89.55
785.892	88.67
786.069	91.24
786.246	91.4
786.423	93.49
786.6	95.79
786.776	94.95
786.953	93.52
787.13	92.65
787.307	89.46
787.484	90.21
787.66	93.24
787.837	89.78
788.014	89.84
788.191	92.97
788.367	88.37
788.544	90.01
788.721	92.33
788.897	92.19
789.074	90.01
789.25	88.25
789.427	84.97
789.603	83.73
789.78	81.85
789.956	83.5
790.133	89.19
790.309	88.73
790.486	86.55
790.662	90.78
790.839	87.98
791.015	82.27
791.192	81.05
791.368	85.54
791.544	83.4
791.721	88.32
791.897	93.21
792.073	96.02
792.249	93.33
792.426	93.71
792.602	91.35
792.778	85.31
792.954	82.72
793.13	82.52
793.307	83.07
793.483	82.04
793.659	87.15
793.835	87.92
794.011	94.35
794.187	92.57
794.363	93.16
794.539	89.63
794.715	92.51
794.891	86
795.067	81.78
795.243	82
795.419	81.24
795.595	80.64
795.771	82.89
795.947	87.73
796.122	85.93
796.298	87.97
796.474	81.15
796.65	79.38
796.826	76.98
797.001	82.18
797.177	78.65
797.353	77.56
797.529	79.75
797.704	84
797.88	76.61
798.056	79.12
798.231	85.64
798.407	80.32
798.582	80.03
798.758	81.42
798.934	83.98
799.109	80.76
799.285	84.36
799.46	83.79
799.636	91.23
799.811	83.37
799.986	83.35
800.162	79.8
800.337	79.9
800.513	71.84
800.688	79.47
800.863	79.31
801.039	85.4
801.214	86.61
801.389	86.15
801.565	79.17
801.74	87.66
801.915	86.23
802.09	83.42
802.265	89.07
802.441	93.77
802.616	81.94
802.791	78.15
802.966	80.2
803.141	79.43
803.316	79.98
803.491	86.65
803.666	89.65
803.841	87.9
804.016	88.91
804.191	88.54
804.366	91.76
804.541	88.27
804.716	83.56
804.891	78.53
805.066	77.91
805.241	76.21
805.416	74.75
805.591	74.93
805.765	78.01
805.94	74.76
806.115	68.53
806.29	70.51
806.464	71.7
806.639	64.48
806.814	70.44
806.989	73.01
807.163	70.23
807.338	71.55
807.512	76.92
807.687	74.58
807.862	71.23
808.036	70.35
808.211	69.63
808.385	67.96
808.56	70.2
808.734	69.07
808.909	71.8
809.083	71.68
809.258	72.24
809.432	70.65
809.606	64.43
809.781	62.91
809.955	61.7
810.13	63.61
810.304	60.83
810.478	72.64
810.652	77.23
810.827	82.55
811.001	79.79
811.175	83.32
811.349	83.57
811.524	79.78
811.698	75.26
811.872	77.95
812.046	75.88
812.22	71.47
812.394	78.46
812.568	83.8
812.742	81.68
812.916	83.45
813.09	82.4
813.264	80.44
813.438	79.39
813.612	83.62
813.786	77.91
813.96	79.68
814.134	67.77
814.308	70.77
814.482	65.62
814.656	68.68
814.83	65.42
815.003	73.16
815.177	66.66
815.351	67.34
815.525	68.09
815.698	73.42
815.872	73.6
816.046	78.7
816.219	70.18
816.393	65.44
816.567	65.54
816.74	59.94
816.914	51.63
817.088	61.82
817.261	65.04
817.435	73.49
817.608	87.89
817.782	91.02
817.955	96.76
818.129	102.97
818.302	85.8
818.475	80.29
818.649	85.83
818.822	76.18
818.996	70.35
819.169	79.39
819.342	66.72
819.516	58.21
819.689	66.41
819.862	72.93
820.035	66.26
820.209	72.12
820.382	87.31
820.555	80.4
820.728	71.81
820.901	71.33
821.075	81.29
821.248	89.58
821.421	94.61
821.594	95.7
821.767	102.83
821.94	103.16
822.113	83.17
822.286	77.61
822.459	83.84
822.632	85.44
822.805	78.68
822.978	81.33
823.151	80.58
823.324	75.1
823.496	74.65
823.669	71.18
823.842	58.93
824.015	59.25
824.188	52.01
824.361	49.42
824.533	53.38
824.706	63.13
824.879	67.83
825.051	74.81
825.224	64.81
825.397	49.85
825.569	65.73
825.742	61.35
825.915	36.35
826.087	37.17
826.26	48.53
826.432	34.16
826.605	39.89
826.777	58.49
826.95	58.9
827.122	51.97
827.295	46.2
827.467	49.73
827.64	41.78
827.812	43.17
827.984	53.58
828.157	52.58
828.329	56.12
828.501	69.67
828.674	66.97
828.846	63.62
829.018	72.93
829.19	61.41
829.363	48.61
829.535	55.06
829.707	62.26
829.879	53.63
830.051	66.06
830.223	78.18
830.395	70.6
830.568	56.02
830.74	59.27
830.912	51.3
831.084	64.13
831.256	64.12
831.428	63.71
831.6	72.08
831.772	84.09
831.943	74.71
832.115	70.24
832.287	87.22
832.459	70.86
832.631	66.56
832.803	57.25
832.975	66.71
833.146	51.49
833.318	68.97
833.49	71.82
833.662	75.55
833.833	69.25
834.005	81.58
834.177	76.93
834.348	59.53
834.52	64.86
834.692	49.91
834.863	49.84
835.035	48.34
835.206	45.88
835.378	37.34
835.549	44.4
835.721	43.2
835.892	44.12
836.064	55.04
836.235	70.49
836.407	68.05
836.578	45.66
836.749	38.8
836.921	28.55
837.092	34.95
837.264	30.07
837.435	44.69
837.606	42.19
837.777	33.05
837.949	9.87
838.12	13.25
838.291	13.22
838.462	29.6
838.633	68.27
838.805	89.51
838.976	111.57
839.147	111.4
839.318	87.99
839.489	82.77
839.66	85.76
839.831	85.23
840.002	72.87
840.173	114.82
840.344	88.42
840.515	92.01
840.686	72.55
840.857	82.2
841.028	80.57
841.199	80.52
841.369	65
841.54	74.71
841.711	62.37
841.882	45.01
842.053	45.86
842.223	47.82
842.394	48.14
842.565	45.37
842.736	35.84
842.906	-10.91
843.077	15.41
843.248	55.05
843.418	65.06
843.589	69.42
843.759	78.43
843.93	70.16
844.101	75.8
844.271	84.2
844.442	96.27
844.612	109.72
844.783	112.85
844.953	92.76
845.123	98.83
845.294	78.56
845.464	63.61
845.635	95.29
845.805	109.92
845.975	99.52
846.146	134.71
846.316	116.66
846.486	116.18
846.656	90.4
846.827	87
846.997	70.21
847.167	57.94
847.337	51.35
847.507	60.81
847.677	57.48
847.848	54.71
848.018	98.98
848.188	62.15
848.358	75.15
848.528	69.28
848.698	113.87
848.868	94.86
849.038	123.76
849.208	75.96
849.378	82.62
849.548	44.77
849.718	55.09
849.887	46.26
850.057	61.23
850.227	68.95
850.397	58.02
850.567	55.84
850.737	60.16
850.906	54.44
851.076	63.7
851.246	72.86
851.415	63.08
851.585	71.75
851.755	59.47
851.924	44.32
852.094	52.41
852.264	47.76
852.433	33.55
852.603	51.57
852.772	53.6
852.942	48.59
853.111	52.58
853.281	62.62
853.45	62.77
853.62	51
853.789	31.88
853.959	52.72
854.128	48.07
854.297	42.45
854.467	51.46
854.636	51.42
854.805	66.73
854.975	91.19
855.144	74.74
855.313	58.39
855.482	66.65
855.652	64.58
855.821	54.22
855.99	55.94
856.159	62.21
856.328	72.6
856.497	49.46
856.667	43.39
856.836	36.77
857.005	40.47
857.174	25.77
857.343	25.84
857.512	3.28
857.681	-21.94
857.85	-19.51
858.019	-32.7
858.188	-25.94
858.356	-5.68
858.525	17.72
858.694	31.74
858.863	60.63
859.032	56.57
859.201	59.5
859.369	56.3
859.538	41.78
859.707	30.46
859.876	26.72
860.044	35.47
860.213	42.72
860.382	76.47
860.55	80.15
860.719	89.18
860.888	135.18
861.056	123.28
861.225	116.86
861.393	131.81
861.562	133.2
861.73	115.37
861.899	79.98
862.067	58.6
862.236	48.81
862.404	27.43
862.572	26.01
862.741	17.3
862.909	22.42
863.078	19.32
863.246	31.56
863.414	31.01
863.582	41.68
863.751	44.63
863.919	36.65
864.087	33.44
864.255	53.35
864.424	55.25
864.592	38.24
864.76	49.35
864.928	40.4
865.096	19.93
865.264	18.6
865.432	24.08
865.6	8.1
865.768	27.55
865.936	26.59
866.104	36.75
866.272	33.61
866.44	35.03
866.608	22.17
866.776	38.84
866.944	53.34
867.112	72.7
867.28	63.18
867.448	63.25
867.615	46.45
867.783	35.42
867.951	30.38
868.119	61.59
868.286	79.98
868.454	89.79
868.622	93.04
868.789	97.82
868.957	72.35
869.125	42.61
869.292	28.04
869.46	35.7
869.627	27.58
869.795	35.36
869.963	63.24
870.13	47.94
870.298	22.11
870.465	50.11
870.632	36.5
870.8	31.46
870.967	61.84
871.135	90.31
871.302	49.42
871.469	62.61
871.637	40.93
871.804	52.93
871.971	43.24
872.139	78.46
872.306	75.84
872.473	92.58
872.64	72.66
872.807	68.09
872.975	32.44
873.142	34.44
873.309	7.75
873.476	25.88
873.643	8.06
873.81	40.61
873.977	31.78
874.144	42.08
874.311	38.16
874.478	51.49
874.645	40.95
874.812	57.13
874.979	60.69
875.146	41.43
875.313	15.94
875.48	26.75
875.647	32.04
875.813	49.12
875.98	74.15
876.147	82.01
876.314	55.71
876.481	53.61
876.647	15.3
876.814	16.36
876.981	20.63
877.147	5.9
877.314	-0.45
877.481	10.26
877.647	1.02
877.814	-5
877.98	5.81
878.147	-23.39
878.314	5.06
878.48	40.2
878.647	57.38
878.813	50.17
878.979	50.14
879.146	24.03
879.312	-57.98
879.479	-35.8
879.645	-10.83
879.811	12.8
879.978	14.34
880.144	50.3
880.31	59.57
880.477	39.43
880.643	23.69
880.809	39.42
880.975	36.14
881.142	-29.77
881.308	-20.48
881.474	-19.88
881.64	-95.45
881.806	-345.99
881.972	-113.67
882.138	20.49
882.304	-2.03
882.47	-18.91
882.636	20.26
882.802	39.93
882.968	38.5
883.134	58.05
883.3	68.99
883.466	61.44
883.632	67.03
883.798	37.61
883.964	-0.82
884.129	76.98
884.295	55.91
884.461	36.36
884.627	22.61
884.793	41.24
884.958	29.98
885.124	41.21
885.29	25.71
885.455	30.39
885.621	24.59
885.787	26.6
885.952	12.79
886.118	26.69
886.283	55.6
886.449	57.28
886.614	69.76
886.78	87.3
886.945	107.33
887.111	74.47
887.276	69.74
887.442	34.42
887.607	-2.19
887.773	-74.99
887.938	-69.82
888.103	-33.72
888.269	43.47
888.434	48.41
888.599	53.45
888.764	54.14
888.93	57.02
889.095	39.54
889.26	37.57
889.425	57.27
889.59	78.4
889.756	41.34
889.921	29.29
890.086	0.03
890.251	-2.06
890.416	-41.35
890.581	-60.58
890.746	-2.7
890.911	37.58
891.076	17.82
891.241	49.01
891.406	65.59
891.571	40.38
891.736	-2.59
891.901	11.96
892.065	39.62
892.23	42.24
892.395	23.63
892.56	27.28
892.725	48.08
892.889	-25.18
893.054	0.03
893.219	-1.26
893.384	9.56
893.548	-6.53
893.713	-10.1
893.878	-36.79
