Data from Ofav_PP_Phys_367_Reflection_3.txt Node
Date: Tue Jul 27 19:08:22 EDT 2021
User: USUARIO
Spectrometer: FLMT01687
Trigger mode: 0
Integration Time (sec): 8.500000E-1
Scans to average: 2
Electric dark correction enabled: true
Nonlinearity correction enabled: false
Boxcar width: 2
XAxis mode: Wavelengths
Number of Pixels in Spectrum: 3648
>>>>>Begin Spectral Data<<<<<
179.494	-1585.19
179.716	-535.75
179.937	-372.36
180.158	-333.67
180.38	-357.36
180.601	-258.6
180.823	69.28
181.044	70.6
181.265	38.92
181.486	104.8
181.708	43.62
181.929	74.21
182.15	54.63
182.372	104.32
182.593	95.81
182.814	64.7
183.035	41.95
183.257	49.07
183.478	43.23
183.699	44.72
183.92	66.91
184.141	70.36
184.363	86.71
184.584	103.16
184.805	120.53
185.026	105.19
185.247	125.13
185.468	94.77
185.689	70.53
185.91	31.04
186.132	13.42
186.353	34.12
186.574	27.31
186.795	14.22
187.016	47.04
187.237	43.05
187.458	17.79
187.679	49.32
187.9	71.09
188.121	79.99
188.342	86.12
188.563	98.02
188.784	86.17
189.005	77.99
189.226	73.94
189.447	66.01
189.667	74.98
189.888	81.21
190.109	90.23
190.33	81.56
190.551	68.18
190.772	59.59
190.993	39.97
191.214	25.89
191.434	41.59
191.655	59.45
191.876	61.71
192.097	53.75
192.318	63.14
192.538	59.5
192.759	62.88
192.98	57.36
193.201	77.32
193.421	98.62
193.642	77.23
193.863	54.7
194.083	57.87
194.304	39.11
194.525	13.38
194.745	-20.22
194.966	-33.3
195.187	-61.69
195.407	-13.43
195.628	28.17
195.848	77.86
196.069	115.84
196.29	176.56
196.51	137.25
196.731	105.5
196.951	99.73
197.172	86.11
197.392	83.57
197.613	92.16
197.833	81.44
198.054	79.47
198.274	73.97
198.495	93.49
198.715	128.19
198.936	123.27
199.156	118.22
199.377	149.64
199.597	156.41
199.817	77.18
200.038	102.39
200.258	48.94
200.479	26.26
200.699	12.28
200.919	30.17
201.14	35.66
201.36	32.1
201.58	57.49
201.801	53.3
202.021	41.7
202.241	53.59
202.461	55.19
202.682	17.06
202.902	33.41
203.122	30.97
203.342	43.26
203.563	54.44
203.783	66.91
204.003	53.75
204.223	64.94
204.443	67.84
204.663	67.63
204.884	58.97
205.104	68.46
205.324	80.7
205.544	70.5
205.764	64.06
205.984	55.38
206.204	64.8
206.424	42.99
206.644	47.34
206.864	41.81
207.084	44.53
207.304	30.99
207.525	21.83
207.745	26.24
207.964	55.84
208.184	72.81
208.404	104.61
208.624	106.05
208.844	102.62
209.064	108.69
209.284	77.93
209.504	65.78
209.724	67.08
209.944	53.47
210.164	50.66
210.384	85.09
210.604	101.37
210.823	81.23
211.043	73.43
211.263	75.39
211.483	101.47
211.703	105.58
211.922	118.78
212.142	139.26
212.362	70.6
212.582	65.5
212.801	33.1
213.021	26.82
213.241	29.99
213.461	45.81
213.68	34.78
213.9	53.59
214.12	30.1
214.339	48.36
214.559	45.14
214.779	52.52
214.998	40.72
215.218	47.8
215.438	52.42
215.657	55.53
215.877	55.88
216.096	67.85
216.316	69.55
216.535	47.76
216.755	65.47
216.974	61.08
217.194	67.68
217.413	70.71
217.633	63.31
217.852	42.36
218.072	36.4
218.291	17.27
218.511	8.38
218.73	37.52
218.95	32.49
219.169	33.86
219.389	41.44
219.608	67.67
219.827	65.58
220.047	104.93
220.266	74.36
220.485	71.65
220.705	68.24
220.924	53.39
221.143	41.06
221.363	29.91
221.582	25.62
221.801	20.96
222.021	52.38
222.24	60.45
222.459	71.73
222.678	101.29
222.897	91.95
223.117	87.04
223.336	77.24
223.555	51.8
223.774	36.82
223.993	44
224.213	30.84
224.432	32.16
224.651	63.43
224.87	47.13
225.089	53.6
225.308	40.07
225.527	59.43
225.746	53.52
225.965	102.24
226.184	66.92
226.404	72.23
226.623	44.66
226.842	29.11
227.061	0.28
227.28	22.44
227.499	47.46
227.718	60.56
227.936	94.61
228.155	81.14
228.374	79.34
228.593	80.02
228.812	90.82
229.031	76.99
229.25	89.33
229.469	99.28
229.688	50.92
229.907	-6.37
230.125	0.08
230.344	17.99
230.563	42.61
230.782	66.69
231.001	72.8
231.22	78.72
231.438	61.55
231.657	36.4
231.876	34.76
232.095	48.91
232.313	53.87
232.532	45.63
232.751	59.07
232.969	74.58
233.188	76.27
233.407	71.58
233.625	85.68
233.844	68.27
234.063	53.54
234.281	53.84
234.5	33.07
234.719	39.59
234.937	40.75
235.156	28.19
235.374	29.61
235.593	49.04
235.811	39.1
236.03	35.07
236.249	47.28
236.467	49.09
236.686	45.66
236.904	51.6
237.123	62.96
237.341	49.67
237.559	48.54
237.778	45.43
237.996	41.28
238.215	28.46
238.433	40.82
238.652	29.17
238.87	31.54
239.088	24.22
239.307	47.13
239.525	31.51
239.743	26.87
239.962	22.06
240.18	32.8
240.398	37.56
240.617	47.29
240.835	71.53
241.053	86.7
241.271	87.25
241.49	79.24
241.708	101.42
241.926	58.02
242.144	29.96
242.363	34.13
242.581	43.04
242.799	23.31
243.017	31.89
243.235	68.52
243.453	80.68
243.672	68.2
243.89	66.97
244.108	68.34
244.326	61.22
244.544	40.9
244.762	41.12
244.98	56.11
245.198	63.67
245.416	66.85
245.634	78.04
245.852	86.36
246.07	75.04
246.288	59.81
246.506	49.05
246.724	50.48
246.942	41.54
247.16	35.19
247.378	50.34
247.596	57.05
247.814	57.63
248.032	57.54
248.25	53.24
248.468	57.39
248.685	57.18
248.903	51.13
249.121	57.58
249.339	51.98
249.557	57.96
249.775	31.11
249.992	21.53
250.21	20.7
250.428	26.54
250.646	2.77
250.863	27.75
251.081	40.44
251.299	45.55
251.517	52.93
251.734	93.22
251.952	92.62
252.17	98.24
252.387	93.64
252.605	103.11
252.823	64.76
253.04	70.94
253.258	75.38
253.475	63.82
253.693	68.54
253.911	81.51
254.128	72.58
254.346	73.56
254.563	81.74
254.781	73.51
254.998	78.46
255.216	58.55
255.433	58.08
255.651	61.31
255.868	51.17
256.086	37.32
256.303	41.89
256.521	37.53
256.738	30.55
256.956	34.63
257.173	45.5
257.39	57.04
257.608	52.15
257.825	74.07
258.043	63.52
258.26	61.27
258.477	58.76
258.695	64.53
258.912	46.92
259.129	50.49
259.346	39.97
259.564	51.28
259.781	69.69
259.998	55.35
260.216	60.03
260.433	64.55
260.65	66.87
260.867	53.36
261.084	67.8
261.302	77.76
261.519	65.8
261.736	51.54
261.953	43.9
262.17	41.03
262.387	27.66
262.604	31.11
262.822	43.28
263.039	59.82
263.256	72.48
263.473	94.28
263.69	115.96
263.907	90.72
264.124	83.85
264.341	60.67
264.558	65.24
264.775	67.62
264.992	67.28
265.209	61.02
265.426	60.77
265.643	43.95
265.86	24.97
266.077	18.05
266.294	38.14
266.51	44.93
266.727	54.95
266.944	70.05
267.161	21.44
267.378	-4.89
267.595	-0.12
267.812	-12.37
268.028	-20.66
268.245	46.63
268.462	56.5
268.679	44.19
268.896	54.8
269.112	41.56
269.329	44.3
269.546	47.38
269.763	38.98
269.979	47.77
270.196	64.6
270.413	74.42
270.629	79.61
270.846	87.07
271.063	63.95
271.279	52.91
271.496	41.82
271.712	29.29
271.929	44.11
272.146	63.72
272.362	81.83
272.579	64.63
272.795	79.52
273.012	71.8
273.228	64.17
273.445	46.01
273.661	50.93
273.878	36.98
274.094	27.55
274.311	43.55
274.527	44.65
274.744	54.26
274.96	63.64
275.177	65.07
275.393	56.5
275.609	62.81
275.826	72.7
276.042	76.93
276.259	83.89
276.475	79.37
276.691	68.13
276.908	56.61
277.124	50.49
277.34	61.01
277.557	63.32
277.773	76.55
277.989	70.67
278.205	62.25
278.422	39.52
278.638	47.99
278.854	45.57
279.07	38.92
279.286	41.26
279.503	53.16
279.719	53.82
279.935	64.88
280.151	69.13
280.367	74.57
280.583	77.03
280.799	77.58
281.016	70.64
281.232	76.55
281.448	66.92
281.664	51.26
281.88	34.64
282.096	29.53
282.312	8.21
282.528	-6.22
282.744	13.69
282.96	31.33
283.176	49.63
283.392	67.88
283.608	101.88
283.824	70.48
284.04	54.19
284.256	48.45
284.471	45.19
284.687	40.63
284.903	45.27
285.119	64.42
285.335	58.2
285.551	48.06
285.767	46.01
285.982	41.86
286.198	29.83
286.414	20.43
286.63	29.2
286.846	25.8
287.061	19.09
287.277	6.78
287.493	16.1
287.709	17.55
287.924	30.05
288.14	61.81
288.356	98.59
288.571	104.79
288.787	96.12
289.003	92.68
289.218	97.99
289.434	68.85
289.65	59.46
289.865	45.44
290.081	61.53
290.296	26.23
290.512	36.13
290.727	34.75
290.943	67.48
291.159	78.34
291.374	123.65
291.59	96.48
291.805	92.3
292.021	85.06
292.236	73.74
292.451	58.19
292.667	52.45
292.882	41.18
293.098	25.27
293.313	35.78
293.529	45.13
293.744	34.94
293.959	46.72
294.175	51.02
294.39	34.52
294.605	45.1
294.821	53.94
295.036	42.92
295.251	47.71
295.467	44.03
295.682	8.46
295.897	42.25
296.112	64.6
296.328	54.16
296.543	61.96
296.758	49.7
296.973	37.68
297.188	44.74
297.404	41.2
297.619	43.58
297.834	62.8
298.049	66.61
298.264	48.65
298.479	51.75
298.694	58.49
298.909	51.84
299.125	50.79
299.34	50.42
299.555	51.73
299.77	44.25
299.985	37.47
300.2	36.24
300.415	52.43
300.63	51.61
300.845	49.37
301.06	59.61
301.275	54.32
301.49	45.5
301.704	29.1
301.919	29.77
302.134	47.14
302.349	41.97
302.564	35.22
302.779	46.19
302.994	48.04
303.209	42.4
303.423	37.96
303.638	48.74
303.853	31.62
304.068	46.46
304.283	43.93
304.497	49.46
304.712	47.8
304.927	53.37
305.142	44.2
305.356	28.69
305.571	27.27
305.786	15.89
306	28.24
306.215	34.04
306.43	57.93
306.644	67.72
306.859	85.97
307.074	102.85
307.288	106.72
307.503	91.02
307.717	83.19
307.932	64.2
308.147	57.45
308.361	54.55
308.576	63.31
308.79	70.7
309.005	80.48
309.219	56.57
309.434	57.24
309.648	44.52
309.863	34.7
310.077	43.56
310.292	54.69
310.506	43.16
310.72	58.31
310.935	64.76
311.149	47.92
311.364	56.75
311.578	52.69
311.792	46.37
312.007	51.02
312.221	51.28
312.435	50.28
312.649	58.67
312.864	14.63
313.078	-11.49
313.292	-34.46
313.507	-29.84
313.721	-12.86
313.935	30.85
314.149	37.14
314.363	43.37
314.578	45.21
314.792	40.78
315.006	54.79
315.22	56.69
315.434	60.82
315.648	72.17
315.862	68.8
316.077	65.32
316.291	68.16
316.505	50.33
316.719	42.18
316.933	47.36
317.147	29.43
317.361	29.13
317.575	44.61
317.789	55.68
318.003	60.71
318.217	80.27
318.431	76.7
318.645	73.77
318.859	75.37
319.073	46.38
319.287	36.16
319.5	41.23
319.714	35.55
319.928	36.53
320.142	55.69
320.356	57.1
320.57	53.4
320.784	62
320.997	62.84
321.211	58.72
321.425	47.19
321.639	31.64
321.853	21.48
322.066	13.48
322.28	6.58
322.494	6.23
322.707	34.46
322.921	36.16
323.135	27.94
323.349	38.06
323.562	49.78
323.776	37.08
323.989	20.76
324.203	28.24
324.417	12.44
324.63	27.89
324.844	32.3
325.057	43.68
325.271	59.5
325.485	69.15
325.698	56.28
325.912	57.25
326.125	64.38
326.339	64.57
326.552	61.31
326.766	63.07
326.979	59.95
327.193	59.83
327.406	52.88
327.619	60.68
327.833	52.47
328.046	56.91
328.26	52.17
328.473	44.14
328.686	34.7
328.9	50.98
329.113	44.39
329.326	24.71
329.54	35.2
329.753	38.63
329.966	14.4
330.179	19.13
330.393	42.67
330.606	30.76
330.819	41.59
331.032	36.96
331.246	47.37
331.459	52.86
331.672	68.48
331.885	55.25
332.098	67.67
332.311	60.63
332.525	59.51
332.738	37.75
332.951	57.58
333.164	53.1
333.377	49.88
333.59	46.1
333.803	61.28
334.016	40.36
334.229	30.77
334.442	41.89
334.655	40.5
334.868	51.55
335.081	68.51
335.294	86
335.507	85.66
335.72	99.67
335.933	66.53
336.146	57.13
336.359	37.6
336.572	54.48
336.785	43.57
336.997	69.19
337.21	90.39
337.423	100.02
337.636	78.25
337.849	61.38
338.062	49.51
338.274	31.52
338.487	40.55
338.7	36.5
338.913	45.24
339.125	52.78
339.338	54.5
339.551	31.74
339.763	29.08
339.976	30.69
340.189	11.4
340.402	4.43
340.614	7.31
340.827	30.84
341.039	17.53
341.252	26.92
341.465	26.5
341.677	30.59
341.89	17.47
342.102	26.8
342.315	22.32
342.527	25.58
342.74	27.83
342.952	15.25
343.165	26.74
343.377	36.51
343.59	28
343.802	38.19
344.015	44.08
344.227	42.22
344.44	37.92
344.652	74.13
344.864	51.95
345.077	54.01
345.289	36.88
345.502	28.23
345.714	23.53
345.926	30.35
346.139	26.79
346.351	37.23
346.563	29.68
346.775	29.97
346.988	28.25
347.2	36.33
347.412	50.74
347.624	73.47
347.837	59.61
348.049	52.66
348.261	38.61
348.473	26.32
348.685	34.55
348.897	40.85
349.11	36.3
349.322	19.1
349.534	21.36
349.746	20.95
349.958	41.71
350.17	50.77
350.382	57.42
350.594	57.62
350.806	56.94
351.018	34.14
351.23	23.56
351.442	39.19
351.654	56.83
351.866	41.64
352.078	44.87
352.29	48.24
352.502	38.13
352.714	39.8
352.926	53.75
353.138	60.55
353.35	70.53
353.561	77.22
353.773	73.81
353.985	58.97
354.197	48.01
354.409	38.65
354.621	38.22
354.832	37.5
355.044	30.84
355.256	39.96
355.468	41.42
355.679	37.81
355.891	49.9
356.103	69.14
356.314	72.69
356.526	67.12
356.738	78.12
356.949	61.79
357.161	51.5
357.373	37.83
357.584	44.44
357.796	57.99
358.008	52.46
358.219	62.43
358.431	60.32
358.642	53.35
358.854	45.87
359.065	45.38
359.277	47.56
359.488	56.53
359.7	53.18
359.911	40.65
360.123	48.12
360.334	30.36
360.546	15.8
360.757	16.45
360.969	20.82
361.18	13.6
361.391	20.61
361.603	19.43
361.814	23.03
362.025	34.74
362.237	42.11
362.448	41.46
362.659	39.59
362.871	41.71
363.082	36.28
363.293	43.72
363.504	47.14
363.716	52.27
363.927	51.12
364.138	49.07
364.349	20.6
364.56	20.59
364.772	26.18
364.983	28.99
365.194	25.97
365.405	34.27
365.616	23.79
365.827	33.09
366.038	36.54
366.25	39.55
366.461	47.26
366.672	85.07
366.883	57.19
367.094	52.31
367.305	45.31
367.516	40.43
367.727	34.78
367.938	35.12
368.149	41.39
368.36	43.32
368.571	37.96
368.781	37.29
368.992	32.69
369.203	26.12
369.414	28.15
369.625	39.27
369.836	40.58
370.047	54.78
370.258	59.53
370.468	59.1
370.679	36.47
370.89	20.25
371.101	16.29
371.312	25
371.522	18.54
371.733	32.68
371.944	40.3
372.155	42.59
372.365	16.4
372.576	22.72
372.787	27.14
372.997	39.88
373.208	34.36
373.419	44.71
373.629	49.16
373.84	47.78
374.05	41.37
374.261	35.94
374.472	41.34
374.682	38.13
374.893	44.26
375.103	39.21
375.314	49.2
375.524	65.84
375.735	59.97
375.945	52.91
376.156	57.72
376.366	59.76
376.577	39.82
376.787	38.81
376.997	33.25
377.208	35.95
377.418	29.14
377.629	37.59
377.839	44.84
378.049	44.76
378.26	44.79
378.47	51.49
378.68	52.78
378.89	53.86
379.101	47.24
379.311	30.34
379.521	19.6
379.732	20.88
379.942	24.68
380.152	30.37
380.362	45.9
380.572	48.77
380.783	41.1
380.993	30.17
381.203	24.81
381.413	14.32
381.623	16.34
381.833	15.63
382.043	28.25
382.253	37.68
382.463	36.43
382.674	46.85
382.884	41.54
383.094	28.43
383.304	24.4
383.514	30
383.724	11.04
383.934	10.62
384.144	9.25
384.353	7.25
384.563	9.55
384.773	17.5
384.983	17.27
385.193	23.73
385.403	24.87
385.613	23.1
385.823	21.11
386.033	23.26
386.242	21.99
386.452	21.55
386.662	25.81
386.872	25.28
387.082	23.3
387.291	11.59
387.501	10.75
387.711	2.1
387.921	5.34
388.13	8.54
388.34	14.86
388.55	14.13
388.759	15.52
388.969	13.99
389.179	14.23
389.388	16.12
389.598	18.17
389.807	18.95
390.017	15.45
390.227	16.08
390.436	15.99
390.646	13.64
390.855	9.37
391.065	9.88
391.274	8.23
391.484	5.52
391.693	6.82
391.903	10.74
392.112	10.59
392.322	11.79
392.531	12.46
392.74	11.72
392.95	10.45
393.159	11.5
393.369	9.95
393.578	11.16
393.787	10.79
393.997	10.7
394.206	11.55
394.415	11.9
394.625	10.59
394.834	10.36
395.043	10.69
395.252	9.45
395.462	9.68
395.671	9.55
395.88	10.67
396.089	10.71
396.298	10.57
396.508	10.47
396.717	10.85
396.926	10.08
397.135	9.02
397.344	8.9
397.553	8.97
397.762	8.61
397.971	8.36
398.181	8.76
398.39	8.56
398.599	8.28
398.808	8.57
399.017	9
399.226	9.11
399.435	9.36
399.644	9.5
399.853	9.43
400.062	9.36
400.27	8.97
400.479	8.48
400.688	8.47
400.897	8.19
401.106	8.21
401.315	8.55
401.524	8.8
401.733	8.39
401.941	8.26
402.15	8.13
402.359	7.86
402.568	7.97
402.777	8
402.985	7.98
403.194	8.05
403.403	8.19
403.612	8
403.82	7.89
404.029	8.09
404.238	8
404.446	8.04
404.655	8.07
404.864	8.27
405.072	8.23
405.281	8.08
405.489	7.85
405.698	7.97
405.906	7.79
406.115	7.7
406.324	7.67
406.532	7.52
406.741	7.5
406.949	7.69
407.158	7.61
407.366	7.4
407.574	7.62
407.783	7.39
407.991	7.28
408.2	7.3
408.408	7.56
408.617	7.32
408.825	7.44
409.033	7.37
409.242	7.31
409.45	7.2
409.658	7.38
409.867	7.32
410.075	7.19
410.283	7.22
410.491	7.22
410.7	7.13
410.908	7.16
411.116	7.3
411.324	7.19
411.533	7.05
411.741	6.83
411.949	6.68
412.157	6.65
412.365	6.9
412.573	6.88
412.781	7.06
412.99	7.15
413.198	7.26
413.406	7.16
413.614	7.27
413.822	7.36
414.03	7.3
414.238	7.1
414.446	7.05
414.654	6.99
414.862	6.86
415.07	6.77
415.278	6.82
415.486	6.74
415.694	6.61
415.902	6.55
416.109	6.62
416.317	6.62
416.525	6.58
416.733	6.67
416.941	6.82
417.149	6.76
417.357	6.73
417.564	6.63
417.772	6.58
417.98	6.56
418.188	6.66
418.395	6.58
418.603	6.65
418.811	6.81
419.019	6.72
419.226	6.77
419.434	6.99
419.642	7.11
419.849	6.93
420.057	6.99
420.265	6.97
420.472	6.81
420.68	6.77
420.887	6.79
421.095	6.66
421.302	6.55
421.51	6.46
421.717	6.33
421.925	6.36
422.132	6.45
422.34	6.24
422.547	6.19
422.755	6.36
422.962	6.28
423.17	6.25
423.377	6.57
423.585	6.81
423.792	6.73
423.999	6.71
424.207	6.7
424.414	6.45
424.621	6.32
424.829	6.17
425.036	6.23
425.243	6.33
425.451	6.26
425.658	6.2
425.865	6.39
426.072	6.45
426.28	6.23
426.487	6.44
426.694	6.36
426.901	6.13
427.108	6.02
427.315	6.09
427.523	5.87
427.73	5.9
427.937	5.97
428.144	5.96
428.351	5.86
428.558	6.02
428.765	5.99
428.972	5.96
429.179	5.96
429.386	5.88
429.593	5.69
429.8	5.82
430.007	5.9
430.214	5.85
430.421	6.05
430.628	6.22
430.835	6.17
431.042	6.01
431.249	6.16
431.456	6.2
431.662	6.19
431.869	6.29
432.076	6.37
432.283	6.26
432.49	6.19
432.697	6.23
432.903	6.11
433.11	6.23
433.317	6.26
433.524	6.32
433.73	6.26
433.937	6.27
434.144	6.2
434.35	6.15
434.557	6.01
434.764	5.85
434.97	5.89
435.177	5.96
435.384	6.02
435.59	6.21
435.797	6.28
436.003	6.35
436.21	6.25
436.416	6.04
436.623	5.83
436.829	5.87
437.036	5.76
437.242	5.69
437.449	5.74
437.655	5.8
437.862	5.91
438.068	5.9
438.275	6.08
438.481	6.05
438.687	6.1
438.894	6.12
439.1	6.11
439.307	5.91
439.513	6.04
439.719	6
439.926	5.82
440.132	5.96
440.338	6.03
440.544	5.92
440.751	5.97
440.957	6.09
441.163	5.96
441.369	5.99
441.575	6.04
441.782	6.16
441.988	6.14
442.194	6.23
442.4	6.29
442.606	6.38
442.812	6.24
443.018	6.15
443.224	6.05
443.431	5.93
443.637	5.96
443.843	5.88
444.049	6.07
444.255	6.03
444.461	6.04
444.667	5.96
444.873	5.96
445.079	5.86
445.284	5.9
445.49	5.84
445.696	5.84
445.902	5.93
446.108	5.9
446.314	5.87
446.52	6.05
446.726	6.07
446.931	6.08
447.137	6.08
447.343	6.1
447.549	5.95
447.755	5.85
447.96	5.82
448.166	5.87
448.372	5.97
448.578	5.97
448.783	5.98
448.989	5.92
449.195	5.81
449.4	5.73
449.606	5.78
449.812	5.74
450.017	5.91
450.223	5.93
450.428	5.94
450.634	5.86
450.84	5.93
451.045	5.83
451.251	5.87
451.456	5.85
451.662	5.85
451.867	5.89
452.073	5.83
452.278	5.83
452.483	5.66
452.689	5.76
452.894	5.74
453.1	5.84
453.305	5.93
453.51	6.08
453.716	5.97
453.921	6.03
454.127	6.01
454.332	5.95
454.537	5.93
454.742	5.88
454.948	5.8
455.153	5.79
455.358	5.74
455.563	5.82
455.769	6
455.974	5.96
456.179	5.92
456.384	5.87
456.589	5.89
456.795	5.78
457	5.86
457.205	5.77
457.41	5.9
457.615	5.78
457.82	5.73
458.025	5.61
458.23	5.66
458.435	5.52
458.64	5.43
458.845	5.54
459.05	5.52
459.255	5.54
459.46	5.53
459.665	5.66
459.87	5.66
460.075	5.76
460.28	5.77
460.485	5.77
460.69	5.8
460.895	5.83
461.099	5.85
461.304	5.81
461.509	5.76
461.714	5.72
461.919	5.7
462.123	5.62
462.328	5.67
462.533	5.71
462.738	5.74
462.942	5.61
463.147	5.66
463.352	5.54
463.556	5.67
463.761	5.53
463.966	5.56
464.17	5.66
464.375	5.75
464.58	5.65
464.784	5.79
464.989	5.86
465.193	5.78
465.398	5.83
465.602	5.98
465.807	5.92
466.011	5.91
466.216	5.87
466.42	5.83
466.625	5.7
466.829	5.68
467.034	5.77
467.238	5.82
467.443	5.85
467.647	5.8
467.851	5.9
468.056	5.83
468.26	5.89
468.464	5.87
468.669	5.91
468.873	5.85
469.077	5.85
469.282	5.74
469.486	5.81
469.69	5.8
469.894	5.88
470.099	5.86
470.303	5.85
470.507	5.78
470.711	5.87
470.915	5.89
471.119	5.94
471.324	5.96
471.528	5.98
471.732	6.02
471.936	5.99
472.14	6.05
472.344	6.13
472.548	6.13
472.752	6.07
472.956	6.05
473.16	6.08
473.364	6
473.568	6.06
473.772	6.01
473.976	5.96
474.18	5.82
474.384	5.9
474.588	5.86
474.792	5.94
474.995	5.87
475.199	5.89
475.403	5.87
475.607	5.85
475.811	5.79
476.015	5.88
476.218	5.84
476.422	5.78
476.626	5.72
476.83	5.75
477.033	5.84
477.237	5.91
477.441	5.9
477.644	5.9
477.848	5.96
478.052	5.8
478.255	5.8
478.459	5.86
478.663	5.88
478.866	5.77
479.07	5.85
479.273	5.85
479.477	5.88
479.681	5.98
479.884	5.97
480.088	5.99
480.291	6.07
480.495	5.96
480.698	5.94
480.901	6.01
481.105	6.07
481.308	5.96
481.512	6.01
481.715	5.99
481.919	6.01
482.122	5.94
482.325	5.96
482.529	5.99
482.732	5.93
482.935	5.88
483.138	5.95
483.342	5.89
483.545	5.86
483.748	5.9
483.952	5.88
484.155	5.78
484.358	5.88
484.561	5.92
484.764	5.86
484.967	5.9
485.171	5.99
485.374	5.89
485.577	5.85
485.78	5.86
485.983	5.84
486.186	5.75
486.389	5.82
486.592	5.86
486.795	5.93
486.998	6
487.201	6.06
487.404	6.03
487.607	6.07
487.81	6.01
488.013	5.9
488.216	5.93
488.419	5.9
488.622	5.75
488.825	5.77
489.028	5.87
489.231	5.82
489.433	5.88
489.636	5.96
489.839	5.98
490.042	5.88
490.245	5.84
490.447	5.87
490.65	5.84
490.853	5.87
491.056	5.91
491.258	5.91
491.461	5.89
491.664	5.86
491.866	5.85
492.069	5.89
492.272	5.94
492.474	5.94
492.677	5.93
492.879	5.89
493.082	5.84
493.285	5.8
493.487	5.73
493.69	5.77
493.892	5.76
494.095	5.79
494.297	5.79
494.5	5.92
494.702	5.95
494.905	5.96
495.107	5.98
495.309	5.95
495.512	5.9
495.714	5.9
495.917	5.92
496.119	5.93
496.321	6.01
496.524	5.94
496.726	5.91
496.928	5.85
497.13	5.86
497.333	5.9
497.535	5.99
497.737	6
497.939	6.08
498.142	6.11
498.344	6.13
498.546	6.09
498.748	6.16
498.95	6.18
499.152	6.11
499.355	6.05
499.557	6.07
499.759	6.11
499.961	6.13
500.163	6.25
500.365	6.27
500.567	6.28
500.769	6.24
500.971	6.23
501.173	6.18
501.375	6.28
501.577	6.35
501.779	6.45
501.981	6.51
502.183	6.54
502.385	6.44
502.587	6.41
502.788	6.4
502.99	6.35
503.192	6.32
503.394	6.33
503.596	6.37
503.798	6.41
503.999	6.49
504.201	6.51
504.403	6.52
504.605	6.48
504.806	6.44
505.008	6.43
505.21	6.43
505.411	6.45
505.613	6.5
505.815	6.58
506.016	6.57
506.218	6.61
506.42	6.62
506.621	6.67
506.823	6.61
507.024	6.65
507.226	6.69
507.427	6.68
507.629	6.66
507.83	6.61
508.032	6.54
508.233	6.57
508.435	6.65
508.636	6.69
508.838	6.75
509.039	6.84
509.24	6.78
509.442	6.76
509.643	6.73
509.845	6.77
510.046	6.78
510.247	6.82
510.448	6.82
510.65	6.89
510.851	6.83
511.052	6.85
511.254	6.85
511.455	6.95
511.656	6.9
511.857	6.9
512.058	6.85
512.26	6.92
512.461	6.84
512.662	6.84
512.863	6.86
513.064	6.91
513.265	6.86
513.466	6.92
513.667	7.01
513.868	7
514.069	7.01
514.27	6.98
514.471	6.97
514.672	6.91
514.873	6.97
515.074	7.04
515.275	7.09
515.476	7.13
515.677	7.07
515.878	7.1
516.079	7.01
516.28	6.99
516.481	6.94
516.682	7.04
516.882	7.03
517.083	7.06
517.284	7.11
517.485	7.13
517.686	7.16
517.886	7.21
518.087	7.24
518.288	7.26
518.488	7.24
518.689	7.23
518.89	7.24
519.091	7.34
519.291	7.31
519.492	7.34
519.692	7.34
519.893	7.37
520.094	7.22
520.294	7.28
520.495	7.25
520.695	7.29
520.896	7.24
521.096	7.3
521.297	7.32
521.497	7.36
521.698	7.31
521.898	7.39
522.099	7.44
522.299	7.42
522.499	7.45
522.7	7.47
522.9	7.47
523.101	7.45
523.301	7.43
523.501	7.46
523.702	7.52
523.902	7.51
524.102	7.58
524.302	7.64
524.503	7.67
524.703	7.68
524.903	7.71
525.103	7.67
525.304	7.67
525.504	7.66
525.704	7.62
525.904	7.64
526.104	7.65
526.304	7.7
526.504	7.7
526.705	7.69
526.905	7.65
527.105	7.66
527.305	7.67
527.505	7.71
527.705	7.74
527.905	7.76
528.105	7.77
528.305	7.78
528.505	7.83
528.705	7.84
528.905	7.87
529.105	7.91
529.304	7.89
529.504	7.89
529.704	7.88
529.904	7.95
530.104	7.95
530.304	7.97
530.503	7.94
530.703	7.95
530.903	7.96
531.103	7.95
531.303	7.99
531.502	8.03
531.702	8.05
531.902	8
532.101	8.01
532.301	8.03
532.501	8.01
532.7	8.08
532.9	8.13
533.1	8.14
533.299	8.15
533.499	8.25
533.698	8.2
533.898	8.19
534.097	8.22
534.297	8.24
534.496	8.19
534.696	8.29
534.895	8.35
535.095	8.36
535.294	8.38
535.494	8.41
535.693	8.41
535.892	8.42
536.092	8.48
536.291	8.49
536.491	8.55
536.69	8.57
536.889	8.59
537.088	8.56
537.288	8.55
537.487	8.57
537.686	8.63
537.886	8.75
538.085	8.8
538.284	8.89
538.483	8.93
538.682	8.97
538.882	9.02
539.081	9.03
539.28	9.04
539.479	9.04
539.678	9.05
539.877	8.98
540.076	9.02
540.275	9.05
540.474	9.08
540.673	9.06
540.872	9.15
541.071	9.24
541.27	9.28
541.469	9.28
541.668	9.35
541.867	9.39
542.066	9.46
542.265	9.51
542.464	9.62
542.663	9.7
542.862	9.77
543.06	9.77
543.259	9.83
543.458	9.87
543.657	9.93
543.856	9.99
544.054	10
544.253	10.02
544.452	10.08
544.651	10.03
544.849	10.02
545.048	10.09
545.247	10.11
545.445	10.16
545.644	10.26
545.843	10.34
546.041	10.39
546.24	10.46
546.438	10.51
546.637	10.57
546.836	10.57
547.034	10.68
547.233	10.79
547.431	10.83
547.63	10.95
547.828	11.05
548.027	11.07
548.225	11.1
548.423	11.21
548.622	11.26
548.82	11.34
549.019	11.46
549.217	11.46
549.415	11.46
549.614	11.51
549.812	11.54
550.01	11.59
550.209	11.74
550.407	11.86
550.605	11.87
550.803	11.98
551.002	12.03
551.2	12.08
551.398	12.14
551.596	12.25
551.794	12.31
551.993	12.37
552.191	12.4
552.389	12.52
552.587	12.62
552.785	12.72
552.983	12.82
553.181	12.96
553.379	12.99
553.577	13.12
553.775	13.12
553.973	13.23
554.171	13.29
554.369	13.42
554.567	13.44
554.765	13.63
554.963	13.68
555.161	13.76
555.359	13.85
555.557	13.95
555.755	14
555.952	14.08
556.15	14.19
556.348	14.32
556.546	14.48
556.744	14.5
556.941	14.69
557.139	14.77
557.337	14.9
557.535	14.93
557.732	15.06
557.93	15.15
558.128	15.23
558.325	15.25
558.523	15.26
558.721	15.39
558.918	15.47
559.116	15.64
559.313	15.73
559.511	15.9
559.708	16
559.906	16.07
560.104	16.15
560.301	16.3
560.498	16.43
560.696	16.48
560.893	16.52
561.091	16.58
561.288	16.69
561.486	16.67
561.683	16.76
561.88	16.87
562.078	16.98
562.275	16.95
562.473	17.12
562.67	17.25
562.867	17.4
563.064	17.47
563.262	17.58
563.459	17.72
563.656	17.81
563.853	17.86
564.051	17.84
564.248	17.97
564.445	18.06
564.642	18.11
564.839	18.27
565.036	18.55
565.234	18.64
565.431	18.74
565.628	18.88
565.825	18.9
566.022	18.92
566.219	18.99
566.416	19.02
566.613	19.08
566.81	19.18
567.007	19.23
567.204	19.31
567.401	19.4
567.598	19.54
567.795	19.61
567.991	19.66
568.188	19.89
568.385	19.91
568.582	19.97
568.779	20.03
568.976	20.23
569.172	20.26
569.369	20.36
569.566	20.45
569.763	20.5
569.96	20.57
570.156	20.58
570.353	20.63
570.55	20.68
570.746	20.74
570.943	20.72
571.14	20.72
571.336	20.82
571.533	20.78
571.729	20.91
571.926	20.95
572.123	21.06
572.319	21.13
572.516	21.28
572.712	21.28
572.909	21.32
573.105	21.46
573.302	21.41
573.498	21.41
573.695	21.4
573.891	21.46
574.087	21.36
574.284	21.44
574.48	21.51
574.677	21.58
574.873	21.65
575.069	21.7
575.266	21.8
575.462	21.79
575.658	21.83
575.854	21.91
576.051	22.03
576.247	22.02
576.443	22.09
576.639	22.16
576.835	22.11
577.032	22.04
577.228	22.09
577.424	22.11
577.62	22.06
577.816	22.08
578.012	22.13
578.208	22.1
578.404	22.09
578.6	22.16
578.796	22.09
578.993	22.19
579.189	22.21
579.384	22.2
579.58	22.1
579.776	22.1
579.972	21.97
580.168	21.89
580.364	21.85
580.56	21.9
580.756	21.94
580.952	21.91
581.148	21.98
581.343	22.02
581.539	22.02
581.735	22
581.931	22.02
582.127	22
582.322	21.98
582.518	21.88
582.714	21.89
582.909	21.92
583.105	21.89
583.301	21.81
583.496	21.86
583.692	21.8
583.888	21.73
584.083	21.63
584.279	21.69
584.474	21.7
584.67	21.6
584.866	21.51
585.061	21.59
585.257	21.58
585.452	21.52
585.648	21.57
585.843	21.58
586.039	21.56
586.234	21.59
586.429	21.64
586.625	21.63
586.82	21.73
587.015	21.69
587.211	21.55
587.406	21.57
587.601	21.7
587.797	21.68
587.992	21.69
588.187	21.79
588.383	21.79
588.578	21.69
588.773	21.64
588.968	21.64
589.163	21.66
589.359	21.58
589.554	21.56
589.749	21.61
589.944	21.58
590.139	21.55
590.334	21.56
590.529	21.68
590.724	21.74
590.919	21.88
591.114	21.89
591.309	21.93
591.504	21.86
591.699	21.9
591.894	21.75
592.089	21.81
592.284	21.94
592.479	21.93
592.674	21.93
592.869	22.04
593.064	22.14
593.259	22.16
593.454	22.33
593.648	22.3
593.843	22.37
594.038	22.37
594.233	22.34
594.428	22.36
594.622	22.52
594.817	22.66
595.012	22.6
595.206	22.69
595.401	22.81
595.596	22.88
595.79	22.8
595.985	22.99
596.18	23.06
596.374	23.11
596.569	23.1
596.763	23.25
596.958	23.28
597.153	23.28
597.347	23.26
597.542	23.41
597.736	23.42
597.931	23.46
598.125	23.66
598.319	23.75
598.514	23.72
598.708	23.79
598.903	23.9
599.097	23.98
599.291	24.02
599.486	24.07
599.68	24.13
599.874	24.17
600.069	24.22
600.263	24.36
600.457	24.42
600.651	24.48
600.846	24.61
601.04	24.59
601.234	24.53
601.428	24.59
601.622	24.65
601.817	24.58
602.011	24.59
602.205	24.67
602.399	24.64
602.593	24.75
602.787	24.83
602.981	24.81
603.175	24.88
603.369	24.92
603.563	24.8
603.757	24.69
603.951	24.64
604.145	24.47
604.339	24.46
604.533	24.36
604.727	24.34
604.921	24.38
605.115	24.41
605.309	24.39
605.502	24.47
605.696	24.47
605.89	24.47
606.084	24.4
606.278	24.37
606.471	24.19
606.665	24.11
606.859	23.98
607.053	23.99
607.246	23.9
607.44	23.92
607.634	23.97
607.827	23.84
608.021	23.69
608.214	23.54
608.408	23.45
608.602	23.35
608.795	23.35
608.989	23.22
609.182	23.28
609.376	23.25
609.569	23.08
609.763	23.01
609.956	23
610.15	22.88
610.343	22.73
610.537	22.71
610.73	22.6
610.923	22.61
611.117	22.66
611.31	22.61
611.504	22.58
611.697	22.54
611.89	22.42
612.083	22.19
612.277	22.15
612.47	22.11
612.663	22.05
612.856	21.84
613.05	21.79
613.243	21.71
613.436	21.49
613.629	21.33
613.822	21.41
614.015	21.3
614.209	21.13
614.402	21.07
614.595	21.1
614.788	20.94
614.981	20.83
615.174	20.8
615.367	20.68
615.56	20.46
615.753	20.42
615.946	20.37
616.139	20.32
616.332	20.26
616.525	20.36
616.718	20.31
616.911	20.34
617.103	20.28
617.296	20.25
617.489	20.16
617.682	20.18
617.875	20.13
618.067	19.98
618.26	19.95
618.453	19.84
618.646	19.8
618.838	19.64
619.031	19.67
619.224	19.69
619.417	19.76
619.609	19.63
619.802	19.6
619.994	19.59
620.187	19.47
620.38	19.34
620.572	19.29
620.765	19.27
620.957	19.23
621.15	19.23
621.342	19.19
621.535	19.2
621.727	19.11
621.92	19.03
622.112	18.93
622.305	18.93
622.497	18.86
622.69	18.77
622.882	18.68
623.074	18.67
623.267	18.65
623.459	18.55
623.651	18.58
623.844	18.73
624.036	18.74
624.228	18.73
624.42	18.78
624.613	18.83
624.805	18.78
624.997	18.68
625.189	18.61
625.381	18.66
625.574	18.56
625.766	18.46
625.958	18.49
626.15	18.53
626.342	18.39
626.534	18.44
626.726	18.4
626.918	18.32
627.11	18.25
627.302	18.22
627.494	18.15
627.686	18.13
627.878	18.17
628.07	18.15
628.262	18.07
628.454	17.99
628.646	17.95
628.838	17.9
629.029	17.85
629.221	17.84
629.413	17.83
629.605	17.79
629.797	17.73
629.989	17.66
630.18	17.59
630.372	17.53
630.564	17.54
630.755	17.61
630.947	17.6
631.139	17.66
631.33	17.65
631.522	17.61
631.714	17.43
631.905	17.41
632.097	17.38
632.289	17.29
632.48	17.24
632.672	17.19
632.863	17.09
633.055	17.02
633.246	17.03
633.438	17.11
633.629	17.13
633.821	17.18
634.012	17.22
634.203	17.22
634.395	17.16
634.586	17.33
634.777	17.22
634.969	17.21
635.16	17.18
635.351	17.11
635.543	17
635.734	17.07
635.925	17.02
636.117	17
636.308	17.05
636.499	16.98
636.69	16.9
636.881	16.89
637.073	16.95
637.264	16.91
637.455	16.88
637.646	16.9
637.837	16.87
638.028	16.72
638.219	16.71
638.41	16.75
638.601	16.73
638.792	16.74
638.983	16.73
639.174	16.65
639.365	16.63
639.556	16.6
639.747	16.6
639.938	16.67
640.129	16.76
640.32	16.79
640.511	16.8
640.701	16.77
640.892	16.72
641.083	16.63
641.274	16.58
641.465	16.53
641.655	16.52
641.846	16.54
642.037	16.45
642.228	16.34
642.418	16.19
642.609	16.1
642.8	16.07
642.99	16.16
643.181	16.17
643.372	16.28
643.562	16.27
643.753	16.3
643.943	16.23
644.134	16.15
644.324	16.1
644.515	16.1
644.705	15.96
644.896	15.82
645.086	15.77
645.277	15.74
645.467	15.65
645.658	15.61
645.848	15.71
646.038	15.69
646.229	15.71
646.419	15.72
646.61	15.69
646.8	15.67
646.99	15.76
647.18	15.64
647.371	15.6
647.561	15.52
647.751	15.53
647.941	15.4
648.132	15.51
648.322	15.56
648.512	15.65
648.702	15.66
648.892	15.63
649.082	15.5
649.272	15.35
649.462	15.33
649.653	15.23
649.843	15.25
650.033	15.26
650.223	15.35
650.413	15.31
650.603	15.25
650.793	15.17
650.983	15.1
651.172	15.02
651.362	14.99
651.552	14.88
651.742	14.85
651.932	14.87
652.122	14.85
652.312	14.76
652.502	14.85
652.691	14.85
652.881	14.86
653.071	14.85
653.261	14.81
653.45	14.68
653.64	14.63
653.83	14.51
654.019	14.39
654.209	14.3
654.399	14.24
654.588	14.06
654.778	13.93
654.968	13.71
655.157	13.62
655.347	13.52
655.536	13.43
655.726	13.23
655.915	13.28
656.105	13.2
656.294	12.98
656.484	12.81
656.673	12.78
656.863	12.52
657.052	12.32
657.241	12.19
657.431	12.1
657.62	11.87
657.809	11.69
657.999	11.6
658.188	11.52
658.377	11.41
658.567	11.33
658.756	11.2
658.945	11.15
659.134	11.06
659.324	10.9
659.513	10.81
659.702	10.7
659.891	10.46
660.08	10.24
660.269	10.09
660.458	9.94
660.648	9.87
660.837	9.72
661.026	9.6
661.215	9.48
661.404	9.32
661.593	9.18
661.782	9.06
661.971	8.92
662.16	8.81
662.349	8.67
662.538	8.57
662.726	8.56
662.915	8.58
663.104	8.52
663.293	8.51
663.482	8.28
663.671	8.16
663.86	7.96
664.048	7.83
664.237	7.72
664.426	7.71
664.615	7.59
664.803	7.5
664.992	7.45
665.181	7.44
665.369	7.43
665.558	7.32
665.747	7.42
665.935	7.32
666.124	7.24
666.312	7.17
666.501	7.24
666.69	7.12
666.878	7.13
667.067	7
667.255	7.04
667.444	7.01
667.632	7.03
667.82	6.98
668.009	7.08
668.197	7.02
668.386	6.99
668.574	6.87
668.762	6.89
668.951	6.88
669.139	6.96
669.327	6.92
669.516	7.1
669.704	7.12
669.892	7.11
670.08	7.04
670.269	7.07
670.457	6.94
670.645	6.93
670.833	6.93
671.021	6.97
671.21	7.06
671.398	7.05
671.586	6.92
671.774	7
671.962	7.06
672.15	7.05
672.338	7.21
672.526	7.38
672.714	7.42
672.902	7.37
673.09	7.44
673.278	7.43
673.466	7.57
673.654	7.69
673.842	7.84
674.03	7.99
674.218	8.18
674.405	8.24
674.593	8.23
674.781	8.25
674.969	8.1
675.157	7.99
675.344	8.01
675.532	8.1
675.72	8.23
675.908	8.36
676.095	8.48
676.283	8.64
676.471	8.67
676.658	8.7
676.846	8.64
677.033	8.82
677.221	8.87
677.409	8.84
677.596	8.92
677.784	9.19
677.971	9.15
678.159	9.21
678.346	9.31
678.534	9.43
678.721	9.48
678.909	9.73
679.096	9.79
679.283	9.99
679.471	10.01
679.658	9.99
679.846	9.91
680.033	10.07
680.22	10.09
680.408	10
680.595	10.18
680.782	10.28
680.969	10.32
681.157	10.51
681.344	10.68
681.531	10.81
681.718	10.97
681.905	10.88
682.093	10.95
682.28	11.26
682.467	11.43
682.654	11.4
682.841	11.56
683.028	11.6
683.215	11.63
683.402	11.54
683.589	11.78
683.776	12.13
683.963	12.27
684.15	12.41
684.337	12.65
684.524	13
684.711	13.06
684.898	13.2
685.085	13.5
685.271	13.85
685.458	13.94
685.645	14.12
685.832	14.44
686.019	14.74
686.205	15.06
686.392	15.13
686.579	15.51
686.766	15.9
686.952	15.84
687.139	15.97
687.326	16.2
687.512	16.38
687.699	16.51
687.886	17.04
688.072	17.4
688.259	17.87
688.445	18.15
688.632	18.6
688.818	18.95
689.005	19.26
689.191	19.83
689.378	20.33
689.564	20.85
689.751	21.17
689.937	21.86
690.124	22.1
690.31	22.56
690.496	23.25
690.683	23.96
690.869	24.23
691.055	24.81
691.242	25.38
691.428	25.84
691.614	26.29
691.8	26.91
691.987	27.56
692.173	28.07
692.359	28.54
692.545	29.04
692.731	29.83
692.918	30.34
693.104	31.07
693.29	31.65
693.476	32.18
693.662	32.47
693.848	33.18
694.034	33.65
694.22	34.22
694.406	34.98
694.592	35.64
694.778	35.96
694.964	36.57
695.15	37.04
695.336	37.59
695.522	38.09
695.708	39
695.894	39.81
696.08	40.68
696.265	41.28
696.451	41.96
696.637	42.34
696.823	42.67
697.009	43.29
697.194	44.06
697.38	44.96
697.566	45.93
697.751	46.75
697.937	47.09
698.123	47.57
698.308	47.78
698.494	48.22
698.68	48.48
698.865	48.92
699.051	49.47
699.236	49.96
699.422	50.29
699.607	51.09
699.793	51.53
699.978	52
700.164	52.65
700.349	53.15
700.535	53.29
700.72	53.78
700.906	54.14
701.091	54.76
701.276	55.13
701.462	55.89
701.647	56.44
701.832	57.15
702.018	57.48
702.203	57.83
702.388	58.02
702.573	58.39
702.759	58.35
702.944	58.53
703.129	59.07
703.314	59.41
703.499	59.67
703.684	60.36
703.87	60.61
704.055	60.8
704.24	60.96
704.425	61.25
704.61	61.23
704.795	61.79
704.98	62.13
705.165	62.48
705.35	63.07
705.535	63.47
705.72	63.86
705.905	64.32
706.09	64.92
706.275	64.67
706.459	65.26
706.644	65.01
706.829	65.12
707.014	65.72
707.199	66.25
707.384	66.04
707.568	66.57
707.753	66.66
707.938	66.5
708.123	66.65
708.307	67.01
708.492	67.21
708.677	67.33
708.861	67.57
709.046	67.89
709.231	68
709.415	67.78
709.6	67.8
709.784	67.81
709.969	67.9
710.153	67.95
710.338	68.28
710.522	68.76
710.707	68.88
710.891	69.01
711.076	69.53
711.26	70.01
711.445	70.23
711.629	70.4
711.813	70.7
711.998	70.94
712.182	70.88
712.366	71.48
712.551	71.58
712.735	71.14
712.919	70.72
713.103	70.79
713.288	70.13
713.472	70.08
713.656	70.57
713.84	70.75
714.024	71.29
714.208	71.7
714.393	72
714.577	72.57
714.761	73.01
714.945	72.71
715.129	72.39
715.313	72.41
715.497	72.56
715.681	72.32
715.865	72.34
716.049	72.39
716.233	72.84
716.417	72.85
716.601	72.77
716.785	73.02
716.968	73.45
717.152	73.23
717.336	73.28
717.52	73.79
717.704	73.8
717.888	74.4
718.071	74.27
718.255	74.19
718.439	73.99
718.622	74.05
718.806	73.45
718.99	74.05
719.174	73.53
719.357	73.79
719.541	74.02
719.724	74.65
719.908	74.24
720.092	74.92
720.275	75.26
720.459	75.52
720.642	75.27
720.826	76.16
721.009	76.03
721.193	75.98
721.376	75.6
721.559	75.81
721.743	75.59
721.926	76.12
722.11	76.36
722.293	76.81
722.476	76.79
722.66	77.23
722.843	76.92
723.026	76.92
723.21	77.23
723.393	77
723.576	76.67
723.759	76.79
723.942	76.64
724.126	76.87
724.309	77.83
724.492	77.62
724.675	77.88
724.858	78
725.041	77.68
725.224	77.96
725.407	78.18
725.59	78.41
725.774	79.06
725.957	79.32
726.14	79.16
726.322	79.59
726.505	80.01
726.688	79.98
726.871	79.79
727.054	80.24
727.237	79.96
727.42	79.8
727.603	79.54
727.786	79.82
727.968	79.51
728.151	79.56
728.334	79.69
728.517	80.23
728.699	80.64
728.882	80.86
729.065	81.41
729.248	81.36
729.43	81.58
729.613	81.83
729.796	81.2
729.978	81.17
730.161	81.67
730.343	81.09
730.526	81.6
730.708	82.52
730.891	82.87
731.073	83.23
731.256	84.19
731.438	83.86
731.621	84.12
731.803	83.93
731.986	84.4
732.168	84.52
732.35	84.57
732.533	84.12
732.715	84.49
732.898	84.27
733.08	84.69
733.262	85.2
733.444	84.62
733.627	84.63
733.809	84.23
733.991	84.22
734.173	84.24
734.355	85.44
734.538	85.58
734.72	86.2
734.902	86.59
735.084	86.42
735.266	86.39
735.448	87.09
735.63	87.47
735.812	86.82
735.994	85.65
736.176	85.66
736.358	85.92
736.54	85.68
736.722	86.12
736.904	88.05
737.086	88.27
737.268	88.06
737.45	87.71
737.632	87.12
737.814	86.07
737.995	86.61
738.177	86.12
738.359	86.52
738.541	87.79
738.723	88.23
738.904	88.14
739.086	88.58
739.268	89
739.449	88.88
739.631	89.44
739.813	89.57
739.994	89.24
740.176	89.16
740.358	89.42
740.539	89.82
740.721	89.83
740.902	89.67
741.084	89.81
741.265	89.12
741.447	88.68
741.628	87.96
741.81	88.22
741.991	87.81
742.172	88.9
742.354	89.77
742.535	91.03
742.717	92.1
742.898	92.43
743.079	91.64
743.261	90.8
743.442	89.84
743.623	89.23
743.804	88.49
743.986	89.18
744.167	89.54
744.348	89.78
744.529	90.36
744.71	91.18
744.891	91.15
745.073	91.15
745.254	91.21
745.435	91.17
745.616	90.64
745.797	88.74
745.978	87.78
746.159	88.95
746.34	88.84
746.521	89.31
746.702	89.67
746.883	90.68
747.064	88.96
747.245	89.03
747.426	88.11
747.606	88.38
747.787	88.28
747.968	89.35
748.149	89.47
748.33	89.79
748.51	91.6
748.691	90.78
748.872	91.55
749.053	91.26
749.233	92.3
749.414	90.36
749.595	91.81
749.775	92.32
749.956	92.56
750.137	92.25
750.317	92.31
750.498	92.36
750.678	92.08
750.859	91.82
751.04	91.75
751.22	92.67
751.4	92.13
751.581	91.27
751.761	91.94
751.942	92.27
752.122	91.92
752.303	91.29
752.483	90.06
752.663	89.8
752.844	89.49
753.024	89.48
753.204	90.21
753.385	91.57
753.565	92.51
753.745	92.64
753.925	93.09
754.106	94.2
754.286	94.2
754.466	92.27
754.646	92.49
754.826	92.58
755.006	91.58
755.187	93.32
755.367	92.89
755.547	93.54
755.727	92.98
755.907	91.38
756.087	89.12
756.267	89.96
756.447	88.81
756.627	88.5
756.807	90.52
756.987	89.84
757.167	90.16
757.346	91.83
757.526	91.84
757.706	90.83
757.886	91.05
758.066	90.25
758.246	88.35
758.425	89.09
758.605	90.44
758.785	91.63
758.965	93.36
759.144	95.16
759.324	94.44
759.504	93.93
759.683	93.47
759.863	92.58
760.043	91.71
760.222	91.28
760.402	90.83
760.581	90.93
760.761	91.35
760.94	89.97
761.12	91.17
761.299	90.11
761.479	89.83
761.658	89.37
761.838	91.08
762.017	91.44
762.197	90.54
762.376	90.48
762.555	90.37
762.735	90.36
762.914	88.28
763.093	88.81
763.273	89.52
763.452	88.85
763.631	86.71
763.81	88.13
763.99	90.44
764.169	89.44
764.348	89.93
764.527	91.51
764.706	92.45
764.885	91.06
765.064	92.29
765.243	91.89
765.423	91.38
765.602	89.72
765.781	90.79
765.96	90.05
766.139	91.02
766.318	90.62
766.497	92.35
766.676	91.67
766.854	91.41
767.033	90.37
767.212	91.73
767.391	90.12
767.57	91.84
767.749	90.27
767.928	92.08
768.106	91.97
768.285	90.88
768.464	89.54
768.643	91.74
768.821	91.55
769	91.88
769.179	93.88
769.357	93.67
769.536	92.59
769.715	90.77
769.893	90.84
770.072	89.49
770.25	89.44
770.429	90.46
770.607	90.5
770.786	90.58
770.964	90.77
771.143	90.09
771.321	88.41
771.5	91.26
771.678	89.38
771.857	90.33
772.035	92.59
772.213	94.2
772.392	91.59
772.57	93.35
772.748	93.68
772.927	91.79
773.105	91.5
773.283	92.38
773.461	91.02
773.64	90.52
773.818	91.97
773.996	89.52
774.174	88.65
774.352	87.68
774.531	88.04
774.709	85.93
774.887	89.84
775.065	89.16
775.243	91.57
775.421	91.07
775.599	89.85
775.777	88.48
775.955	87.61
776.133	86.7
776.311	87.43
776.489	89.1
776.667	90.68
776.844	93.06
777.022	93.56
777.2	94.03
777.378	94.78
777.556	93.86
777.734	92.35
777.911	92.04
778.089	92.19
778.267	91.12
778.445	89.86
778.622	90.62
778.8	90.69
778.978	88.22
779.155	86.9
779.333	86.49
779.511	84.91
779.688	84.35
779.866	83.01
780.043	85.73
780.221	86.49
780.398	86.15
780.576	86.74
780.753	89.4
780.931	89.61
781.108	89.21
781.286	90.07
781.463	90.87
781.64	92.18
781.818	92.24
781.995	92.73
782.172	95.42
782.35	95.15
782.527	94.72
782.704	92.25
782.882	94.51
783.059	89.93
783.236	86.64
783.413	85.37
783.59	85.78
783.768	81.08
783.945	86.82
784.122	90.22
784.299	91.3
784.476	89.64
784.653	92.87
784.83	90.2
785.007	91.97
785.184	90.55
785.361	92.23
785.538	88.18
785.715	85.65
785.892	81.28
786.069	81.97
786.246	80.8
786.423	85.42
786.6	90.01
786.776	93.81
786.953	94.67
787.13	99.58
787.307	99.64
787.484	99.24
787.66	97.2
787.837	96.59
788.014	95.15
788.191	92.39
788.367	91.15
788.544	92.28
788.721	92.89
788.897	91.56
789.074	90.99
789.25	87.66
789.427	86.69
789.603	83.94
789.78	85.02
789.956	87.43
790.133	89.6
790.309	90.57
790.486	89.86
790.662	90.2
790.839	89.38
791.015	87.87
791.192	86.91
791.368	90.04
791.544	84.36
791.721	86.31
791.897	90.07
792.073	92.42
792.249	92.01
792.426	98.79
792.602	99.02
792.778	93.78
792.954	92.01
793.13	89.33
793.307	91.36
793.483	87.32
793.659	88.95
793.835	86.36
794.011	89.57
794.187	86.46
794.363	90.79
794.539	87.48
794.715	91.94
794.891	93.2
795.067	85.86
795.243	85.9
795.419	90.52
795.595	88.54
795.771	87.48
795.947	97.98
796.122	94.34
796.298	92.12
796.474	91.58
796.65	90.66
796.826	91.27
797.001	91.94
797.177	93.32
797.353	92.85
797.529	90.85
797.704	86.98
797.88	85.97
798.056	87.05
798.231	93.45
798.407	94.73
798.582	94.16
798.758	99.3
798.934	101.18
799.109	93.94
799.285	94.84
799.46	91.59
799.636	88.57
799.811	85.73
799.986	86.19
800.162	85.99
800.337	91.32
800.513	90.49
800.688	88.78
800.863	91.31
801.039	94.01
801.214	95.53
801.389	96.95
801.565	94.43
801.74	97.31
801.915	96.99
802.09	93.81
802.265	91.77
802.441	96.46
802.616	90.16
802.791	84.5
802.966	88.59
803.141	89.58
803.316	83.98
803.491	83.72
803.666	88.9
803.841	87.01
804.016	88.13
804.191	94.43
804.366	105.29
804.541	106.32
804.716	102.63
804.891	103.98
805.066	108.66
805.241	107.39
805.416	102.78
805.591	99.09
805.765	98.84
805.94	92.71
806.115	84.98
806.29	87.92
806.464	97.48
806.639	95.7
806.814	92
806.989	91.81
807.163	81.95
807.338	78.98
807.512	78.38
807.687	89.09
807.862	87.21
808.036	93.51
808.211	90.42
808.385	88.77
808.56	86.77
808.734	86.12
808.909	88.19
809.083	86.97
809.258	85.68
809.432	85.52
809.606	82.86
809.781	77.3
809.955	77.49
810.13	80.16
810.304	74.71
810.478	80.15
810.652	80.27
810.827	85.98
811.001	87.38
811.175	89.38
811.349	86.83
811.524	89.28
811.698	85.23
811.872	83.51
812.046	87.38
812.22	89.58
812.394	94.51
812.568	93.81
812.742	90.18
812.916	83.8
813.09	82.09
813.264	80.71
813.438	86.03
813.612	94.1
813.786	87.45
813.96	91.24
814.134	84.43
814.308	82.73
814.482	77.95
814.656	83.13
814.83	80.57
815.003	89.81
815.177	91.8
815.351	95.58
815.525	101.75
815.698	110.57
815.872	109.32
816.046	118.74
816.219	114.5
816.393	122
816.567	118.4
816.74	110.96
816.914	101.76
817.088	99.52
817.261	89.93
817.435	92.03
817.608	101.17
817.782	97.79
817.955	103.34
818.129	113.32
818.302	99.42
818.475	84.93
818.649	91.25
818.822	92.69
818.996	93.09
819.169	100.11
819.342	97.57
819.516	95.85
819.689	101.43
819.862	102.12
820.035	93.58
820.209	82.6
820.382	90.11
820.555	84.51
820.728	83.5
820.901	87.07
821.075	102.1
821.248	112.94
821.421	113.78
821.594	99.89
821.767	116.22
821.94	118.41
822.113	91.1
822.286	85.73
822.459	91.14
822.632	81.65
822.805	80.97
822.978	85.49
823.151	88.58
823.324	84.83
823.496	76.39
823.669	70.17
823.842	72.96
824.015	74.47
824.188	66.13
824.361	78.96
824.533	95.25
824.706	89.91
824.879	87.86
825.051	95.09
825.224	84.07
825.397	78.67
825.569	81.36
825.742	70.93
825.915	75.35
826.087	86.92
826.26	83.1
826.432	90.28
826.605	90.44
826.777	75.51
826.95	73.09
827.122	68.35
827.295	50.31
827.467	59.91
827.64	54.25
827.812	51.44
827.984	54.6
828.157	65.78
828.329	64.02
828.501	102.38
828.674	100.84
828.846	105.61
829.018	114.51
829.19	112.46
829.363	82.69
829.535	90.64
829.707	88.66
829.879	79.81
830.051	87.46
830.223	103.17
830.395	102.31
830.568	90.49
830.74	97.66
830.912	91.29
831.084	89.59
831.256	87.12
831.428	78.78
831.6	83.12
831.772	79.59
831.943	73.09
832.115	73.25
832.287	95.07
832.459	74.66
832.631	82.58
832.803	93.48
832.975	92.97
833.146	95.97
833.318	115.03
833.49	120.07
833.662	134.85
833.833	115.76
834.005	121.13
834.177	132.53
834.348	134.59
834.52	96.62
834.692	100.53
834.863	95.46
835.035	84.18
835.206	76.55
835.378	62.97
835.549	72.36
835.721	75.28
835.892	80.63
836.064	92.45
836.235	121.02
836.407	125.27
836.578	103.44
836.749	91.17
836.921	80.8
837.092	85.47
837.264	76.83
837.435	86.71
837.606	91.77
837.777	98.66
837.949	84.16
838.12	80.24
838.291	87.75
838.462	93.19
838.633	121.33
838.805	123.06
838.976	129.78
839.147	140.04
839.318	108.06
839.489	91.41
839.66	110.88
839.831	133.33
840.002	127.11
840.173	158.41
840.344	143.67
840.515	133.25
840.686	105.18
840.857	87.72
841.028	115.61
841.199	109.28
841.369	90.07
841.54	100.92
841.711	104.48
841.882	73.34
842.053	63.46
842.223	82.15
842.394	102.17
842.565	104.55
842.736	154.5
842.906	221.21
843.077	198.48
843.248	172.67
843.418	134.58
843.589	77.01
843.759	89.67
843.93	70.68
844.101	62.9
844.271	71.34
844.442	89.08
844.612	106.04
844.783	100.78
844.953	105.37
845.123	99.44
845.294	79.95
845.464	73.84
845.635	101.1
845.805	122.46
845.975	117.56
846.146	155.32
846.316	123.63
846.486	112.55
846.656	87.83
846.827	90.13
846.997	86.04
847.167	74.54
847.337	80.76
847.507	86.89
847.677	99.52
847.848	109.22
848.018	172.32
848.188	153.06
848.358	136.28
848.528	148.5
848.698	166.85
848.868	126.55
849.038	122.43
849.208	101.36
849.378	91.61
849.548	50.36
849.718	77.47
849.887	85.09
850.057	86.22
850.227	77.92
850.397	95.8
850.567	88.73
850.737	93.61
850.906	93.39
851.076	94.35
851.246	75.26
851.415	70.92
851.585	68.98
851.755	57.38
851.924	71.98
852.094	81.52
852.264	71.96
852.433	60.78
852.603	82.2
852.772	84.43
852.942	84.11
853.111	98.48
853.281	111.08
853.45	113.73
853.62	99.47
853.789	89.98
853.959	101.76
854.128	116.94
854.297	116.48
854.467	170.85
854.636	208.15
854.805	145.01
854.975	107.62
855.144	81.57
855.313	76.23
855.482	73.36
855.652	82.77
855.821	109.74
855.99	95.1
856.159	86.69
856.328	100.86
856.497	84.08
856.667	84.14
856.836	134.02
857.005	149.98
857.174	110.45
857.343	86.3
857.512	86.23
857.681	37.44
857.85	27.94
858.019	29.9
858.188	80.91
858.356	57.92
858.525	77.38
858.694	90.96
858.863	92.7
859.032	74.56
859.201	78.57
859.369	75.56
859.538	77.56
859.707	83.08
859.876	94.17
860.044	98.01
860.213	108.23
860.382	100.84
860.55	116.73
860.719	137.69
860.888	154.16
861.056	133.95
861.225	141.79
861.393	137.71
861.562	147.2
861.73	136.64
861.899	107.25
862.067	103.01
862.236	94.57
862.404	74.85
862.572	82.57
862.741	100.67
862.909	82.51
863.078	74.9
863.246	85.9
863.414	82
863.582	98.62
863.751	118.03
863.919	134.39
864.087	131.89
864.255	105.06
864.424	88.18
864.592	85.52
864.76	75.78
864.928	96.35
865.096	87.67
865.264	82.38
865.432	75.09
865.6	98.9
865.768	74.4
865.936	69.12
866.104	61.94
866.272	58.6
866.44	40.2
866.608	32.73
866.776	69.9
866.944	97.15
867.112	110.28
867.28	91.04
867.448	93.14
867.615	92.72
867.783	78.16
867.951	76.67
868.119	102.47
868.286	121.88
868.454	102.2
868.622	111.14
868.789	129.36
868.957	115.32
869.125	96.38
869.292	83.01
869.46	65.79
869.627	59.88
869.795	49.58
869.963	65.52
870.13	61.75
870.298	86.55
870.465	91.25
870.632	94.39
870.8	94.41
870.967	133.05
871.135	122.52
871.302	86.56
871.469	132.8
871.637	125.44
871.804	101
871.971	101.37
872.139	134.41
872.306	108.39
872.473	131.99
872.64	120.31
872.807	124.61
872.975	106.9
873.142	91.42
873.309	72.14
873.476	87.53
873.643	79.06
873.81	69.87
873.977	81.81
874.144	67.3
874.311	58.25
874.478	66.5
874.645	54.72
874.812	46.82
874.979	49.11
875.146	51.71
875.313	56.45
875.48	73.91
875.647	84.9
875.813	101.33
875.98	106.48
876.147	78.8
876.314	83.01
876.481	105.24
876.647	108.58
876.814	116.36
876.981	118.03
877.147	136.6
877.314	93.86
877.481	90
877.647	82.78
877.814	77.89
877.98	51.02
878.147	24.64
878.314	28.89
878.48	71.53
878.647	117.61
878.813	133.33
878.979	124.93
879.146	127.93
879.312	141.24
879.479	110.55
879.645	145.18
879.811	161.2
879.978	104.43
880.144	90.99
880.31	80.86
880.477	63.19
880.643	77.88
880.809	111.61
880.975	152.99
881.142	205.73
881.308	143.29
881.474	320.48
881.64	330.01
881.806	251.97
881.972	198.32
882.138	208.66
882.304	97.28
882.47	26.56
882.636	58.48
882.802	36.09
882.968	24.81
883.134	22.23
883.3	57.93
883.466	59.49
883.632	88.14
883.798	126.56
883.964	248.39
884.129	370.37
884.295	265.75
884.461	201.35
884.627	160.41
884.793	126.26
884.958	105.87
885.124	92.43
885.29	72.39
885.455	81.55
885.621	90.48
885.787	92.85
885.952	115.29
886.118	131.09
886.283	138.9
886.449	112.69
886.614	100.51
886.78	108.39
886.945	121.38
887.111	115.01
887.276	109.54
887.442	114.65
887.607	128.58
887.773	129.95
887.938	65.11
888.103	31.14
888.269	46.46
888.434	31.21
888.599	27.55
888.764	45.9
888.93	62.19
889.095	52.88
889.26	85.54
889.425	120.01
889.59	133.89
889.756	109.15
889.921	112.15
890.086	88.92
890.251	86.94
890.416	48.22
890.581	52.22
890.746	76.16
890.911	84.68
891.076	88.68
891.241	66.94
891.406	92.15
891.571	61.22
891.736	56.6
891.901	48.54
892.065	72.65
892.23	59.76
892.395	44.97
892.56	-18.65
892.725	-12.43
892.889	-40.5
893.054	-7.92
893.219	11.35
893.384	26.07
893.548	14.36
893.713	23.96
893.878	-10.15
