Data from Ofav_PP_Phys_358_Reflection_2.txt Node
Date: Tue Jul 27 19:06:55 EDT 2021
User: USUARIO
Spectrometer: FLMT01687
Trigger mode: 0
Integration Time (sec): 8.500000E-1
Scans to average: 2
Electric dark correction enabled: true
Nonlinearity correction enabled: false
Boxcar width: 2
XAxis mode: Wavelengths
Number of Pixels in Spectrum: 3648
>>>>>Begin Spectral Data<<<<<
179.494	-1300
179.716	-420.16
179.937	-290.95
180.158	-229.51
180.38	-242.01
180.601	-201.07
180.823	98.88
181.044	53.55
181.265	81.76
181.486	102.47
181.708	60.66
181.929	33.95
182.15	1.42
182.372	113.47
182.593	68.02
182.814	114.97
183.035	118.58
183.257	110.9
183.478	72.84
183.699	74.92
183.92	71.28
184.141	66.99
184.363	78.43
184.584	83.41
184.805	86.72
185.026	72.19
185.247	85.74
185.468	37.59
185.689	32.03
185.91	7.98
186.132	-11.06
186.353	10.56
186.574	18.58
186.795	34.49
187.016	33.02
187.237	6.57
187.458	-21.32
187.679	-9.52
187.9	-18.9
188.121	-7.32
188.342	45.11
188.563	73.68
188.784	77.12
189.005	92.16
189.226	93.57
189.447	71.58
189.667	76.64
189.888	86.41
190.109	92.37
190.33	97.53
190.551	88.88
190.772	56.27
190.993	44.32
191.214	40.87
191.434	29.03
191.655	50.37
191.876	52.88
192.097	56.99
192.318	56.33
192.538	91.77
192.759	62.59
192.98	50.76
193.201	43.1
193.421	36.43
193.642	11.26
193.863	8.63
194.083	16.62
194.304	18.94
194.525	5.95
194.745	-13.88
194.966	-39.46
195.187	-51.69
195.407	-40.39
195.628	-16.84
195.848	13.81
196.069	46.27
196.29	92.3
196.51	102.94
196.731	80.56
196.951	104.6
197.172	94.83
197.392	68.94
197.613	80.34
197.833	75.9
198.054	64.67
198.274	43.07
198.495	64.07
198.715	95.14
198.936	89.74
199.156	92.64
199.377	141.57
199.597	182.39
199.817	60.27
200.038	76.4
200.258	61.66
200.479	93.13
200.699	63.99
200.919	66.11
201.14	54.32
201.36	41.64
201.58	33.19
201.801	20.92
202.021	40.9
202.241	42.84
202.461	57.73
202.682	34.95
202.902	32.57
203.122	33.97
203.342	32.15
203.563	43.18
203.783	36.58
204.003	44.07
204.223	26.41
204.443	29.18
204.663	8.78
204.884	39.17
205.104	53.29
205.324	61
205.544	57.15
205.764	47.7
205.984	23.26
206.204	-2.79
206.424	13.7
206.644	33.17
206.864	33.87
207.084	43.01
207.304	44.87
207.525	40.7
207.745	41.4
207.964	57.12
208.184	65.4
208.404	55.41
208.624	50.57
208.844	49.65
209.064	31.3
209.284	19.23
209.504	25.73
209.724	3.25
209.944	-41.16
210.164	-30.53
210.384	-45.81
210.604	-48.11
210.823	16.44
211.043	21.14
211.263	12.77
211.483	24.73
211.703	24.77
211.922	28.06
212.142	61.94
212.362	40.77
212.582	13.06
212.801	38.12
213.021	15.51
213.241	-10.56
213.461	-5.12
213.68	17.99
213.9	-16.73
214.12	6.1
214.339	28.92
214.559	36.16
214.779	38.56
214.998	40.41
215.218	31.71
215.438	40.05
215.657	55.94
215.877	56.59
216.096	65.39
216.316	89.4
216.535	79.88
216.755	67.95
216.974	67.15
217.194	62.19
217.413	48.01
217.633	48.9
217.852	42.99
218.072	31.93
218.291	33.78
218.511	32.66
218.73	31.52
218.95	28.31
219.169	49.12
219.389	30.06
219.608	40.44
219.827	40.93
220.047	59.47
220.266	43.03
220.485	54.29
220.705	59.81
220.924	64.91
221.143	56.03
221.363	44.91
221.582	53.7
221.801	31.1
222.021	29.28
222.24	36.18
222.459	27.72
222.678	26.95
222.897	25.92
223.117	32.73
223.336	33.59
223.555	48.17
223.774	37.38
223.993	42.67
224.213	28.02
224.432	23.66
224.651	33.45
224.87	17.86
225.089	21.66
225.308	22.23
225.527	29.42
225.746	21.2
225.965	50.03
226.184	50.13
226.404	50.57
226.623	45.24
226.842	50.83
227.061	34.52
227.28	31.76
227.499	39.42
227.718	38.19
227.936	21.77
228.155	36.82
228.374	29.35
228.593	29.22
228.812	33.04
229.031	19.35
229.25	12.09
229.469	20.62
229.688	3.95
229.907	-35.85
230.125	11.18
230.344	13.98
230.563	27.51
230.782	40.29
231.001	53.49
231.22	50.45
231.438	40.82
231.657	31.21
231.876	19.66
232.095	23.66
232.313	37.19
232.532	50.03
232.751	52.33
232.969	58.11
233.188	75.95
233.407	62.55
233.625	68.69
233.844	46.39
234.063	57.32
234.281	44.65
234.5	40.34
234.719	49.46
234.937	48.59
235.156	31.37
235.374	17.29
235.593	18.28
235.811	12.56
236.03	20.45
236.249	15.48
236.467	33.4
236.686	25.03
236.904	23.38
237.123	19.68
237.341	32.9
237.559	23.39
237.778	35.7
237.996	29.73
238.215	43.71
238.433	40.06
238.652	40.38
238.87	42.59
239.088	26.33
239.307	22.87
239.525	4.53
239.743	-9.81
239.962	-6.63
240.18	12.65
240.398	14.21
240.617	28.98
240.835	50.39
241.053	47.23
241.271	50.57
241.49	42.59
241.708	51.2
241.926	52.95
242.144	39.11
242.363	39.38
242.581	41.3
242.799	15.99
243.017	9.2
243.235	34.73
243.453	41.57
243.672	52.27
243.89	54.11
244.108	44.33
244.326	43.14
244.544	39.85
244.762	28.73
244.98	42.17
245.198	54.08
245.416	53.02
245.634	59.54
245.852	59.95
246.07	63.4
246.288	56.02
246.506	48.06
246.724	41.47
246.942	51.02
247.16	41.75
247.378	38.56
247.596	41.64
247.814	40.35
248.032	19.75
248.25	25.21
248.468	39.89
248.685	37.67
248.903	30.43
249.121	63.5
249.339	74.04
249.557	55.3
249.775	44.28
249.992	29.37
250.21	6.53
250.428	-1.24
250.646	-22.6
250.863	-12.75
251.081	8.8
251.299	22.68
251.517	30.41
251.734	78.13
251.952	74.22
252.17	74.95
252.387	51.01
252.605	67.76
252.823	48.84
253.04	64.72
253.258	70.52
253.475	72.78
253.693	65.37
253.911	71.37
254.128	57.09
254.346	58.55
254.563	67.61
254.781	72.11
254.998	71.11
255.216	61.53
255.433	59.8
255.651	51.43
255.868	23.81
256.086	14.44
256.303	17.22
256.521	14.5
256.738	22.57
256.956	26.01
257.173	23.53
257.39	26.44
257.608	32.19
257.825	29.03
258.043	30.51
258.26	37.38
258.477	38.87
258.695	25.41
258.912	29.33
259.129	28.13
259.346	30.59
259.564	20.62
259.781	46.43
259.998	37.48
260.216	50.29
260.433	54.77
260.65	69.94
260.867	57.39
261.084	59.34
261.302	50.13
261.519	49.22
261.736	25.87
261.953	34.3
262.17	34.09
262.387	32.53
262.604	33.18
262.822	40.34
263.039	40.15
263.256	36.01
263.473	61.22
263.69	68.22
263.907	51.99
264.124	62.22
264.341	52.09
264.558	46.16
264.775	45.49
264.992	58.57
265.209	49.7
265.426	59.53
265.643	58.39
265.86	36.96
266.077	29.69
266.294	26.4
266.51	31.63
266.727	25.92
266.944	24.33
267.161	-13.42
267.378	-26.88
267.595	-28.85
267.812	-30.08
268.028	-12.13
268.245	29.85
268.462	40.62
268.679	17.3
268.896	26.76
269.112	14.57
269.329	18.05
269.546	25.44
269.763	22.75
269.979	35.45
270.196	40.17
270.413	53.13
270.629	56.74
270.846	71.41
271.063	55.03
271.279	65.06
271.496	58.57
271.712	34.65
271.929	39.91
272.146	48.54
272.362	53.69
272.579	50.1
272.795	65.31
273.012	59.4
273.228	56.42
273.445	46.46
273.661	48.9
273.878	33.93
274.094	38.1
274.311	42.06
274.527	39.95
274.744	30.62
274.96	32.09
275.177	22.56
275.393	6.51
275.609	11.8
275.826	27.07
276.042	50.48
276.259	66.55
276.475	57.33
276.691	52.18
276.908	50.57
277.124	34.65
277.34	36.11
277.557	37.14
277.773	32.58
277.989	35.2
278.205	32.69
278.422	21.26
278.638	18.76
278.854	32.53
279.07	21.89
279.286	26.36
279.503	22.55
279.719	50.57
279.935	52.34
280.151	53.75
280.367	48.53
280.583	55.98
280.799	56.3
281.016	51.43
281.232	54.25
281.448	62.87
281.664	52.63
281.88	37.66
282.096	37.67
282.312	35.76
282.528	25.43
282.744	33.33
282.96	38.58
283.176	51.15
283.392	57.84
283.608	67.97
283.824	45.88
284.04	31.03
284.256	18.53
284.471	20.19
284.687	9.6
284.903	36.29
285.119	31.84
285.335	33.93
285.551	21.99
285.767	32.84
285.982	12.68
286.198	31.56
286.414	35.45
286.63	50.82
286.846	42.71
287.061	38.06
287.277	31.72
287.493	30
287.709	8.63
287.924	18.79
288.14	30.66
288.356	51.6
288.571	62.04
288.787	59.47
289.003	64.78
289.218	55.65
289.434	25.99
289.65	33.87
289.865	25.49
290.081	19.35
290.296	20.13
290.512	26.2
290.727	21.17
290.943	30.72
291.159	53.27
291.374	55.06
291.59	58.77
291.805	45.37
292.021	44.52
292.236	39.01
292.451	29.59
292.667	26.31
292.882	32.52
293.098	26.26
293.313	26.42
293.529	42.27
293.744	35.89
293.959	39.54
294.175	55.48
294.39	47.44
294.605	43.39
294.821	40.14
295.036	25.81
295.251	8.03
295.467	6.72
295.682	-16.27
295.897	10.55
296.112	28.41
296.328	40.24
296.543	55.43
296.758	56.45
296.973	63.91
297.188	66.54
297.404	52.09
297.619	41.82
297.834	47.57
298.049	37.9
298.264	39
298.479	46.75
298.694	43.42
298.909	35
299.125	35.78
299.34	25.62
299.555	30.94
299.77	40.53
299.985	36.47
300.2	29.77
300.415	23.92
300.63	17.69
300.845	18.49
301.06	23.8
301.275	27.86
301.49	18.12
301.704	-0.25
301.919	7.89
302.134	26.8
302.349	26.72
302.564	43.12
302.779	46.12
302.994	41.57
303.209	27.89
303.423	24.26
303.638	2.89
303.853	-3.33
304.068	11.57
304.283	6.99
304.497	21.02
304.712	31.81
304.927	48.51
305.142	45.79
305.356	50.2
305.571	67.26
305.786	69.22
306	54.16
306.215	46.71
306.43	54.74
306.644	52.76
306.859	57.25
307.074	67.74
307.288	61.34
307.503	51.49
307.717	32.93
307.932	30.72
308.147	28.67
308.361	24.92
308.576	34.88
308.79	34.38
309.005	12.49
309.219	-1.35
309.434	9.03
309.648	12.75
309.863	7.43
310.077	25.7
310.292	34.95
310.506	41.52
310.72	32.34
310.935	37.83
311.149	55.17
311.364	61.99
311.578	48.34
311.792	55.72
312.007	47.27
312.221	41.43
312.435	50.46
312.649	50.88
312.864	54.68
313.078	73.49
313.292	75.95
313.507	55.57
313.721	76.88
313.935	57.07
314.149	50.85
314.363	49.18
314.578	45.58
314.792	32.56
315.006	36.51
315.22	24.74
315.434	10.68
315.648	8.59
315.862	7.24
316.077	-9.99
316.291	-4.43
316.505	-2.54
316.719	-3.88
316.933	3.17
317.147	5.61
317.361	9.25
317.575	11.38
317.789	16.67
318.003	18.96
318.217	26.81
318.431	29.28
318.645	40.98
318.859	31.54
319.073	17.02
319.287	11.2
319.5	11.64
319.714	-0.71
319.928	13.54
320.142	0.88
320.356	21.17
320.57	33.52
320.784	45.68
320.997	59.63
321.211	68.62
321.425	64.26
321.639	45.42
321.853	35.78
322.066	15.05
322.28	14.51
322.494	13.98
322.707	24.44
322.921	31.28
323.135	29.45
323.349	28.09
323.562	26.06
323.776	16.96
323.989	7.32
324.203	16.2
324.417	16.91
324.63	30.4
324.844	55.64
325.057	58.24
325.271	62.78
325.485	47.62
325.698	35.47
325.912	29.34
326.125	48.21
326.339	52.47
326.552	62.36
326.766	63.42
326.979	65.63
327.193	57.03
327.406	49
327.619	38.52
327.833	31.8
328.046	22.57
328.26	10.44
328.473	-6.98
328.686	3.06
328.9	14.45
329.113	0.98
329.326	3.46
329.54	37.65
329.753	36.08
329.966	52.95
330.179	72.49
330.393	73.25
330.606	45.99
330.819	47.01
331.032	38.83
331.246	46.42
331.459	45.05
331.672	53.98
331.885	56.28
332.098	61.95
332.311	57.8
332.525	42.62
332.738	28.95
332.951	36.04
333.164	32.76
333.377	24.08
333.59	44.78
333.803	49.8
334.016	40.7
334.229	26.66
334.442	32.86
334.655	31.34
334.868	35.2
335.081	36.57
335.294	49.88
335.507	68.91
335.72	75.23
335.933	58.06
336.146	58.91
336.359	50.35
336.572	47.08
336.785	32.91
336.997	47.22
337.21	83.01
337.423	85.41
337.636	62.3
337.849	64.75
338.062	61.98
338.274	55.24
338.487	57.7
338.7	55.8
338.913	55.84
339.125	60.64
339.338	35.02
339.551	19.62
339.763	22.21
339.976	28.62
340.189	9.74
340.402	10.23
340.614	15.76
340.827	18.16
341.039	-3.96
341.252	12.87
341.465	0.16
341.677	4.37
341.89	1.1
342.102	33.72
342.315	31.57
342.527	39.63
342.74	37.57
342.952	35.49
343.165	35.53
343.377	25.94
343.59	19.39
343.802	24.29
344.015	31.07
344.227	21.91
344.44	8.81
344.652	18.09
344.864	-5.2
345.077	-10.7
345.289	-9.17
345.502	6.43
345.714	2.56
345.926	4.5
346.139	5.01
346.351	8.46
346.563	1.21
346.775	6.26
346.988	10.72
347.2	21.62
347.412	30.95
347.624	42.49
347.837	30.41
348.049	39.42
348.261	20.53
348.473	24.33
348.685	39.62
348.897	45.94
349.11	29.82
349.322	43.26
349.534	36.47
349.746	32.98
349.958	36.98
350.17	48.33
350.382	45.13
350.594	39.91
350.806	36.55
351.018	42.38
351.23	47.98
351.442	37.23
351.654	70.31
351.866	44.78
352.078	27.46
352.29	11.66
352.502	15.16
352.714	9.74
352.926	17.29
353.138	34.2
353.35	41.52
353.561	51.51
353.773	45.01
353.985	41.86
354.197	32.2
354.409	36.26
354.621	33.15
354.832	39.02
355.044	39.16
355.256	48.62
355.468	46.84
355.679	51.79
355.891	53.89
356.103	69.19
356.314	55.65
356.526	56.17
356.738	55.84
356.949	37.04
357.161	39.3
357.373	37.88
357.584	38.05
357.796	39.29
358.008	54.46
358.219	45.74
358.431	35.19
358.642	35.41
358.854	38.1
359.065	23.92
359.277	29.39
359.488	45.12
359.7	43.92
359.911	39.25
360.123	51.54
360.334	43.28
360.546	41.21
360.757	49.31
360.969	56.94
361.18	50.56
361.391	47.89
361.603	45.03
361.814	36.45
362.025	35.3
362.237	33.99
362.448	36.4
362.659	38.36
362.871	38.58
363.082	33.02
363.293	36.89
363.504	43.74
363.716	37
363.927	21.41
364.138	13.18
364.349	4.25
364.56	-3.06
364.772	2.25
364.983	20.81
365.194	31.4
365.405	33.38
365.616	29.12
365.827	39.87
366.038	41.29
366.25	39.1
366.461	33.61
366.672	52.27
366.883	47
367.094	25.27
367.305	22.08
367.516	30.06
367.727	31.31
367.938	26.65
368.149	56.33
368.36	62.36
368.571	42.85
368.781	37.6
368.992	30.16
369.203	26.43
369.414	30.9
369.625	38.92
369.836	34.51
370.047	35.42
370.258	29.65
370.468	26.15
370.679	21.48
370.89	16.91
371.101	18.84
371.312	22.25
371.522	15.81
371.733	28.03
371.944	36.48
372.155	38.72
372.365	27.65
372.576	40.29
372.787	44.57
372.997	42.21
373.208	33.26
373.419	38.84
373.629	33.36
373.84	23.59
374.05	21.14
374.261	19.26
374.472	30.37
374.682	24.7
374.893	38.4
375.103	35.2
375.314	42.04
375.524	34.65
375.735	33.33
375.945	22.85
376.156	23.85
376.366	19.8
376.577	14.09
376.787	17.21
376.997	15.76
377.208	16.15
377.418	15.15
377.629	23.67
377.839	27.67
378.049	30.89
378.26	34.02
378.47	35.85
378.68	35.06
378.89	30.01
379.101	25.59
379.311	19.39
379.521	11.85
379.732	14.88
379.942	26.68
380.152	26.21
380.362	38.33
380.572	38.89
380.783	29.32
380.993	23.95
381.203	17.37
381.413	9.86
381.623	18.12
381.833	25.38
382.043	25.82
382.253	34.07
382.463	32.28
382.674	35.53
382.884	32.66
383.094	21.94
383.304	26.57
383.514	28.84
383.724	16.63
383.934	17.05
384.144	14.05
384.353	7.51
384.563	11.39
384.773	12.15
384.983	10.25
385.193	14.6
385.403	16.41
385.613	15.22
385.823	21.14
386.033	18.58
386.242	23.38
386.452	19.01
386.662	23.18
386.872	21.58
387.082	23.22
387.291	13.42
387.501	16.42
387.711	13
387.921	13.26
388.13	15.89
388.34	22.1
388.55	22.09
388.759	18.47
388.969	17.76
389.179	14.08
389.388	14.76
389.598	12.75
389.807	13.52
390.017	12.89
390.227	15.24
390.436	15.36
390.646	15.81
390.855	12.18
391.065	10.53
391.274	9.62
391.484	6.99
391.693	6.91
391.903	10.63
392.112	11.43
392.322	10.77
392.531	10.81
392.74	10.3
392.95	9.03
393.159	8.86
393.369	8.66
393.578	9.3
393.787	8.8
393.997	9.77
394.206	11.61
394.415	11.49
394.625	10.18
394.834	10.11
395.043	10.17
395.252	8.61
395.462	10.04
395.671	11.07
395.88	11.83
396.089	12.11
396.298	12.69
396.508	11.93
396.717	11.94
396.926	11.48
397.135	10.41
397.344	10.67
397.553	11.27
397.762	10.91
397.971	11.24
398.181	11.58
398.39	11.24
398.599	10.64
398.808	10.69
399.017	10.62
399.226	10.86
399.435	10.66
399.644	10.65
399.853	10.79
400.062	11.24
400.27	10.94
400.479	10.67
400.688	10.71
400.897	10.62
401.106	10.26
401.315	10.71
401.524	10.9
401.733	10.73
401.941	10.81
402.15	10.67
402.359	10.24
402.568	10.23
402.777	10.03
402.985	9.9
403.194	10.22
403.403	10.43
403.612	10.34
403.82	10.5
404.029	10.58
404.238	10.49
404.446	10.5
404.655	10.58
404.864	10.56
405.072	10.52
405.281	10.38
405.489	10.11
405.698	10.14
405.906	10.14
406.115	9.84
406.324	9.58
406.532	9.5
406.741	9.53
406.949	9.52
407.158	9.58
407.366	9.71
407.574	9.82
407.783	9.63
407.991	9.61
408.2	9.69
408.408	9.7
408.617	9.7
408.825	9.7
409.033	9.65
409.242	9.6
409.45	9.56
409.658	9.54
409.867	9.5
410.075	9.39
410.283	9.33
410.491	9.29
410.7	9.15
410.908	9.15
411.116	9.22
411.324	9.24
411.533	9.22
411.741	9.14
411.949	9.06
412.157	9
412.365	9.23
412.573	9.12
412.781	9.27
412.99	9.3
413.198	9.38
413.406	9.26
413.614	9.34
413.822	9.32
414.03	9.26
414.238	9.16
414.446	9.01
414.654	8.98
414.862	8.94
415.07	8.9
415.278	8.86
415.486	8.73
415.694	8.7
415.902	8.67
416.109	8.63
416.317	8.7
416.525	8.75
416.733	8.68
416.941	8.76
417.149	8.66
417.357	8.59
417.564	8.51
417.772	8.53
417.98	8.52
418.188	8.75
418.395	8.68
418.603	8.65
418.811	8.57
419.019	8.37
419.226	8.34
419.434	8.48
419.642	8.64
419.849	8.65
420.057	8.59
420.265	8.63
420.472	8.52
420.68	8.39
420.887	8.56
421.095	8.66
421.302	8.44
421.51	8.39
421.717	8.33
421.925	8.07
422.132	8.15
422.34	8.14
422.547	8.13
422.755	8.18
422.962	8.17
423.17	8.16
423.377	8.26
423.585	8.38
423.792	8.47
423.999	8.55
424.207	8.54
424.414	8.4
424.621	8.18
424.829	7.96
425.036	7.78
425.243	7.67
425.451	7.58
425.658	7.66
425.865	7.9
426.072	8.04
426.28	7.88
426.487	7.99
426.694	7.92
426.901	7.87
427.108	7.92
427.315	7.98
427.523	7.81
427.73	7.61
427.937	7.49
428.144	7.48
428.351	7.58
428.558	8.04
428.765	8.28
428.972	8.3
429.179	8.09
429.386	8.07
429.593	7.8
429.8	7.77
430.007	7.76
430.214	7.84
430.421	7.93
430.628	7.99
430.835	8.09
431.042	8.02
431.249	8.24
431.456	8.3
431.662	8.33
431.869	8.29
432.076	8.39
432.283	8.28
432.49	8.2
432.697	8.25
432.903	8.29
433.11	8.41
433.317	8.36
433.524	8.23
433.73	8.13
433.937	7.97
434.144	7.86
434.35	7.94
434.557	8.01
434.764	7.98
434.97	8.1
435.177	8.11
435.384	7.94
435.59	8.01
435.797	7.94
436.003	8.1
436.21	7.96
436.416	8.11
436.623	7.96
436.829	7.95
437.036	7.79
437.242	7.84
437.449	7.8
437.655	7.96
437.862	8
438.068	7.95
438.275	8.04
438.481	7.96
438.687	7.94
438.894	8.15
439.1	8.18
439.307	8.11
439.513	8.27
439.719	8.32
439.926	8.09
440.132	8.2
440.338	8.12
440.544	7.97
440.751	7.71
440.957	7.83
441.163	7.61
441.369	7.8
441.575	7.89
441.782	8.25
441.988	8.13
442.194	8.34
442.4	8.32
442.606	8.35
442.812	8.18
443.018	8.17
443.224	7.97
443.431	7.88
443.637	7.95
443.843	7.82
444.049	7.91
444.255	7.95
444.461	7.87
444.667	7.61
444.873	7.73
445.079	7.78
445.284	7.85
445.49	7.98
445.696	8.11
445.902	8.08
446.108	8.05
446.314	7.97
446.52	7.98
446.726	7.99
446.931	7.95
447.137	7.89
447.343	7.83
447.549	7.72
447.755	7.62
447.96	7.67
448.166	7.7
448.372	7.84
448.578	7.87
448.783	8.1
448.989	8.14
449.195	8.07
449.4	8.01
449.606	7.98
449.812	7.83
450.017	7.74
450.223	7.71
450.428	7.68
450.634	7.73
450.84	7.75
451.045	7.91
451.251	7.97
451.456	8.05
451.662	8.05
451.867	8.04
452.073	7.94
452.278	7.93
452.483	7.86
452.689	7.9
452.894	7.9
453.1	7.72
453.305	7.76
453.51	7.88
453.716	7.83
453.921	7.93
454.127	8.05
454.332	7.99
454.537	7.93
454.742	7.85
454.948	7.69
455.153	7.79
455.358	7.89
455.563	7.8
455.769	7.87
455.974	7.94
456.179	7.79
456.384	7.6
456.589	7.7
456.795	7.74
457	7.68
457.205	7.66
457.41	7.8
457.615	7.68
457.82	7.61
458.025	7.57
458.23	7.7
458.435	7.63
458.64	7.62
458.845	7.73
459.05	7.72
459.255	7.71
459.46	7.75
459.665	7.78
459.87	7.69
460.075	7.86
460.28	7.81
460.485	7.87
460.69	7.89
460.895	8.02
461.099	7.97
461.304	7.96
461.509	7.96
461.714	8.01
461.919	8.07
462.123	8.04
462.328	8.15
462.533	8.15
462.738	8.17
462.942	7.95
463.147	8.05
463.352	7.9
463.556	7.91
463.761	7.87
463.966	7.93
464.17	7.97
464.375	8.12
464.58	8.1
464.784	8.12
464.989	8.15
465.193	8.08
465.398	8.02
465.602	8.07
465.807	8.04
466.011	7.99
466.216	7.94
466.42	8.05
466.625	8.02
466.829	8.08
467.034	8.24
467.238	8.29
467.443	8.3
467.647	8.3
467.851	8.29
468.056	8.19
468.26	8.16
468.464	8.11
468.669	8.13
468.873	8.16
469.077	8.08
469.282	8.03
469.486	8.05
469.69	7.95
469.894	7.96
470.099	8.06
470.303	8.1
470.507	8.09
470.711	8.23
470.915	8.27
471.119	8.3
471.324	8.27
471.528	8.16
471.732	8.12
471.936	8.07
472.14	8
472.344	8.22
472.548	8.35
472.752	8.3
472.956	8.19
473.16	8.32
473.364	8.19
473.568	8.14
473.772	8.24
473.976	8.3
474.18	8.23
474.384	8.24
474.588	8.21
474.792	8.13
474.995	8.11
475.199	8.08
475.403	7.98
475.607	8.05
475.811	8.11
476.015	8.14
476.218	8.14
476.422	8.15
476.626	8.06
476.83	8.06
477.033	8.09
477.237	8.09
477.441	8.21
477.644	8.25
477.848	8.28
478.052	8.2
478.255	8.21
478.459	8.14
478.663	8.11
478.866	8.04
479.07	8.12
479.273	8.08
479.477	8.08
479.681	8.14
479.884	8.12
480.088	8.09
480.291	8.09
480.495	8.05
480.698	7.99
480.901	8.06
481.105	8.06
481.308	8.05
481.512	8.04
481.715	8.02
481.919	8.03
482.122	8.04
482.325	8.15
482.529	8.16
482.732	8.21
482.935	8.19
483.138	8.19
483.342	8.03
483.545	8.04
483.748	8.04
483.952	7.93
484.155	7.81
484.358	7.94
484.561	8.01
484.764	8.02
484.967	8.14
485.171	8.28
485.374	8.22
485.577	8.18
485.78	8.11
485.983	8.01
486.186	7.93
486.389	7.96
486.592	7.92
486.795	7.98
486.998	8.05
487.201	8.09
487.404	8.16
487.607	8.25
487.81	8.24
488.013	8.18
488.216	8.19
488.419	8.04
488.622	7.92
488.825	7.89
489.028	7.91
489.231	7.84
489.433	7.91
489.636	7.96
489.839	8.02
490.042	7.99
490.245	7.92
490.447	7.89
490.65	7.82
490.853	7.72
491.056	7.76
491.258	7.82
491.461	7.85
491.664	7.85
491.866	7.88
492.069	7.91
492.272	7.93
492.474	7.94
492.677	7.96
492.879	7.96
493.082	7.88
493.285	7.94
493.487	7.88
493.69	7.84
493.892	7.78
494.095	7.91
494.297	7.82
494.5	7.88
494.702	7.99
494.905	8.07
495.107	7.92
495.309	7.98
495.512	7.94
495.714	7.86
495.917	7.83
496.119	7.83
496.321	7.88
496.524	7.82
496.726	7.86
496.928	7.86
497.13	8
497.333	7.95
497.535	8.05
497.737	8.05
497.939	8.01
498.142	7.9
498.344	7.93
498.546	7.85
498.748	7.87
498.95	7.84
499.152	7.89
499.355	7.83
499.557	7.89
499.759	7.88
499.961	7.99
500.163	7.99
500.365	8.06
500.567	7.98
500.769	8.01
500.971	7.97
501.173	7.97
501.375	7.98
501.577	8.08
501.779	8.06
501.981	8.07
502.183	8.08
502.385	8.05
502.587	7.97
502.788	7.96
502.99	7.97
503.192	7.95
503.394	7.91
503.596	8
503.798	8.11
503.999	8.12
504.201	8.17
504.403	8.27
504.605	8.24
504.806	8.17
505.008	8.18
505.21	8.07
505.411	7.98
505.613	7.95
505.815	7.93
506.016	7.94
506.218	8.07
506.42	8.05
506.621	8.1
506.823	8.17
507.024	8.12
507.226	8.12
507.427	8.17
507.629	8.11
507.83	8.07
508.032	8.04
508.233	7.99
508.435	8.02
508.636	8.13
508.838	8.13
509.039	8.22
509.24	8.2
509.442	8.18
509.643	8.06
509.845	8.06
510.046	8.07
510.247	8.1
510.448	8.19
510.65	8.28
510.851	8.26
511.052	8.27
511.254	8.27
511.455	8.24
511.656	8.19
511.857	8.2
512.058	8.14
512.26	8.12
512.461	8.11
512.662	8.14
512.863	8.16
513.064	8.13
513.265	8.19
513.466	8.23
513.667	8.26
513.868	8.22
514.069	8.25
514.27	8.21
514.471	8.15
514.672	8.18
514.873	8.22
515.074	8.24
515.275	8.27
515.476	8.21
515.677	8.12
515.878	8.1
516.079	8.1
516.28	8.06
516.481	8.16
516.682	8.21
516.882	8.25
517.083	8.27
517.284	8.3
517.485	8.24
517.686	8.21
517.886	8.25
518.087	8.26
518.288	8.27
518.488	8.34
518.689	8.41
518.89	8.36
519.091	8.34
519.291	8.32
519.492	8.27
519.692	8.26
519.893	8.33
520.094	8.3
520.294	8.27
520.495	8.28
520.695	8.33
520.896	8.26
521.096	8.28
521.297	8.34
521.497	8.3
521.698	8.27
521.898	8.27
522.099	8.32
522.299	8.3
522.499	8.34
522.7	8.31
522.9	8.33
523.101	8.3
523.301	8.3
523.501	8.32
523.702	8.34
523.902	8.32
524.102	8.38
524.302	8.42
524.503	8.42
524.703	8.43
524.903	8.48
525.103	8.46
525.304	8.47
525.504	8.46
525.704	8.47
525.904	8.49
526.104	8.45
526.304	8.44
526.504	8.43
526.705	8.41
526.905	8.38
527.105	8.42
527.305	8.37
527.505	8.43
527.705	8.44
527.905	8.42
528.105	8.39
528.305	8.46
528.505	8.39
528.705	8.44
528.905	8.45
529.105	8.47
529.304	8.46
529.504	8.59
529.704	8.56
529.904	8.64
530.104	8.72
530.304	8.66
530.503	8.62
530.703	8.63
530.903	8.68
531.103	8.65
531.303	8.72
531.502	8.73
531.702	8.71
531.902	8.62
532.101	8.62
532.301	8.65
532.501	8.61
532.7	8.67
532.9	8.62
533.1	8.64
533.299	8.64
533.499	8.7
533.698	8.67
533.898	8.72
534.097	8.75
534.297	8.67
534.496	8.64
534.696	8.68
534.895	8.66
535.095	8.69
535.294	8.73
535.494	8.74
535.693	8.76
535.892	8.85
536.092	8.82
536.291	8.83
536.491	8.9
536.69	8.92
536.889	8.92
537.088	8.9
537.288	8.94
537.487	8.95
537.686	8.95
537.886	9.03
538.085	9.05
538.284	9.07
538.483	9.09
538.682	9.1
538.882	9.07
539.081	9.09
539.28	9.1
539.479	9.06
539.678	9.1
539.877	9.08
540.076	9.1
540.275	9.09
540.474	9.11
540.673	9.04
540.872	9.09
541.071	9.11
541.27	9.18
541.469	9.2
541.668	9.24
541.867	9.27
542.066	9.3
542.265	9.3
542.464	9.28
542.663	9.4
542.862	9.48
543.06	9.53
543.259	9.57
543.458	9.64
543.657	9.66
543.856	9.68
544.054	9.71
544.253	9.79
544.452	9.83
544.651	9.78
544.849	9.73
545.048	9.69
545.247	9.73
545.445	9.76
545.644	9.82
545.843	9.9
546.041	9.96
546.24	9.87
546.438	9.91
546.637	9.94
546.836	9.93
547.034	10
547.233	10.1
547.431	10.14
547.63	10.16
547.828	10.27
548.027	10.29
548.225	10.29
548.423	10.33
548.622	10.35
548.82	10.34
549.019	10.38
549.217	10.36
549.415	10.41
549.614	10.5
549.812	10.52
550.01	10.53
550.209	10.64
550.407	10.63
550.605	10.59
550.803	10.6
551.002	10.62
551.2	10.62
551.398	10.66
551.596	10.75
551.794	10.88
551.993	10.94
552.191	11.02
552.389	11.08
552.587	11.14
552.785	11.15
552.983	11.17
553.181	11.24
553.379	11.3
553.577	11.4
553.775	11.49
553.973	11.57
554.171	11.58
554.369	11.68
554.567	11.73
554.765	11.82
554.963	11.8
555.161	11.94
555.359	11.97
555.557	11.96
555.755	12
555.952	12.07
556.15	12.08
556.348	12.12
556.546	12.18
556.744	12.25
556.941	12.32
557.139	12.42
557.337	12.54
557.535	12.66
557.732	12.67
557.93	12.8
558.128	12.84
558.325	12.89
558.523	12.92
558.721	13.04
558.918	13.06
559.116	13.2
559.313	13.27
559.511	13.36
559.708	13.44
559.906	13.5
560.104	13.51
560.301	13.61
560.498	13.67
560.696	13.71
560.893	13.81
561.091	13.85
561.288	13.96
561.486	14.02
561.683	14.15
561.88	14.19
562.078	14.35
562.275	14.28
562.473	14.38
562.67	14.41
562.867	14.55
563.064	14.53
563.262	14.67
563.459	14.82
563.656	14.97
563.853	14.99
564.051	15.06
564.248	15.11
564.445	15.21
564.642	15.19
564.839	15.34
565.036	15.49
565.234	15.61
565.431	15.62
565.628	15.75
565.825	15.69
566.022	15.81
566.219	15.87
566.416	15.9
566.613	16
566.81	16.14
567.007	16.17
567.204	16.22
567.401	16.33
567.598	16.4
567.795	16.54
567.991	16.61
568.188	16.74
568.385	16.74
568.582	16.78
568.779	16.76
568.976	16.82
569.172	16.88
569.369	16.93
569.566	17.01
569.763	17.01
569.96	17.15
570.156	17.21
570.353	17.3
570.55	17.38
570.746	17.46
570.943	17.49
571.14	17.49
571.336	17.55
571.533	17.49
571.729	17.55
571.926	17.61
572.123	17.67
572.319	17.82
572.516	17.9
572.712	17.9
572.909	17.84
573.105	17.91
573.302	17.85
573.498	17.8
573.695	17.9
573.891	17.91
574.087	17.81
574.284	17.83
574.48	17.97
574.677	17.94
574.873	18.06
575.069	18.15
575.266	18.13
575.462	18.07
575.658	18.09
575.854	18.11
576.051	18.19
576.247	18.19
576.443	18.3
576.639	18.44
576.835	18.41
577.032	18.3
577.228	18.37
577.424	18.38
577.62	18.29
577.816	18.3
578.012	18.39
578.208	18.38
578.404	18.32
578.6	18.31
578.796	18.28
578.993	18.32
579.189	18.29
579.384	18.35
579.58	18.32
579.776	18.32
579.972	18.25
580.168	18.33
580.364	18.27
580.56	18.33
580.756	18.35
580.952	18.3
581.148	18.27
581.343	18.25
581.539	18.25
581.735	18.22
581.931	18.27
582.127	18.23
582.322	18.31
582.518	18.28
582.714	18.3
582.909	18.28
583.105	18.2
583.301	18.19
583.496	18.17
583.692	18.12
583.888	18.13
584.083	18.18
584.279	18.19
584.474	18.08
584.67	17.95
584.866	17.86
585.061	17.8
585.257	17.73
585.452	17.77
585.648	17.86
585.843	17.87
586.039	17.97
586.234	17.95
586.429	17.91
586.625	17.93
586.82	17.95
587.015	17.9
587.211	17.82
587.406	17.88
587.601	17.94
587.797	17.88
587.992	17.82
588.187	17.83
588.383	17.85
588.578	17.73
588.773	17.74
588.968	17.84
589.163	17.86
589.359	17.8
589.554	17.83
589.749	17.84
589.944	17.77
590.139	17.89
590.334	17.92
590.529	17.99
590.724	18.01
590.919	18.15
591.114	18.02
591.309	17.97
591.504	18
591.699	18.05
591.894	17.96
592.089	18.07
592.284	18.16
592.479	18.14
592.674	18.17
592.869	18.16
593.064	18.25
593.259	18.42
593.454	18.42
593.648	18.38
593.843	18.41
594.038	18.44
594.233	18.28
594.428	18.52
594.622	18.65
594.817	18.82
595.012	18.77
595.206	18.91
595.401	18.95
595.596	19
595.79	18.98
595.985	19.07
596.18	19.06
596.374	18.96
596.569	18.88
596.763	18.99
596.958	19.08
597.153	19.1
597.347	19.14
597.542	19.26
597.736	19.32
597.931	19.29
598.125	19.5
598.319	19.59
598.514	19.68
598.708	19.64
598.903	19.69
599.097	19.67
599.291	19.67
599.486	19.69
599.68	19.69
599.874	19.72
600.069	19.76
600.263	19.76
600.457	19.76
600.651	19.84
600.846	19.91
601.04	19.93
601.234	19.97
601.428	20.04
601.622	19.99
601.817	19.96
602.011	19.88
602.205	19.89
602.399	19.83
602.593	19.96
602.787	19.95
602.981	19.94
603.175	20.09
603.369	20.04
603.563	19.96
603.757	19.95
603.951	19.94
604.145	19.72
604.339	19.79
604.533	19.76
604.727	19.71
604.921	19.71
605.115	19.7
605.309	19.61
605.502	19.68
605.696	19.72
605.89	19.7
606.084	19.69
606.278	19.68
606.471	19.56
606.665	19.49
606.859	19.42
607.053	19.33
607.246	19.24
607.44	19.14
607.634	19.14
607.827	19.1
608.021	19.09
608.214	19
608.408	19
608.602	18.91
608.795	18.86
608.989	18.75
609.182	18.72
609.376	18.66
609.569	18.55
609.763	18.47
609.956	18.48
610.15	18.5
610.343	18.38
610.537	18.41
610.73	18.3
610.923	18.39
611.117	18.29
611.31	18.2
611.504	18.15
611.697	18.16
611.89	17.98
612.083	17.83
612.277	17.83
612.47	17.66
612.663	17.6
612.856	17.42
613.05	17.44
613.243	17.39
613.436	17.23
613.629	17.09
613.822	17.14
614.015	17.14
614.209	17
614.402	16.99
614.595	17.08
614.788	16.98
614.981	16.91
615.174	16.93
615.367	17
615.56	16.74
615.753	16.69
615.946	16.51
616.139	16.43
616.332	16.37
616.525	16.37
616.718	16.28
616.911	16.39
617.103	16.37
617.296	16.3
617.489	16.26
617.682	16.35
617.875	16.14
618.067	15.96
618.26	15.81
618.453	15.83
618.646	15.72
618.838	15.68
619.031	15.76
619.224	15.83
619.417	15.75
619.609	15.66
619.802	15.7
619.994	15.61
620.187	15.53
620.38	15.53
620.572	15.56
620.765	15.49
620.957	15.55
621.15	15.56
621.342	15.52
621.535	15.51
621.727	15.47
621.92	15.4
622.112	15.31
622.305	15.27
622.497	15.15
622.69	15.05
622.882	15.05
623.074	15.11
623.267	15.03
623.459	15
623.651	15.04
623.844	15
624.036	14.96
624.228	15.03
624.42	15.06
624.613	15.07
624.805	15.06
624.997	15.04
625.189	15.01
625.381	14.94
625.574	14.96
625.766	14.96
625.958	14.91
626.15	14.87
626.342	14.86
626.534	14.85
626.726	14.78
626.918	14.83
627.11	14.8
627.302	14.77
627.494	14.71
627.686	14.72
627.878	14.64
628.07	14.57
628.262	14.54
628.454	14.44
628.646	14.36
628.838	14.36
629.029	14.41
629.221	14.43
629.413	14.45
629.605	14.45
629.797	14.37
629.989	14.35
630.18	14.31
630.372	14.26
630.564	14.25
630.755	14.22
630.947	14.07
631.139	14.03
631.33	14.09
631.522	14.03
631.714	13.98
631.905	14.02
632.097	13.93
632.289	13.82
632.48	13.79
632.672	13.84
632.863	13.85
633.055	13.9
633.246	13.93
633.438	14.01
633.629	13.92
633.821	13.83
634.012	13.83
634.203	13.87
634.395	13.82
634.586	13.91
634.777	13.87
634.969	13.91
635.16	13.79
635.351	13.74
635.543	13.79
635.734	13.92
635.925	13.93
636.117	14
636.308	14.02
636.499	13.89
636.69	13.72
636.881	13.68
637.073	13.65
637.264	13.66
637.455	13.63
637.646	13.7
637.837	13.66
638.028	13.63
638.219	13.59
638.41	13.66
638.601	13.64
638.792	13.6
638.983	13.56
639.174	13.45
639.365	13.41
639.556	13.41
639.747	13.44
639.938	13.51
640.129	13.53
640.32	13.61
640.511	13.67
640.701	13.62
640.892	13.62
641.083	13.67
641.274	13.59
641.465	13.47
641.655	13.62
641.846	13.54
642.037	13.44
642.228	13.44
642.418	13.34
642.609	13.26
642.8	13.26
642.99	13.24
643.181	13.15
643.372	13.18
643.562	13.04
643.753	12.97
643.943	13.06
644.134	13.1
644.324	13.12
644.515	13.14
644.705	13.14
644.896	13
645.086	12.96
645.277	12.95
645.467	12.96
645.658	12.91
645.848	12.96
646.038	12.9
646.229	12.89
646.419	12.89
646.61	12.91
646.8	12.89
646.99	12.84
647.18	12.75
647.371	12.68
647.561	12.6
647.751	12.68
647.941	12.66
648.132	12.73
648.322	12.77
648.512	12.82
648.702	12.77
648.892	12.66
649.082	12.62
649.272	12.5
649.462	12.48
649.653	12.45
649.843	12.6
650.033	12.55
650.223	12.61
650.413	12.58
650.603	12.5
650.793	12.41
650.983	12.43
651.172	12.31
651.362	12.18
651.552	12.13
651.742	12.11
651.932	12.1
652.122	12.19
652.312	12.2
652.502	12.21
652.691	12.2
652.881	12.14
653.071	12.09
653.261	12.06
653.45	11.97
653.64	11.94
653.83	11.88
654.019	11.63
654.209	11.63
654.399	11.59
654.588	11.42
654.778	11.34
654.968	11.33
655.157	11.22
655.347	11.14
655.536	11.05
655.726	10.91
655.915	10.92
656.105	10.79
656.294	10.69
656.484	10.69
656.673	10.63
656.863	10.45
657.052	10.38
657.241	10.21
657.431	10.11
657.62	10.01
657.809	9.97
657.999	9.93
658.188	9.97
658.377	9.87
658.567	9.71
658.756	9.6
658.945	9.44
659.134	9.31
659.324	9.19
659.513	9.21
659.702	9.05
659.891	9
660.08	8.78
660.269	8.69
660.458	8.53
660.648	8.61
660.837	8.52
661.026	8.6
661.215	8.53
661.404	8.54
661.593	8.4
661.782	8.25
661.971	8.13
662.16	8.09
662.349	7.98
662.538	7.93
662.726	7.89
662.915	7.9
663.104	7.82
663.293	7.73
663.482	7.69
663.671	7.62
663.86	7.46
664.048	7.4
664.237	7.41
664.426	7.28
664.615	7.21
664.803	7.12
664.992	7.01
665.181	7.01
665.369	7.07
665.558	7.2
665.747	7.34
665.935	7.41
666.124	7.37
666.312	7.36
666.501	7.22
666.69	7.1
666.878	7.09
667.067	7.06
667.255	7.16
667.444	7.28
667.632	7.38
667.82	7.46
668.009	7.46
668.197	7.42
668.386	7.3
668.574	7.24
668.762	7.13
668.951	7.2
669.139	7.21
669.327	7.3
669.516	7.37
669.704	7.44
669.892	7.47
670.08	7.45
670.269	7.45
670.457	7.46
670.645	7.38
670.833	7.33
671.021	7.38
671.21	7.4
671.398	7.46
671.586	7.59
671.774	7.74
671.962	7.77
672.15	7.87
672.338	7.93
672.526	8.06
672.714	8.08
672.902	8.1
673.09	8.2
673.278	8.26
673.466	8.27
673.654	8.47
673.842	8.63
674.03	8.65
674.218	8.79
674.405	8.91
674.593	8.84
674.781	8.98
674.969	8.9
675.157	8.81
675.344	8.78
675.532	8.83
675.72	8.77
675.908	8.89
676.095	8.88
676.283	9.02
676.471	9.07
676.658	9.19
676.846	9.33
677.033	9.67
677.221	9.67
677.409	9.72
677.596	9.77
677.784	9.9
677.971	9.85
678.159	10.06
678.346	10.1
678.534	10.16
678.721	10.14
678.909	10.29
679.096	10.26
679.283	10.49
679.471	10.56
679.658	10.67
679.846	10.67
680.033	10.72
680.22	10.8
680.408	10.77
680.595	10.82
680.782	10.9
680.969	11
681.157	11.1
681.344	11.23
681.531	11.28
681.718	11.39
681.905	11.41
682.093	11.45
682.28	11.7
682.467	11.91
682.654	11.83
682.841	12.01
683.028	11.88
683.215	11.94
683.402	12.02
683.589	12.36
683.776	12.63
683.963	12.86
684.15	13.02
684.337	13.18
684.524	13.27
684.711	13.42
684.898	13.57
685.085	13.59
685.271	13.86
685.458	13.94
685.645	13.99
685.832	14.26
686.019	14.62
686.205	14.62
686.392	14.91
686.579	15.14
686.766	15.36
686.952	15.41
687.139	15.69
687.326	15.97
687.512	16.04
687.699	16.33
687.886	16.71
688.072	16.82
688.259	17.07
688.445	17.5
688.632	17.72
688.818	17.97
689.005	18.35
689.191	18.73
689.378	19.01
689.564	19.39
689.751	19.68
689.937	20.29
690.124	20.65
690.31	20.98
690.496	21.61
690.683	22.11
690.869	22.47
691.055	22.82
691.242	23.29
691.428	23.47
691.614	24.03
691.8	24.31
691.987	24.92
692.173	25.6
692.359	26.19
692.545	26.74
692.731	27.35
692.918	27.83
693.104	28.29
693.29	28.85
693.476	29.26
693.662	29.91
693.848	30.45
694.034	30.97
694.22	31.25
694.406	31.69
694.592	32.12
694.778	32.65
694.964	33.2
695.15	33.94
695.336	34.31
695.522	35.03
695.708	35.6
695.894	35.99
696.08	36.59
696.265	37.48
696.451	37.71
696.637	38.11
696.823	38.71
697.009	39.33
697.194	39.8
697.38	40.71
697.566	41.5
697.751	42.48
697.937	42.89
698.123	43.47
698.308	43.62
698.494	44.08
698.68	44.22
698.865	44.72
699.051	45.13
699.236	45.62
699.422	45.95
699.607	46.56
699.793	47.14
699.978	47.33
700.164	47.95
700.349	48.43
700.535	48.64
700.72	48.93
700.906	49.98
701.091	50.37
701.276	50.87
701.462	51.45
701.647	51.97
701.832	52.32
702.018	52.87
702.203	53.1
702.388	53.5
702.573	54.06
702.759	54.18
702.944	54.48
703.129	54.94
703.314	55.26
703.499	55.2
703.684	55.76
703.87	56.27
704.055	56.64
704.24	56.64
704.425	57.16
704.61	57.64
704.795	57.8
704.98	58.28
705.165	59.08
705.35	59.84
705.535	60.06
705.72	60.25
705.905	60.61
706.09	60.92
706.275	61.01
706.459	61.57
706.644	61.64
706.829	62.03
707.014	62.27
707.199	62.43
707.384	62.38
707.568	63.13
707.753	63.37
707.938	63.42
708.123	63.93
708.307	63.97
708.492	64.58
708.677	64.48
708.861	65.05
709.046	65.06
709.231	65.22
709.415	64.98
709.6	65.25
709.784	65.43
709.969	65.79
710.153	65.92
710.338	66.13
710.522	66.63
710.707	66.74
710.891	66.9
711.076	67.58
711.26	68
711.445	68.16
711.629	68.36
711.813	68.35
711.998	68.75
712.182	69.08
712.366	69.67
712.551	70
712.735	70.15
712.919	70.25
713.103	69.96
713.288	69.55
713.472	69.45
713.656	70.02
713.84	69.89
714.024	70.28
714.208	70.68
714.393	71.15
714.577	71.13
714.761	71.57
714.945	71.89
715.129	72
715.313	72.13
715.497	72.79
715.681	72.44
715.865	72.53
716.049	72.68
716.233	73.51
716.417	73.57
716.601	74.09
716.785	74.24
716.968	74.31
717.152	73.78
717.336	73.67
717.52	74.11
717.704	74.04
717.888	74.55
718.071	74.84
718.255	74.98
718.439	74.9
718.622	75.28
718.806	75.17
718.99	75.41
719.174	75.26
719.357	75.42
719.541	75.67
719.724	75.9
719.908	75.99
720.092	76.5
720.275	76.82
720.459	76.91
720.642	77.39
720.826	78.13
721.009	78.28
721.193	78.19
721.376	78.63
721.559	78.34
721.743	77.47
721.926	77.6
722.11	77.67
722.293	77.52
722.476	77.97
722.66	78.59
722.843	79.51
723.026	79.87
723.21	80.14
723.393	80.07
723.576	80.33
723.759	79.27
723.942	79.71
724.126	80.49
724.309	81.32
724.492	81.28
724.675	82.03
724.858	82.11
725.041	81.57
725.224	81.49
725.407	81.95
725.59	82.37
725.774	82.28
725.957	82.75
726.14	82.65
726.322	82.86
726.505	82.51
726.688	83.19
726.871	83.24
727.054	83.23
727.237	82.93
727.42	83.13
727.603	82.81
727.786	82.39
727.968	82.62
728.151	82.86
728.334	83.17
728.517	83.36
728.699	84.26
728.882	84.3
729.065	85.06
729.248	85.42
729.43	85.91
729.613	86.02
729.796	85.8
729.978	85.59
730.161	85.39
730.343	85.15
730.526	86
730.708	86.79
730.891	87.41
731.073	87.43
731.256	87.92
731.438	86.69
731.621	87
731.803	86.65
731.986	87.67
732.168	87.07
732.35	87.22
732.533	86.93
732.715	86.71
732.898	86.37
733.08	87.33
733.262	88.33
733.444	88.5
733.627	89.17
733.809	88.92
733.991	88.92
734.173	88.83
734.355	89.08
734.538	89.32
734.72	90.01
734.902	91.25
735.084	91.04
735.266	90.67
735.448	90.35
735.63	90.01
735.812	89.17
735.994	88.37
736.176	89.44
736.358	91
736.54	91.38
736.722	91.42
736.904	93.67
737.086	92.95
737.268	91.61
737.45	91.95
737.632	91.67
737.814	90.08
737.995	91.1
738.177	91.57
738.359	91.1
738.541	91.66
738.723	92.02
738.904	92.06
739.086	91.91
739.268	92.16
739.449	92.22
739.631	92.35
739.813	92.07
739.994	92.18
740.176	91.93
740.358	92
740.539	91.62
740.721	91.61
740.902	91.61
741.084	92.07
741.265	91.28
741.447	92.3
741.628	91.9
741.81	91.26
741.991	91.01
742.172	91.81
742.354	92.04
742.535	93.6
742.717	94.29
742.898	95.3
743.079	94.56
743.261	93.24
743.442	91.91
743.623	91.4
743.804	90.04
743.986	90.58
744.167	92.37
744.348	92.17
744.529	93.17
744.71	94.31
744.891	95.37
745.073	95.03
745.254	96.77
745.435	96.15
745.616	95.63
745.797	93.59
745.978	92.97
746.159	92.59
746.34	92.46
746.521	91.86
746.702	93.19
746.883	93.52
747.064	91.62
747.245	92.82
747.426	92.48
747.606	91.47
747.787	91.84
747.968	91.64
748.149	91
748.33	91.77
748.51	93.57
748.691	91.96
748.872	92.68
749.053	92.18
749.233	92.37
749.414	90.77
749.595	92.71
749.775	94.64
749.956	94.62
750.137	94.39
750.317	94.14
750.498	93.34
750.678	93.07
750.859	94.33
751.04	94.83
751.22	95.59
751.4	95.72
751.581	94.15
751.761	93.51
751.942	93.51
752.122	93.33
752.303	92.4
752.483	92.92
752.663	92.74
752.844	91.72
753.024	90.97
753.204	90.35
753.385	89.71
753.565	90.25
753.745	91.43
753.925	92.22
754.106	94.66
754.286	93.68
754.466	93.42
754.646	93.24
754.826	92.47
755.006	91.56
755.187	94.04
755.367	93.7
755.547	93.1
755.727	93.93
755.907	93.69
756.087	92.15
756.267	91.17
756.447	91.94
756.627	91.66
756.807	92.17
756.987	92.03
757.167	93.55
757.346	92.9
757.526	91.53
757.706	90.4
757.886	89.47
758.066	88.64
758.246	88.48
758.425	89.95
758.605	89.21
758.785	91.52
758.965	93.14
759.144	94.81
759.324	95.17
759.504	96.8
759.683	97.26
759.863	94.73
760.043	93.77
760.222	92.28
760.402	91.14
760.581	90.26
760.761	89.09
760.94	87.71
761.12	89.61
761.299	88.96
761.479	89.03
761.658	89.61
761.838	90.38
762.017	89.73
762.197	89.82
762.376	89.56
762.555	89.9
762.735	91.23
762.914	89.35
763.093	89.96
763.273	89.21
763.452	89.68
763.631	87.56
763.81	87.82
763.99	89.17
764.169	90.45
764.348	90.77
764.527	91.8
764.706	91.6
764.885	91.01
765.064	91
765.243	90.4
765.423	90.81
765.602	89.98
765.781	90.05
765.96	88.7
766.139	89.35
766.318	88
766.497	90.97
766.676	90.63
766.854	91.06
767.033	91.66
767.212	92.71
767.391	91.64
767.57	92.45
767.749	90.85
767.928	90.39
768.106	91.11
768.285	90
768.464	88.5
768.643	90.76
768.821	90.3
769	89.7
769.179	91.41
769.357	91.12
769.536	88.84
769.715	88.89
769.893	89.49
770.072	88.5
770.25	90.03
770.429	90.45
770.607	89.72
770.786	88.6
770.964	87.71
771.143	86.09
771.321	85.68
771.5	86.45
771.678	87.84
771.857	87.95
772.035	91.08
772.213	92.3
772.392	91.62
772.57	91.01
772.748	92.54
772.927	89.75
773.105	89.24
773.283	90.42
773.461	88.75
773.64	87.26
773.818	88.19
773.996	87.9
774.174	87.08
774.352	86.73
774.531	86.75
774.709	87.33
774.887	91.68
775.065	90.54
775.243	92.2
775.421	91.87
775.599	90.49
775.777	86.47
775.955	85.52
776.133	85.84
776.311	86.8
776.489	85.86
776.667	86.05
776.844	88.75
777.022	88.35
777.2	88.35
777.378	88.65
777.556	88.72
777.734	86.24
777.911	84.65
778.089	84.08
778.267	83.31
778.445	82.05
778.622	82.98
778.8	84.43
778.978	83.85
779.155	84.42
779.333	84.69
779.511	81.84
779.688	80.85
779.866	79.44
780.043	79.98
780.221	81.98
780.398	83.39
780.576	83.93
780.753	87.12
780.931	85.63
781.108	84.46
781.286	85.04
781.463	84.24
781.64	84.2
781.818	85.28
781.995	84.73
782.172	84.46
782.35	85.47
782.527	86.64
782.704	85.04
782.882	87.34
783.059	86.37
783.236	85.02
783.413	81.63
783.59	80.3
783.768	77.01
783.945	79.72
784.122	78.51
784.299	79.4
784.476	81.45
784.653	82.36
784.83	82.46
785.007	84.68
785.184	84.9
785.361	84.07
785.538	82.09
785.715	82.12
785.892	79.07
786.069	79.09
786.246	79.64
786.423	82.08
786.6	80.3
786.776	80.66
786.953	81.77
787.13	83.26
787.307	81.38
787.484	82.47
787.66	84.93
787.837	84.65
788.014	89.93
788.191	93.09
788.367	95.15
788.544	95.61
788.721	96.91
788.897	92.21
789.074	88.2
789.25	83.36
789.427	83.74
789.603	79.5
789.78	78.15
789.956	79.1
790.133	80.83
790.309	81.83
790.486	80.97
790.662	81.66
790.839	84.94
791.015	82.68
791.192	79.07
791.368	85.56
791.544	83.32
791.721	81.23
791.897	87.69
792.073	90.49
792.249	84.72
792.426	88.87
792.602	90.26
792.778	84.77
792.954	84.77
793.13	86.05
793.307	84.87
793.483	82.22
793.659	84.67
793.835	79.34
794.011	82.3
794.187	81.47
794.363	82.74
794.539	77.51
794.715	82.21
794.891	83.01
795.067	81.81
795.243	81.28
795.419	86.2
795.595	84.46
795.771	81.9
795.947	83.93
796.122	83.89
796.298	80.49
796.474	76.43
796.65	74.43
796.826	74.13
797.001	74.2
797.177	74.17
797.353	78
797.529	79.06
797.704	79.52
797.88	78.18
798.056	79.43
798.231	85.58
798.407	83.66
798.582	80.41
798.758	83.7
798.934	86.62
799.109	79.02
799.285	83.7
799.46	88.46
799.636	86.63
799.811	80.9
799.986	81.97
800.162	79.3
800.337	81.09
800.513	81.69
800.688	85.24
800.863	86.93
801.039	89.07
801.214	86.95
801.389	84.83
801.565	81.09
801.74	87.64
801.915	90.39
802.09	85.98
802.265	92.39
802.441	97.63
802.616	88.15
802.791	87.99
802.966	91.42
803.141	85.95
803.316	79.12
803.491	78.46
803.666	75.49
803.841	68.03
804.016	69.63
804.191	72.7
804.366	83.07
804.541	83.03
804.716	87.19
804.891	83.99
805.066	88.36
805.241	80.35
805.416	75.05
805.591	69.39
805.765	65.12
805.94	63.68
806.115	61.79
806.29	62.28
806.464	68.41
806.639	71.96
806.814	69.85
806.989	67.46
807.163	68.44
807.338	72.76
807.512	78.35
807.687	80.88
807.862	80.97
808.036	76.56
808.211	67.94
808.385	62.48
808.56	57.65
808.734	60.86
808.909	65.07
809.083	70.43
809.258	73.42
809.432	87.48
809.606	79.51
809.781	68.99
809.955	70.22
810.13	70.34
810.304	60.32
810.478	66.97
810.652	76.59
810.827	79.73
811.001	86.04
811.175	87.55
811.349	81.86
811.524	80.22
811.698	72.86
811.872	67.3
812.046	73.04
812.22	77.25
812.394	80.22
812.568	91.17
812.742	93.52
812.916	82.26
813.09	81.3
813.264	79.53
813.438	78.06
813.612	83.81
813.786	81.58
813.96	88.04
814.134	84.84
814.308	86.29
814.482	79
814.656	81.44
814.83	75.2
815.003	78.14
815.177	71.12
815.351	76.89
815.525	85.54
815.698	86.72
815.872	83.1
816.046	84.32
816.219	79.25
816.393	81.28
816.567	82.68
816.74	88.91
816.914	83.67
817.088	81.16
817.261	77.64
817.435	83.23
817.608	87.53
817.782	86.74
817.955	99.3
818.129	97.19
818.302	92.56
818.475	87.02
818.649	89.83
818.822	82.29
818.996	93.49
819.169	92.75
819.342	88.2
819.516	83.71
819.689	86.35
819.862	80.28
820.035	79.28
820.209	73.39
820.382	87.37
820.555	86.41
820.728	90.07
820.901	77.28
821.075	95.75
821.248	103.67
821.421	100.76
821.594	86.6
821.767	101.79
821.94	93.24
822.113	75.83
822.286	77.03
822.459	85.5
822.632	84.14
822.805	84
822.978	83.67
823.151	84.88
823.324	81.36
823.496	75.97
823.669	67.57
823.842	62.09
824.015	60.97
824.188	54.69
824.361	62.85
824.533	73.67
824.706	78
824.879	80.86
825.051	83.66
825.224	71.62
825.397	69.57
825.569	77.78
825.742	76.9
825.915	70.16
826.087	82.93
826.26	84.55
826.432	87.17
826.605	91.03
826.777	83.24
826.95	93.48
827.122	82.78
827.295	80.7
827.467	74.77
827.64	77.12
827.812	73.36
827.984	83.98
828.157	83.44
828.329	74.95
828.501	92.7
828.674	87.92
828.846	81.71
829.018	79.28
829.19	89.32
829.363	75.4
829.535	70.93
829.707	61.57
829.879	57.59
830.051	39.56
830.223	56.03
830.395	47.19
830.568	54.59
830.74	65.82
830.912	82.2
831.084	83.81
831.256	86.16
831.428	85.74
831.6	89.54
831.772	90.1
831.943	78.25
832.115	78.27
832.287	97.46
832.459	78.34
832.631	79.91
832.803	82.06
832.975	89.06
833.146	81.12
833.318	89.26
833.49	91.15
833.662	105.96
833.833	93.05
834.005	91.23
834.177	97.68
834.348	100.31
834.52	81.75
834.692	83.57
834.863	93.01
835.035	93.48
835.206	101.14
835.378	84.09
835.549	88.6
835.721	69.82
835.892	82.07
836.064	80.53
836.235	95.34
836.407	91.67
836.578	107.67
836.749	83.39
836.921	77.61
837.092	75.84
837.264	69.39
837.435	66.98
837.606	70.48
837.777	59.16
837.949	50.95
838.12	41.57
838.291	43.03
838.462	66.15
838.633	97.84
838.805	98.79
838.976	120.21
839.147	138.54
839.318	105.63
839.489	103.49
839.66	119.31
839.831	142.95
840.002	109.6
840.173	90.01
840.344	68.84
840.515	73.87
840.686	51.22
840.857	80.97
841.028	103.72
841.199	111.54
841.369	102.57
841.54	111.82
841.711	102.14
841.882	85.42
842.053	77.33
842.223	90.26
842.394	108.56
842.565	107.76
842.736	134.46
842.906	198.93
843.077	174.19
843.248	152.6
843.418	143.86
843.589	92.17
843.759	99.91
843.93	79.51
844.101	84.64
844.271	73.23
844.442	89.31
844.612	82.01
844.783	68.57
844.953	59.26
845.123	65.64
845.294	48.49
845.464	61.09
845.635	99.19
845.805	120.22
845.975	105
846.146	147.05
846.316	117.29
846.486	110.68
846.656	91.27
846.827	99.67
846.997	88.94
847.167	65.92
847.337	51.87
847.507	44.92
847.677	62.15
847.848	71.81
848.018	116.22
848.188	116.85
848.358	117.05
848.528	116.32
848.698	149.34
848.868	109.51
849.038	110.13
849.208	63.86
849.378	64.44
849.548	24.88
849.718	44.17
849.887	52.03
850.057	65.9
850.227	64.22
850.397	56.75
850.567	56.57
850.737	56.99
850.906	44.61
851.076	49.14
851.246	50.1
851.415	47.58
851.585	45.65
851.755	58.11
851.924	57.26
852.094	71.93
852.264	71.58
852.433	64.27
852.603	69.18
852.772	61.52
852.942	64.86
853.111	72.66
853.281	88.15
853.45	79.53
853.62	65.61
853.789	53.85
853.959	61.09
854.128	55.89
854.297	60.46
854.467	125.5
854.636	125.69
854.805	76.61
854.975	76.19
855.144	71.4
855.313	62.32
855.482	66.03
855.652	72.69
855.821	75.41
855.99	72.17
856.159	57.5
856.328	75.02
856.497	99.07
856.667	85.35
856.836	131.42
857.005	166.8
857.174	112.11
857.343	111.45
857.512	155.03
857.681	93.55
857.85	91.53
858.019	74.28
858.188	62.31
858.356	45.94
858.525	75.41
858.694	83.01
858.863	86.16
859.032	72.92
859.201	84.32
859.369	78.83
859.538	67.31
859.707	71.43
859.876	93.33
860.044	62.24
860.213	63.52
860.382	55.63
860.55	56.54
860.719	75.6
860.888	111.44
861.056	113.39
861.225	117.28
861.393	119.82
861.562	93.84
861.73	88.02
861.899	70.12
862.067	73.51
862.236	68.89
862.404	66.59
862.572	55.67
862.741	58.58
862.909	58.77
863.078	58.05
863.246	58.74
863.414	74.92
863.582	82.13
863.751	58.71
863.919	75.69
864.087	104.49
864.255	82.05
864.424	76.8
864.592	73.31
864.76	55.66
864.928	44.82
865.096	29.62
865.264	51.35
865.432	65.64
865.6	70.47
865.768	62.63
865.936	83.39
866.104	55.3
866.272	31
866.44	3.42
866.608	-16.68
866.776	-19.92
866.944	16.2
867.112	52.09
867.28	78.25
867.448	100.13
867.615	82.86
867.783	85.04
867.951	70.46
868.119	82.71
868.286	89.28
868.454	91.55
868.622	88.24
868.789	111.44
868.957	94.54
869.125	97.11
869.292	76.18
869.46	69.87
869.627	61.28
869.795	69.54
869.963	79.63
870.13	83.78
870.298	69.16
870.465	82.59
870.632	78.5
870.8	48.21
870.967	71.07
871.135	83.78
871.302	37.32
871.469	30.83
871.637	39.08
871.804	17.82
871.971	16.95
872.139	45.33
872.306	73.78
872.473	92.06
872.64	105.89
872.807	102.62
872.975	94.78
873.142	73.49
873.309	62.87
873.476	66.36
873.643	85.21
873.81	93.23
873.977	88.46
874.144	91.82
874.311	105.86
874.478	92.52
874.645	72.05
874.812	85.38
874.979	65.2
875.146	47.96
875.313	23.94
875.48	35.16
875.647	28.41
875.813	38.64
875.98	43.4
876.147	70.91
876.314	47.25
876.481	52.64
876.647	54.93
876.814	61.2
876.981	68.82
877.147	110.61
877.314	87.8
877.481	78.26
877.647	58.4
877.814	52.65
877.98	30.6
878.147	3.93
878.314	12.2
878.48	55.88
878.647	60.92
878.813	51.88
878.979	80.23
879.146	66.1
879.312	8.58
879.479	18.52
879.645	48.8
879.811	8.69
879.978	9.29
880.144	52.69
880.31	45.97
880.477	27.86
880.643	46.63
880.809	79.87
880.975	70.91
881.142	41.98
881.308	62.32
881.474	133.11
881.64	94.23
881.806	117.14
881.972	156.87
882.138	139.42
882.304	83
882.47	35.84
882.636	36.64
882.802	27.68
882.968	16.25
883.134	13.65
883.3	36.97
883.466	39.96
883.632	66.5
883.798	90.5
883.964	73.48
884.129	115.02
884.295	53.78
884.461	44.8
884.627	8.32
884.793	49.57
884.958	58.22
885.124	63.9
885.29	60.82
885.455	65.83
885.621	74.6
885.787	52.03
885.952	54.06
886.118	51.5
886.283	63.86
886.449	39.02
886.614	45.61
886.78	43.58
886.945	49.27
887.111	38.66
887.276	53
887.442	66.55
887.607	116.72
887.773	142.6
887.938	117.47
888.103	95.61
888.269	88.96
888.434	54.65
888.599	38.01
888.764	40.75
888.93	64.86
889.095	67.96
889.26	64.67
889.425	80.19
889.59	92.02
889.756	55.2
889.921	26.57
890.086	22.13
890.251	0.82
890.416	-17.58
890.581	-39.81
890.746	-8.95
890.911	0.9
891.076	29.04
891.241	29.12
891.406	62.02
891.571	62.92
891.736	50.86
891.901	57.89
892.065	86.12
892.23	68.05
892.395	71.48
892.56	14.93
892.725	27.65
892.889	-13
893.054	-3.58
893.219	11.81
893.384	49.77
893.548	39.03
893.713	37.19
893.878	42.56
