Data from Ofav_PP_Phys_366_Reflection_2.txt Node
Date: Tue Jul 27 19:04:22 EDT 2021
User: USUARIO
Spectrometer: FLMT01687
Trigger mode: 0
Integration Time (sec): 8.500000E-1
Scans to average: 2
Electric dark correction enabled: true
Nonlinearity correction enabled: false
Boxcar width: 2
XAxis mode: Wavelengths
Number of Pixels in Spectrum: 3648
>>>>>Begin Spectral Data<<<<<
179.494	-779.26
179.716	-269.89
179.937	-189.39
180.158	-123.66
180.38	-146.7
180.601	-226.81
180.823	37.63
181.044	14.12
181.265	47.98
181.486	30.18
181.708	-19.6
181.929	40.34
182.15	21.64
182.372	-13.13
182.593	3.98
182.814	83.99
183.035	90.14
183.257	77.47
183.478	72.21
183.699	73.49
183.92	69.63
184.141	67.99
184.363	69.87
184.584	72.39
184.805	89.08
185.026	74.77
185.247	69.39
185.468	63.59
185.689	59.11
185.91	38.92
186.132	27.31
186.353	26
186.574	29.78
186.795	18.47
187.016	27.92
187.237	23.49
187.458	37.11
187.679	20.54
187.9	33.9
188.121	51.22
188.342	80.42
188.563	103.83
188.784	124.35
189.005	115.54
189.226	92.83
189.447	93.37
189.667	83.49
189.888	89.25
190.109	92.81
190.33	115.97
190.551	55.36
190.772	45.13
190.993	37
191.214	41.32
191.434	36.11
191.655	56.08
191.876	58.59
192.097	51.03
192.318	47.96
192.538	58.62
192.759	53.01
192.98	49.27
193.201	60.95
193.421	84.76
193.642	51.51
193.863	40.35
194.083	52.7
194.304	33.8
194.525	16.25
194.745	25.37
194.966	32.56
195.187	0.68
195.407	61.94
195.628	79.85
195.848	72.68
196.069	93.68
196.29	190.64
196.51	167.94
196.731	127.77
196.951	127.4
197.172	123.34
197.392	103.29
197.613	105.95
197.833	83.87
198.054	106.59
198.274	70.9
198.495	40.09
198.715	60.24
198.936	64.92
199.156	57.95
199.377	110.07
199.597	159.67
199.817	67.06
200.038	124.31
200.258	69.34
200.479	50.52
200.699	40.74
200.919	64.25
201.14	61.84
201.36	72.36
201.58	92.97
201.801	101.85
202.021	70.49
202.241	75.37
202.461	79.32
202.682	38.43
202.902	40.38
203.122	49.54
203.342	46.91
203.563	50.99
203.783	66.98
204.003	68.84
204.223	68.53
204.443	72.22
204.663	52.33
204.884	57.56
205.104	56.52
205.324	71
205.544	67.72
205.764	67.79
205.984	56.34
206.204	38.16
206.424	24.11
206.644	34.13
206.864	40.07
207.084	34.38
207.304	48.87
207.525	42.83
207.745	57.64
207.964	67.9
208.184	79.19
208.404	85.92
208.624	83.63
208.844	87.79
209.064	93.58
209.284	82.11
209.504	74.5
209.724	81.01
209.944	27.37
210.164	6.33
210.384	28.28
210.604	51.67
210.823	66.52
211.043	65.1
211.263	61.82
211.483	82.18
211.703	80.19
211.922	88.06
212.142	110.2
212.362	76.52
212.582	49.1
212.801	41.97
213.021	40.41
213.241	27.19
213.461	35.83
213.68	57.3
213.9	61.38
214.12	53.23
214.339	69.32
214.559	71.22
214.779	63.95
214.998	63.2
215.218	44.16
215.438	43.14
215.657	49.67
215.877	41.81
216.096	43.51
216.316	73.88
216.535	65.3
216.755	70.54
216.974	73.69
217.194	75.56
217.413	59.15
217.633	60.43
217.852	58.18
218.072	52.95
218.291	47.11
218.511	27.28
218.73	31.66
218.95	12.88
219.169	20.36
219.389	27.79
219.608	54.8
219.827	83.04
220.047	117.88
220.266	89.55
220.485	78.37
220.705	66.21
220.924	56.71
221.143	42.08
221.363	17.19
221.582	26.09
221.801	37.19
222.021	42.16
222.24	40.45
222.459	38.29
222.678	30.34
222.897	33.97
223.117	27.02
223.336	42.37
223.555	39.81
223.774	34.58
223.993	21.9
224.213	25.08
224.432	24.87
224.651	35.15
224.87	27.63
225.089	20.07
225.308	7.58
225.527	6.84
225.746	-4.49
225.965	11.5
226.184	30.25
226.404	36.76
226.623	52.17
226.842	59.82
227.061	62.58
227.28	75.87
227.499	78.32
227.718	82.01
227.936	87.2
228.155	69.1
228.374	70.53
228.593	71.1
228.812	67.73
229.031	60.99
229.25	56.98
229.469	25.03
229.688	13.97
229.907	-6.58
230.125	17.61
230.344	26.48
230.563	65.59
230.782	68.34
231.001	68.86
231.22	60.94
231.438	68.49
231.657	36.46
231.876	32.84
232.095	40.58
232.313	52.68
232.532	32.15
232.751	36.06
232.969	36.93
233.188	33.98
233.407	19.88
233.625	39.99
233.844	43.66
234.063	78.3
234.281	74.78
234.5	65.96
234.719	82.87
234.937	77.28
235.156	46.08
235.374	50.24
235.593	63.25
235.811	38.28
236.03	43.48
236.249	47.84
236.467	56.4
236.686	55.14
236.904	61.56
237.123	53.83
237.341	58.61
237.559	42.62
237.778	39.45
237.996	38.31
238.215	46.85
238.433	56.58
238.652	59.5
238.87	77.04
239.088	77.21
239.307	73.1
239.525	53.44
239.743	43.02
239.962	27.31
240.18	29.87
240.398	22.18
240.617	19.01
240.835	40.03
241.053	37.76
241.271	27.62
241.49	20.48
241.708	16.54
241.926	0.37
242.144	5.69
242.363	20.49
242.581	49.78
242.799	58.34
243.017	48.35
243.235	68.32
243.453	70.83
243.672	74.89
243.89	45.13
244.108	49.25
244.326	32.49
244.544	20.45
244.762	16.27
244.98	50.6
245.198	40.53
245.416	44.66
245.634	67.12
245.852	71.44
246.07	60.63
246.288	67.25
246.506	57.34
246.724	57.31
246.942	49.44
247.16	37.31
247.378	37.01
247.596	53.37
247.814	42.33
248.032	49.34
248.25	55.79
248.468	60.56
248.685	50.86
248.903	39.91
249.121	38.34
249.339	32.88
249.557	44.91
249.775	26.14
249.992	25.72
250.21	13.09
250.428	33.09
250.646	17.44
250.863	27.63
251.081	48.5
251.299	71.92
251.517	59.24
251.734	89.67
251.952	90.86
252.17	76.97
252.387	55.41
252.605	56.32
252.823	33.38
253.04	70.52
253.258	70.8
253.475	74.61
253.693	88.19
253.911	92.92
254.128	64.99
254.346	61.31
254.563	55.06
254.781	32.17
254.998	53.26
255.216	21.5
255.433	22.93
255.651	26.99
255.868	22.67
256.086	5.06
256.303	32.67
256.521	53.88
256.738	64.51
256.956	66.88
257.173	73.99
257.39	71.98
257.608	63.17
257.825	57.43
258.043	57.15
258.26	61.07
258.477	57.56
258.695	55.79
258.912	58.98
259.129	60.42
259.346	40.45
259.564	48.9
259.781	67.54
259.998	65
260.216	63.84
260.433	71.06
260.65	71.3
260.867	53.55
261.084	56.19
261.302	56.62
261.519	63.17
261.736	41.9
261.953	47.63
262.17	37.71
262.387	31.43
262.604	34.94
262.822	44.53
263.039	41.02
263.256	50.42
263.473	65.32
263.69	72.29
263.907	58.99
264.124	68.48
264.341	64.67
264.558	57.73
264.775	39.55
264.992	55.63
265.209	53.07
265.426	56.93
265.643	71.01
265.86	68.58
266.077	66.64
266.294	85.6
266.51	80.4
266.727	56.2
266.944	44.48
267.161	39.82
267.378	14.11
267.595	24.58
267.812	56.91
268.028	82.62
268.245	87.92
268.462	99.44
268.679	79.39
268.896	69.16
269.112	54.2
269.329	48.23
269.546	52.3
269.763	46.9
269.979	32.76
270.196	38.01
270.413	54.39
270.629	64
270.846	83.03
271.063	82.11
271.279	78.44
271.496	65.3
271.712	36.61
271.929	-8.18
272.146	-14.2
272.362	21.26
272.579	39.86
272.795	43.56
273.012	44.06
273.228	38.08
273.445	26.17
273.661	20.69
273.878	17.15
274.094	26.49
274.311	27.41
274.527	32.81
274.744	19.43
274.96	31.9
275.177	22.71
275.393	27.8
275.609	29.37
275.826	51.15
276.042	53.91
276.259	71.32
276.475	68.86
276.691	69.26
276.908	55.27
277.124	41.86
277.34	40.52
277.557	35.82
277.773	36.91
277.989	43.15
278.205	49.36
278.422	43.26
278.638	49.35
278.854	56.43
279.07	40
279.286	34.88
279.503	37.49
279.719	42.23
279.935	42.12
280.151	52.96
280.367	51.23
280.583	53.58
280.799	53.46
281.016	49.53
281.232	47.44
281.448	48.5
281.664	48.41
281.88	53.38
282.096	60.35
282.312	73.14
282.528	77.92
282.744	95.92
282.96	81.17
283.176	90.25
283.392	82.26
283.608	98.7
283.824	75.4
284.04	52.36
284.256	43.41
284.471	48.8
284.687	35.55
284.903	40.39
285.119	65.25
285.335	63.16
285.551	47.29
285.767	61.68
285.982	53.55
286.198	47.53
286.414	41.41
286.63	46.03
286.846	28.39
287.061	19.53
287.277	8.15
287.493	19.49
287.709	16.5
287.924	39.14
288.14	57.68
288.356	73.22
288.571	65.21
288.787	69.47
289.003	55.55
289.218	54.16
289.434	34.71
289.65	46.96
289.865	30.26
290.081	29.41
290.296	22.91
290.512	33.53
290.727	26.94
290.943	37.76
291.159	54.99
291.374	71.6
291.59	61.36
291.805	62.55
292.021	59.93
292.236	54.76
292.451	44.93
292.667	50.93
292.882	38.66
293.098	41.46
293.313	52.6
293.529	66.72
293.744	55.77
293.959	68.08
294.175	71.13
294.39	57.73
294.605	56.4
294.821	67.83
295.036	59.5
295.251	70.53
295.467	72.54
295.682	54.74
295.897	54.37
296.112	70.76
296.328	48.47
296.543	51.7
296.758	57.1
296.973	59.85
297.188	69.08
297.404	64.65
297.619	60.41
297.834	61.47
298.049	49.64
298.264	43.21
298.479	45.63
298.694	48.08
298.909	40.75
299.125	39.19
299.34	27.59
299.555	36.05
299.77	33.87
299.985	40.39
300.2	55.86
300.415	62.26
300.63	51.3
300.845	61.86
301.06	68.28
301.275	35.04
301.49	40.29
301.704	31.34
301.919	37.26
302.134	46.87
302.349	62.25
302.564	56.77
302.779	51.99
302.994	42.98
303.209	40.81
303.423	34.92
303.638	37.06
303.853	50.98
304.068	59.37
304.283	55.6
304.497	49.22
304.712	47.85
304.927	55.64
305.142	61.34
305.356	48.95
305.571	75.59
305.786	71.91
306	58.96
306.215	37.63
306.43	45.87
306.644	41.36
306.859	56.24
307.074	70.43
307.288	85.1
307.503	75.9
307.717	73.76
307.932	59.59
308.147	53.02
308.361	45.28
308.576	46.95
308.79	32.06
309.005	25.83
309.219	16.44
309.434	25.06
309.648	34.33
309.863	41.11
310.077	39.34
310.292	49.75
310.506	32.08
310.72	38.13
310.935	49.07
311.149	71.03
311.364	51.44
311.578	57.83
311.792	49.33
312.007	35.05
312.221	39.57
312.435	48.79
312.649	52.2
312.864	1.98
313.078	-2.91
313.292	-26.88
313.507	-12.48
313.721	13.46
313.935	53.13
314.149	43.73
314.363	42.68
314.578	38.01
314.792	30.61
315.006	42.69
315.22	52.54
315.434	44.95
315.648	48.13
315.862	30.35
316.077	23.94
316.291	19.84
316.505	38.69
316.719	38.42
316.933	47.06
317.147	46.63
317.361	42.44
317.575	29.64
317.789	25.3
318.003	24.02
318.217	35.28
318.431	34.58
318.645	39.06
318.859	35.76
319.073	24.5
319.287	25.49
319.5	24.39
319.714	23.22
319.928	37.37
320.142	47.04
320.356	41.21
320.57	42.78
320.784	60.09
320.997	59.62
321.211	72.38
321.425	70.74
321.639	64.92
321.853	46.13
322.066	37.25
322.28	22.38
322.494	20.03
322.707	35.43
322.921	40.44
323.135	33.96
323.349	38.64
323.562	31.9
323.776	23.98
323.989	-2.9
324.203	15.86
324.417	17.89
324.63	44.06
324.844	59.95
325.057	91.08
325.271	90.08
325.485	75.04
325.698	69.16
325.912	56.44
326.125	63.59
326.339	59.03
326.552	55.28
326.766	56.02
326.979	50.9
327.193	35.56
327.406	32.79
327.619	25.44
327.833	19.5
328.046	23.82
328.26	20.91
328.473	11.12
328.686	25.9
328.9	26.3
329.113	24.76
329.326	31.36
329.54	50.36
329.753	22.77
329.966	33.05
330.179	29.05
330.393	32.85
330.606	24.92
330.819	44.92
331.032	39.53
331.246	38.07
331.459	35.53
331.672	37
331.885	24.82
332.098	42.56
332.311	45.67
332.525	45.19
332.738	37.12
332.951	52.04
333.164	40.74
333.377	27.07
333.59	32.6
333.803	37.8
334.016	12.93
334.229	8.02
334.442	37.87
334.655	41.66
334.868	46.51
335.081	60.84
335.294	64.97
335.507	54.21
335.72	60.09
335.933	48.2
336.146	50.69
336.359	46.22
336.572	44.37
336.785	35.26
336.997	47.77
337.21	49.42
337.423	47.05
337.636	35.16
337.849	24.37
338.062	29.63
338.274	26.93
338.487	41.95
338.7	50.18
338.913	58.29
339.125	55.28
339.338	53.04
339.551	35.62
339.763	13.84
339.976	16.6
340.189	15.87
340.402	14.29
340.614	18.97
340.827	34.53
341.039	34.41
341.252	34.13
341.465	32.11
341.677	38.62
341.89	43.98
342.102	50.59
342.315	51.95
342.527	57.95
342.74	64.09
342.952	63.19
343.165	55.64
343.377	50.6
343.59	51.68
343.802	44.63
344.015	51.31
344.227	58.62
344.44	69.32
344.652	57.03
344.864	47.55
345.077	35.97
345.289	26.72
345.502	21.54
345.714	21.26
345.926	18.39
346.139	17.73
346.351	24.59
346.563	30.72
346.775	30.39
346.988	28.42
347.2	18.16
347.412	15.63
347.624	13.87
347.837	-3.38
348.049	7.01
348.261	14.17
348.473	18.59
348.685	27.96
348.897	46.08
349.11	53.44
349.322	44.06
349.534	49.3
349.746	52.2
349.958	56.75
350.17	57.28
350.382	65.2
350.594	58.16
350.806	63.48
351.018	57.95
351.23	66.35
351.442	66.14
351.654	86.49
351.866	63.87
352.078	58.13
352.29	43.77
352.502	47.86
352.714	31.24
352.926	38.33
353.138	42.33
353.35	36.04
353.561	29.81
353.773	41.33
353.985	44.43
354.197	48.39
354.409	54.39
354.621	51.76
354.832	51.54
355.044	37.02
355.256	38.65
355.468	52.45
355.679	52.25
355.891	45.88
356.103	60.74
356.314	55.77
356.526	50.07
356.738	47.4
356.949	49.86
357.161	42.92
357.373	34.14
357.584	25.85
357.796	32.28
358.008	44.14
358.219	52.72
358.431	52.8
358.642	50.26
358.854	47.53
359.065	38.49
359.277	41.73
359.488	57.15
359.7	73.92
359.911	86.73
360.123	90.58
360.334	72.89
360.546	58.53
360.757	43.64
360.969	17.65
361.18	23.93
361.391	30.72
361.603	37.38
361.814	38.16
362.025	39.66
362.237	29.37
362.448	29.49
362.659	31.39
362.871	41.49
363.082	57.08
363.293	53.91
363.504	51.66
363.716	48.56
363.927	38.36
364.138	35.58
364.349	40.76
364.56	52.65
364.772	52.65
364.983	44.09
365.194	39.13
365.405	44.23
365.616	36.81
365.827	39.28
366.038	51.18
366.25	38.46
366.461	30.98
366.672	41.04
366.883	32.22
367.094	24.12
367.305	41.38
367.516	25.96
367.727	32.57
367.938	28.73
368.149	27.61
368.36	36.75
368.571	51.92
368.781	35.5
368.992	36.13
369.203	31.66
369.414	33.6
369.625	29.31
369.836	33.41
370.047	40.57
370.258	50.2
370.468	46.87
370.679	44.72
370.89	42.19
371.101	33.07
371.312	33.79
371.522	29.48
371.733	25.61
371.944	35.11
372.155	40.72
372.365	22.6
372.576	20.63
372.787	31.97
372.997	31.28
373.208	25.04
373.419	37.26
373.629	43.51
373.84	35.96
374.05	36.56
374.261	35.98
374.472	43.19
374.682	43.43
374.893	55.23
375.103	51.93
375.314	49.23
375.524	49.24
375.735	46
375.945	21.9
376.156	26.85
376.366	39.38
376.577	26.04
376.787	18.08
376.997	24.9
377.208	27.58
377.418	24.04
377.629	32.02
377.839	53.13
378.049	60.47
378.26	62.16
378.47	56.49
378.68	60.65
378.89	45.02
379.101	30.93
379.311	34.64
379.521	41.48
379.732	32.02
379.942	46.73
380.152	45.2
380.362	39.93
380.572	30.16
380.783	32.16
380.993	17.89
381.203	23.19
381.413	15.75
381.623	23.84
381.833	24.83
382.043	25.9
382.253	24.05
382.463	25.61
382.674	28.07
382.884	25.14
383.094	26.86
383.304	31.81
383.514	46.08
383.724	40.99
383.934	34.7
384.144	26.16
384.353	24.61
384.563	16.8
384.773	18.47
384.983	19.66
385.193	19.92
385.403	22.15
385.613	21.76
385.823	21.44
386.033	23.4
386.242	30.6
386.452	26.22
386.662	29.94
386.872	30.25
387.082	28.46
387.291	20.59
387.501	18.61
387.711	10.52
387.921	8.53
388.13	11.36
388.34	14.98
388.55	14.35
388.759	16.49
388.969	18.41
389.179	17.06
389.388	17.32
389.598	22.77
389.807	18.08
390.017	14.82
390.227	16.58
390.436	14.83
390.646	11.28
390.855	12.08
391.065	11.1
391.274	9.42
391.484	8.71
391.693	9.39
391.903	10.51
392.112	13.02
392.322	12.74
392.531	12.54
392.74	11.12
392.95	11.57
393.159	11.13
393.369	11.45
393.578	12.28
393.787	12.9
393.997	11.87
394.206	12.33
394.415	11.88
394.625	11.04
394.834	10.1
395.043	11.01
395.252	10.87
395.462	11.23
395.671	10.75
395.88	11.65
396.089	11.67
396.298	11.12
396.508	10.98
396.717	11.8
396.926	11.64
397.135	10.53
397.344	10.72
397.553	10.51
397.762	10.07
397.971	9.89
398.181	10.41
398.39	10.16
398.599	10.57
398.808	10.65
399.017	11.4
399.226	11.49
399.435	11.79
399.644	11.47
399.853	11.45
400.062	10.63
400.27	10.44
400.479	9.8
400.688	9.88
400.897	10.09
401.106	10.45
401.315	10.7
401.524	11.1
401.733	11.06
401.941	10.84
402.15	10.61
402.359	10.49
402.568	10.49
402.777	10.42
402.985	10.44
403.194	10.48
403.403	10.45
403.612	10.24
403.82	10.16
404.029	10
404.238	10.19
404.446	10.18
404.655	10.25
404.864	10.16
405.072	10.23
405.281	10.05
405.489	9.88
405.698	9.98
405.906	10.01
406.115	9.85
406.324	9.59
406.532	9.55
406.741	9.41
406.949	9.47
407.158	9.46
407.366	9.42
407.574	9.6
407.783	9.42
407.991	9.36
408.2	9.49
408.408	9.8
408.617	9.59
408.825	9.68
409.033	9.71
409.242	9.61
409.45	9.47
409.658	9.5
409.867	9.44
410.075	9.35
410.283	9.38
410.491	9.32
410.7	9.23
410.908	9.3
411.116	9.33
411.324	9.23
411.533	9.27
411.741	9.24
411.949	9.09
412.157	8.95
412.365	9.12
412.573	9.01
412.781	8.94
412.99	9.01
413.198	9.1
413.406	9.03
413.614	9.12
413.822	9.18
414.03	9.1
414.238	9.07
414.446	8.91
414.654	8.85
414.862	8.86
415.07	8.8
415.278	8.76
415.486	8.79
415.694	8.66
415.902	8.63
416.109	8.67
416.317	8.66
416.525	8.59
416.733	8.6
416.941	8.68
417.149	8.55
417.357	8.72
417.564	8.7
417.772	8.82
417.98	8.86
418.188	9.07
418.395	8.84
418.603	8.87
418.811	8.89
419.019	8.83
419.226	8.81
419.434	8.99
419.642	9.16
419.849	8.85
420.057	8.64
420.265	8.55
420.472	8.29
420.68	8.18
420.887	8.28
421.095	8.38
421.302	8.36
421.51	8.46
421.717	8.45
421.925	8.3
422.132	8.2
422.34	8.14
422.547	8.17
422.755	8.05
422.962	8.07
423.17	8.18
423.377	8.38
423.585	8.34
423.792	8.45
423.999	8.39
424.207	8.28
424.414	8.04
424.621	7.91
424.829	7.55
425.036	7.66
425.243	7.61
425.451	7.6
425.658	7.58
425.865	7.8
426.072	7.77
426.28	7.87
426.487	7.97
426.694	8.08
426.901	8.16
427.108	8.31
427.315	8.19
427.523	8.08
427.73	7.83
427.937	7.87
428.144	7.89
428.351	7.86
428.558	8.03
428.765	8.23
428.972	8.09
429.179	7.97
429.386	8.02
429.593	8.09
429.8	8.06
430.007	8.07
430.214	8.19
430.421	8.26
430.628	8.11
430.835	8.11
431.042	8.1
431.249	8.01
431.456	7.97
431.662	8.11
431.869	8.11
432.076	8.11
432.283	8.18
432.49	8.17
432.697	8.06
432.903	8.16
433.11	8.34
433.317	8.28
433.524	8.28
433.73	8.26
433.937	8.13
434.144	8.06
434.35	8.07
434.557	8.1
434.764	8.08
434.97	8.01
435.177	8
435.384	7.9
435.59	7.9
435.797	7.85
436.003	7.83
436.21	7.68
436.416	7.73
436.623	7.52
436.829	7.47
437.036	7.55
437.242	7.62
437.449	7.6
437.655	7.71
437.862	7.77
438.068	7.69
438.275	7.82
438.481	7.93
438.687	7.95
438.894	8.06
439.1	8.15
439.307	7.99
439.513	7.84
439.719	8.03
439.926	7.91
440.132	7.93
440.338	7.85
440.544	7.93
440.751	7.72
440.957	7.79
441.163	7.78
441.369	7.89
441.575	7.78
441.782	7.93
441.988	7.8
442.194	7.82
442.4	7.98
442.606	8
442.812	7.9
443.018	7.83
443.224	7.81
443.431	7.55
443.637	7.73
443.843	7.61
444.049	7.73
444.255	7.62
444.461	7.64
444.667	7.52
444.873	7.66
445.079	7.72
445.284	7.72
445.49	7.87
445.696	7.83
445.902	7.75
446.108	7.69
446.314	7.74
446.52	7.77
446.726	7.8
446.931	7.93
447.137	7.86
447.343	7.77
447.549	7.64
447.755	7.58
447.96	7.45
448.166	7.57
448.372	7.75
448.578	7.69
448.783	7.63
448.989	7.74
449.195	7.69
449.4	7.68
449.606	7.79
449.812	7.89
450.017	7.78
450.223	7.81
450.428	7.75
450.634	7.72
450.84	7.86
451.045	7.95
451.251	7.98
451.456	7.96
451.662	8.02
451.867	7.84
452.073	7.71
452.278	7.68
452.483	7.68
452.689	7.64
452.894	7.67
453.1	7.71
453.305	7.72
453.51	7.78
453.716	7.72
453.921	7.8
454.127	7.82
454.332	7.8
454.537	7.79
454.742	7.84
454.948	7.71
455.153	7.81
455.358	7.78
455.563	7.75
455.769	7.68
455.974	7.7
456.179	7.65
456.384	7.56
456.589	7.67
456.795	7.69
457	7.75
457.205	7.69
457.41	7.81
457.615	7.7
457.82	7.62
458.025	7.59
458.23	7.74
458.435	7.7
458.64	7.6
458.845	7.7
459.05	7.69
459.255	7.69
459.46	7.7
459.665	7.84
459.87	7.82
460.075	7.97
460.28	7.86
460.485	7.85
460.69	7.82
460.895	7.89
461.099	7.75
461.304	7.81
461.509	7.76
461.714	7.83
461.919	7.72
462.123	7.79
462.328	7.7
462.533	7.69
462.738	7.65
462.942	7.67
463.147	7.62
463.352	7.6
463.556	7.74
463.761	7.64
463.966	7.53
464.17	7.63
464.375	7.59
464.58	7.57
464.784	7.76
464.989	7.87
465.193	7.75
465.398	7.93
465.602	7.9
465.807	7.8
466.011	7.84
466.216	7.87
466.42	7.88
466.625	7.88
466.829	7.88
467.034	7.89
467.238	7.89
467.443	7.88
467.647	7.86
467.851	7.83
468.056	7.85
468.26	7.84
468.464	7.82
468.669	7.86
468.873	7.94
469.077	7.87
469.282	7.78
469.486	7.8
469.69	7.76
469.894	7.77
470.099	7.91
470.303	8.02
470.507	7.96
470.711	8.07
470.915	8.04
471.119	7.91
471.324	7.84
471.528	7.91
471.732	7.85
471.936	7.86
472.14	7.88
472.344	8.03
472.548	8.02
472.752	8.01
472.956	8.04
473.16	8.12
473.364	7.98
473.568	8.01
473.772	7.94
473.976	7.83
474.18	7.83
474.384	7.9
474.588	7.83
474.792	7.92
474.995	7.93
475.199	7.89
475.403	7.84
475.607	7.87
475.811	7.84
476.015	7.89
476.218	7.88
476.422	7.88
476.626	7.85
476.83	7.92
477.033	8
477.237	8.05
477.441	8.07
477.644	8.1
477.848	8.04
478.052	7.92
478.255	7.96
478.459	7.96
478.663	7.91
478.866	7.85
479.07	7.91
479.273	7.82
479.477	7.83
479.681	7.9
479.884	7.91
480.088	7.97
480.291	7.95
480.495	7.9
480.698	7.9
480.901	7.99
481.105	7.9
481.308	7.94
481.512	7.95
481.715	7.82
481.919	7.76
482.122	7.71
482.325	7.78
482.529	7.78
482.732	7.88
482.935	7.86
483.138	7.94
483.342	7.79
483.545	7.86
483.748	7.81
483.952	7.78
484.155	7.75
484.358	7.84
484.561	7.83
484.764	7.84
484.967	7.92
485.171	7.99
485.374	7.93
485.577	7.92
485.78	7.98
485.983	7.92
486.186	7.82
486.389	7.84
486.592	7.8
486.795	7.77
486.998	7.74
487.201	7.78
487.404	7.81
487.607	7.85
487.81	7.89
488.013	7.91
488.216	7.97
488.419	7.89
488.622	7.81
488.825	7.7
489.028	7.68
489.231	7.65
489.433	7.66
489.636	7.69
489.839	7.71
490.042	7.63
490.245	7.59
490.447	7.62
490.65	7.67
490.853	7.74
491.056	7.87
491.258	7.83
491.461	7.86
491.664	7.78
491.866	7.78
492.069	7.78
492.272	7.81
492.474	7.87
492.677	7.9
492.879	7.88
493.082	7.74
493.285	7.84
493.487	7.78
493.69	7.77
493.892	7.8
494.095	7.98
494.297	7.92
494.5	7.95
494.702	8
494.905	7.96
495.107	7.88
495.309	7.86
495.512	7.82
495.714	7.78
495.917	7.81
496.119	7.81
496.321	7.85
496.524	7.79
496.726	7.84
496.928	7.83
497.13	7.92
497.333	7.9
497.535	7.99
497.737	7.94
497.939	7.91
498.142	7.85
498.344	7.87
498.546	7.81
498.748	7.85
498.95	7.95
499.152	7.96
499.355	7.97
499.557	8
499.759	8.07
499.961	8.08
500.163	8.09
500.365	8.15
500.567	8.12
500.769	8.08
500.971	8.06
501.173	8.1
501.375	8.09
501.577	8.18
501.779	8.25
501.981	8.3
502.183	8.29
502.385	8.22
502.587	8.17
502.788	8.16
502.99	8.06
503.192	7.99
503.394	8.01
503.596	8.08
503.798	8.11
503.999	8.18
504.201	8.28
504.403	8.29
504.605	8.31
504.806	8.29
505.008	8.4
505.21	8.35
505.411	8.39
505.613	8.3
505.815	8.3
506.016	8.16
506.218	8.28
506.42	8.22
506.621	8.29
506.823	8.28
507.024	8.33
507.226	8.26
507.427	8.31
507.629	8.3
507.83	8.28
508.032	8.21
508.233	8.25
508.435	8.24
508.636	8.23
508.838	8.31
509.039	8.34
509.24	8.38
509.442	8.4
509.643	8.4
509.845	8.36
510.046	8.41
510.247	8.34
510.448	8.37
510.65	8.49
510.851	8.5
511.052	8.49
511.254	8.59
511.455	8.6
511.656	8.54
511.857	8.54
512.058	8.57
512.26	8.5
512.461	8.52
512.662	8.5
512.863	8.48
513.064	8.48
513.265	8.43
513.466	8.45
513.667	8.49
513.868	8.51
514.069	8.49
514.27	8.52
514.471	8.48
514.672	8.48
514.873	8.55
515.074	8.6
515.275	8.67
515.476	8.64
515.677	8.65
515.878	8.64
516.079	8.65
516.28	8.63
516.481	8.68
516.682	8.76
516.882	8.76
517.083	8.77
517.284	8.79
517.485	8.73
517.686	8.64
517.886	8.68
518.087	8.69
518.288	8.73
518.488	8.76
518.689	8.83
518.89	8.84
519.091	8.91
519.291	8.9
519.492	8.96
519.692	8.94
519.893	8.94
520.094	8.84
520.294	8.83
520.495	8.83
520.695	8.87
520.896	8.88
521.096	8.9
521.297	8.95
521.497	8.94
521.698	8.94
521.898	8.96
522.099	9.06
522.299	9.08
522.499	9.08
522.7	9.02
522.9	9.05
523.101	9
523.301	8.97
523.501	9.04
523.702	9.13
523.902	9.1
524.102	9.17
524.302	9.18
524.503	9.18
524.703	9.19
524.903	9.2
525.103	9.17
525.304	9.21
525.504	9.17
525.704	9.16
525.904	9.16
526.104	9.18
526.304	9.18
526.504	9.23
526.705	9.32
526.905	9.36
527.105	9.41
527.305	9.4
527.505	9.42
527.705	9.36
527.905	9.3
528.105	9.25
528.305	9.28
528.505	9.32
528.705	9.34
528.905	9.4
529.105	9.5
529.304	9.58
529.504	9.56
529.704	9.56
529.904	9.6
530.104	9.54
530.304	9.5
530.503	9.56
530.703	9.51
530.903	9.52
531.103	9.57
531.303	9.58
531.502	9.58
531.702	9.61
531.902	9.55
532.101	9.52
532.301	9.55
532.501	9.5
532.7	9.55
532.9	9.61
533.1	9.67
533.299	9.7
533.499	9.75
533.698	9.76
533.898	9.77
534.097	9.83
534.297	9.86
534.496	9.87
534.696	9.96
534.895	10.01
535.095	9.99
535.294	10.02
535.494	10.03
535.693	10.02
535.892	10.07
536.092	10.09
536.291	10.12
536.491	10.19
536.69	10.24
536.889	10.2
537.088	10.17
537.288	10.2
537.487	10.18
537.686	10.19
537.886	10.27
538.085	10.37
538.284	10.38
538.483	10.42
538.682	10.49
538.882	10.52
539.081	10.5
539.28	10.59
539.479	10.66
539.678	10.66
539.877	10.68
540.076	10.7
540.275	10.67
540.474	10.67
540.673	10.65
540.872	10.68
541.071	10.71
541.27	10.76
541.469	10.74
541.668	10.76
541.867	10.78
542.066	10.86
542.265	10.93
542.464	11.02
542.663	11.17
542.862	11.25
543.06	11.27
543.259	11.27
543.458	11.31
543.657	11.31
543.856	11.35
544.054	11.38
544.253	11.39
544.452	11.47
544.651	11.48
544.849	11.48
545.048	11.53
545.247	11.67
545.445	11.64
545.644	11.73
545.843	11.87
546.041	11.98
546.24	11.99
546.438	12.12
546.637	12.17
546.836	12.2
547.034	12.24
547.233	12.29
547.431	12.29
547.63	12.34
547.828	12.41
548.027	12.39
548.225	12.51
548.423	12.61
548.622	12.63
548.82	12.64
549.019	12.77
549.217	12.72
549.415	12.74
549.614	12.83
549.812	12.87
550.01	12.87
550.209	12.96
550.407	13.1
550.605	13.14
550.803	13.21
551.002	13.34
551.2	13.47
551.398	13.53
551.596	13.62
551.794	13.68
551.993	13.75
552.191	13.76
552.389	13.81
552.587	13.88
552.785	13.93
552.983	13.99
553.181	14.04
553.379	14.1
553.577	14.25
553.775	14.49
553.973	14.55
554.171	14.62
554.369	14.67
554.567	14.76
554.765	14.79
554.963	14.91
555.161	15.13
555.359	15.29
555.557	15.43
555.755	15.49
555.952	15.59
556.15	15.63
556.348	15.72
556.546	15.74
556.744	15.88
556.941	15.95
557.139	16.05
557.337	16.13
557.535	16.22
557.732	16.22
557.93	16.34
558.128	16.37
558.325	16.53
558.523	16.63
558.721	16.79
558.918	16.88
559.116	17.09
559.313	17.1
559.511	17.18
559.708	17.25
559.906	17.35
560.104	17.41
560.301	17.54
560.498	17.66
560.696	17.78
560.893	17.97
561.091	18.05
561.288	18.14
561.486	18.19
561.683	18.32
561.88	18.36
562.078	18.48
562.275	18.62
562.473	18.85
562.67	18.99
562.867	19.13
563.064	19.21
563.262	19.29
563.459	19.33
563.656	19.47
563.853	19.6
564.051	19.73
564.248	19.87
564.445	20.03
564.642	20.04
564.839	20.17
565.036	20.34
565.234	20.4
565.431	20.46
565.628	20.52
565.825	20.59
566.022	20.82
566.219	20.95
566.416	20.98
566.613	21.12
566.81	21.17
567.007	21.1
567.204	21.18
567.401	21.37
567.598	21.51
567.795	21.53
567.991	21.59
568.188	21.68
568.385	21.66
568.582	21.68
568.779	21.83
568.976	21.96
569.172	22.01
569.369	22.11
569.566	22.23
569.763	22.29
569.96	22.34
570.156	22.42
570.353	22.44
570.55	22.44
570.746	22.54
570.943	22.58
571.14	22.67
571.336	22.81
571.533	22.87
571.729	22.87
571.926	22.92
572.123	22.94
572.319	23.03
572.516	23.07
572.712	23.16
572.909	23.14
573.105	23.17
573.302	23.23
573.498	23.23
573.695	23.19
573.891	23.26
574.087	23.26
574.284	23.29
574.48	23.43
574.677	23.46
574.873	23.62
575.069	23.8
575.266	23.79
575.462	23.8
575.658	23.92
575.854	23.89
576.051	23.83
576.247	23.81
576.443	23.86
576.639	23.91
576.835	23.92
577.032	23.93
577.228	23.98
577.424	24
577.62	23.97
577.816	23.98
578.012	24.04
578.208	24.04
578.404	24.03
578.6	24.1
578.796	24.14
578.993	24.21
579.189	24.16
579.384	24.14
579.58	24.18
579.776	24.16
579.972	24.03
580.168	24.05
580.364	24.05
580.56	23.96
580.756	23.97
580.952	24
581.148	24.05
581.343	24.15
581.539	24.1
581.735	24.08
581.931	24.09
582.127	24.06
582.322	23.92
582.518	23.92
582.714	23.87
582.909	23.81
583.105	23.77
583.301	23.78
583.496	23.71
583.692	23.73
583.888	23.76
584.083	23.84
584.279	23.91
584.474	23.95
584.67	23.9
584.866	23.82
585.061	23.71
585.257	23.59
585.452	23.59
585.648	23.61
585.843	23.53
586.039	23.57
586.234	23.55
586.429	23.56
586.625	23.5
586.82	23.65
587.015	23.55
587.211	23.55
587.406	23.7
587.601	23.77
587.797	23.72
587.992	23.84
588.187	23.81
588.383	23.61
588.578	23.49
588.773	23.43
588.968	23.42
589.163	23.44
589.359	23.5
589.554	23.54
589.749	23.6
589.944	23.57
590.139	23.61
590.334	23.72
590.529	23.76
590.724	23.84
590.919	23.88
591.114	23.9
591.309	23.76
591.504	23.78
591.699	23.73
591.894	23.67
592.089	23.72
592.284	23.77
592.479	23.74
592.674	23.86
592.869	23.9
593.064	23.92
593.259	24.06
593.454	24.14
593.648	24.09
593.843	24.24
594.038	24.3
594.233	24.31
594.428	24.4
594.622	24.46
594.817	24.49
595.012	24.63
595.206	24.61
595.401	24.63
595.596	24.66
595.79	24.67
595.985	24.58
596.18	24.72
596.374	24.85
596.569	24.96
596.763	25.12
596.958	25.31
597.153	25.34
597.347	25.43
597.542	25.61
597.736	25.61
597.931	25.65
598.125	25.84
598.319	25.83
598.514	25.87
598.708	25.97
598.903	26
599.097	25.98
599.291	26.05
599.486	26.06
599.68	26.09
599.874	26.12
600.069	26.16
600.263	26.24
600.457	26.29
600.651	26.36
600.846	26.46
601.04	26.47
601.234	26.49
601.428	26.46
601.622	26.46
601.817	26.3
602.011	26.34
602.205	26.38
602.399	26.5
602.593	26.63
602.787	26.75
602.981	26.64
603.175	26.72
603.369	26.68
603.563	26.64
603.757	26.64
603.951	26.67
604.145	26.52
604.339	26.45
604.533	26.35
604.727	26.37
604.921	26.49
605.115	26.52
605.309	26.43
605.502	26.45
605.696	26.37
605.89	26.29
606.084	26.33
606.278	26.36
606.471	26.32
606.665	26.26
606.859	26.17
607.053	26.09
607.246	25.99
607.44	25.84
607.634	25.82
607.827	25.65
608.021	25.42
608.214	25.44
608.408	25.39
608.602	25.34
608.795	25.38
608.989	25.49
609.182	25.45
609.376	25.37
609.569	25.25
609.763	25.15
609.956	25.02
610.15	24.88
610.343	24.76
610.537	24.68
610.73	24.55
610.923	24.49
611.117	24.42
611.31	24.38
611.504	24.32
611.697	24.28
611.89	24.16
612.083	24.08
612.277	23.95
612.47	23.91
612.663	23.9
612.856	23.76
613.05	23.73
613.243	23.66
613.436	23.45
613.629	23.34
613.822	23.31
614.015	23.21
614.209	23.1
614.402	23.12
614.595	23.11
614.788	23.02
614.981	22.96
615.174	22.91
615.367	22.83
615.56	22.65
615.753	22.52
615.946	22.4
616.139	22.44
616.332	22.25
616.525	22.22
616.718	22.22
616.911	22.21
617.103	22.12
617.296	22.12
617.489	22.1
617.682	22.02
617.875	21.9
618.067	21.74
618.26	21.7
618.453	21.65
618.646	21.65
618.838	21.7
619.031	21.69
619.224	21.72
619.417	21.75
619.609	21.69
619.802	21.57
619.994	21.59
620.187	21.51
620.38	21.29
620.572	21.25
620.765	21.18
620.957	21.08
621.15	21
621.342	20.98
621.535	20.92
621.727	20.89
621.92	20.86
622.112	20.88
622.305	20.89
622.497	20.82
622.69	20.78
622.882	20.81
623.074	20.77
623.267	20.75
623.459	20.71
623.651	20.59
623.844	20.62
624.036	20.56
624.228	20.61
624.42	20.66
624.613	20.81
624.805	20.66
624.997	20.66
625.189	20.56
625.381	20.58
625.574	20.51
625.766	20.61
625.958	20.68
626.15	20.66
626.342	20.6
626.534	20.56
626.726	20.45
626.918	20.28
627.11	20.3
627.302	20.2
627.494	20.19
627.686	20.13
627.878	20.2
628.07	20.14
628.262	20.06
628.454	19.96
628.646	19.88
628.838	19.83
629.029	19.78
629.221	19.73
629.413	19.77
629.605	19.79
629.797	19.79
629.989	19.72
630.18	19.72
630.372	19.62
630.564	19.58
630.755	19.5
630.947	19.47
631.139	19.41
631.33	19.43
631.522	19.36
631.714	19.26
631.905	19.26
632.097	19.18
632.289	19.1
632.48	19.08
632.672	19.05
632.863	19
633.055	19.04
633.246	19.06
633.438	19.12
633.629	19.1
633.821	19.03
634.012	18.98
634.203	18.95
634.395	18.81
634.586	18.9
634.777	18.94
634.969	18.96
635.16	18.9
635.351	18.88
635.543	18.79
635.734	18.78
635.925	18.67
636.117	18.63
636.308	18.6
636.499	18.48
636.69	18.37
636.881	18.38
637.073	18.39
637.264	18.41
637.455	18.35
637.646	18.35
637.837	18.29
638.028	18.17
638.219	18.12
638.41	18.16
638.601	18.12
638.792	18.08
638.983	18.06
639.174	18.04
639.365	18.01
639.556	17.97
639.747	18
639.938	18.05
640.129	18
640.32	17.97
640.511	17.95
640.701	17.93
640.892	17.92
641.083	17.92
641.274	17.87
641.465	17.79
641.655	17.71
641.846	17.66
642.037	17.52
642.228	17.47
642.418	17.34
642.609	17.32
642.8	17.17
642.99	17.21
643.181	17.1
643.372	17.22
643.562	17.15
643.753	17.16
643.943	17.09
644.134	17.16
644.324	17.05
644.515	17.01
644.705	16.97
644.896	16.81
645.086	16.75
645.277	16.76
645.467	16.78
645.658	16.66
645.848	16.73
646.038	16.65
646.229	16.67
646.419	16.67
646.61	16.71
646.8	16.65
646.99	16.61
647.18	16.44
647.371	16.33
647.561	16.25
647.751	16.28
647.941	16.3
648.132	16.37
648.322	16.39
648.512	16.41
648.702	16.41
648.892	16.28
649.082	16.22
649.272	16.12
649.462	16.15
649.653	16.1
649.843	16.18
650.033	16.16
650.223	16.11
650.413	16.04
650.603	16.05
650.793	15.91
650.983	15.88
651.172	15.97
651.362	15.9
651.552	15.79
651.742	15.9
651.932	15.91
652.122	15.89
652.312	15.89
652.502	15.76
652.691	15.67
652.881	15.61
653.071	15.59
653.261	15.48
653.45	15.48
653.64	15.45
653.83	15.38
654.019	15.26
654.209	15.24
654.399	15.22
654.588	15.05
654.778	14.93
654.968	14.78
655.157	14.64
655.347	14.52
655.536	14.42
655.726	14.29
655.915	14.27
656.105	14.25
656.294	14.18
656.484	14.19
656.673	14.04
656.863	13.83
657.052	13.66
657.241	13.42
657.431	13.15
657.62	12.99
657.809	12.89
657.999	12.73
658.188	12.63
658.377	12.56
658.567	12.44
658.756	12.25
658.945	12.16
659.134	12.12
659.324	12
659.513	11.98
659.702	11.82
659.891	11.64
660.08	11.42
660.269	11.21
660.458	10.99
660.648	10.91
660.837	10.79
661.026	10.64
661.215	10.54
661.404	10.44
661.593	10.23
661.782	10.09
661.971	9.98
662.16	9.96
662.349	9.87
662.538	9.86
662.726	9.77
662.915	9.73
663.104	9.53
663.293	9.42
663.482	9.26
663.671	9.07
663.86	8.97
664.048	8.86
664.237	8.83
664.426	8.76
664.615	8.68
664.803	8.45
664.992	8.4
665.181	8.3
665.369	8.19
665.558	8.21
665.747	8.31
665.935	8.29
666.124	8.17
666.312	8.23
666.501	8.18
666.69	8.13
666.878	8.11
667.067	7.99
667.255	7.96
667.444	8
667.632	7.98
667.82	7.91
668.009	8.05
668.197	7.98
668.386	7.94
668.574	7.94
668.762	7.89
668.951	7.94
669.139	8.09
669.327	8.06
669.516	8.11
669.704	8.23
669.892	8.19
670.08	8.1
670.269	8.14
670.457	8.03
670.645	7.97
670.833	7.98
671.021	7.98
671.21	7.97
671.398	8.07
671.586	8.12
671.774	8.22
671.962	8.23
672.15	8.34
672.338	8.44
672.526	8.56
672.714	8.53
672.902	8.56
673.09	8.55
673.278	8.56
673.466	8.45
673.654	8.54
673.842	8.7
674.03	8.7
674.218	8.82
674.405	9.01
674.593	9
674.781	9.01
674.969	9.04
675.157	9
675.344	9.02
675.532	9.11
675.72	9.24
675.908	9.33
676.095	9.3
676.283	9.33
676.471	9.37
676.658	9.37
676.846	9.46
677.033	9.67
677.221	9.91
677.409	9.94
677.596	10.12
677.784	10.31
677.971	10.35
678.159	10.35
678.346	10.42
678.534	10.43
678.721	10.49
678.909	10.64
679.096	10.62
679.283	10.86
679.471	10.96
679.658	10.94
679.846	11.04
680.033	11.24
680.22	11.27
680.408	11.29
680.595	11.45
680.782	11.47
680.969	11.55
681.157	11.72
681.344	11.83
681.531	11.98
681.718	12.19
681.905	12.3
682.093	12.39
682.28	12.52
682.467	12.75
682.654	12.77
682.841	12.94
683.028	12.99
683.215	13.23
683.402	13.31
683.589	13.6
683.776	13.86
683.963	14.02
684.15	14.27
684.337	14.43
684.524	14.63
684.711	14.77
684.898	15.09
685.085	15.12
685.271	15.43
685.458	15.71
685.645	16.01
685.832	16.29
686.019	16.77
686.205	17.18
686.392	17.4
686.579	17.71
686.766	18.23
686.952	18.6
687.139	18.75
687.326	19.32
687.512	19.81
687.699	20.05
687.886	20.57
688.072	21.12
688.259	21.47
688.445	21.74
688.632	22.27
688.818	22.62
689.005	22.97
689.191	23.55
689.378	24.22
689.564	24.86
689.751	25.4
689.937	26.19
690.124	26.68
690.31	27.26
690.496	27.8
690.683	28.51
690.869	29.13
691.055	29.64
691.242	30.26
691.428	30.89
691.614	31.43
691.8	32.11
691.987	33.07
692.173	33.8
692.359	34.69
692.545	35.7
692.731	36.53
692.918	37.26
693.104	38.17
693.29	38.91
693.476	39.6
693.662	40.39
693.848	41.26
694.034	41.94
694.22	42.68
694.406	43.36
694.592	44.11
694.778	44.82
694.964	45.75
695.15	46.5
695.336	47.25
695.522	48.11
695.708	49.15
695.894	49.94
696.08	50.44
696.265	51.49
696.451	51.94
696.637	52.78
696.823	53.36
697.009	54.71
697.194	55.27
697.38	56.41
697.566	56.87
697.751	57.68
697.937	58.27
698.123	59.07
698.308	59.54
698.494	60.26
698.68	61.09
698.865	61.57
699.051	62.27
699.236	63.17
699.422	63.75
699.607	64.38
699.793	65.3
699.978	65.85
700.164	66.21
700.349	67.06
700.535	67.33
700.72	67.65
700.906	68.12
701.091	68.65
701.276	69.04
701.462	70.01
701.647	70.73
701.832	71.59
702.018	72.24
702.203	72.4
702.388	72.69
702.573	73.11
702.759	73.6
702.944	74.08
703.129	75.02
703.314	75.62
703.499	75.79
703.684	76.1
703.87	76.82
704.055	76.77
704.24	76.76
704.425	77.39
704.61	77.9
704.795	77.96
704.98	78.63
705.165	79.36
705.35	79.91
705.535	80.18
705.72	80.65
705.905	81.27
706.09	81.72
706.275	82.19
706.459	82.75
706.644	82.86
706.829	83.17
707.014	83.71
707.199	83.4
707.384	83.37
707.568	83.67
707.753	83.63
707.938	83.23
708.123	83.93
708.307	84.42
708.492	85
708.677	85.26
708.861	86.58
709.046	86.79
709.231	86.91
709.415	86.97
709.6	87.19
709.784	86.99
709.969	87.33
710.153	87.32
710.338	87.89
710.522	88.52
710.707	88.33
710.891	88.49
711.076	89.17
711.26	89.26
711.445	89.52
711.629	89.73
711.813	90.05
711.998	90.12
712.182	90.29
712.366	90.52
712.551	90.59
712.735	90.51
712.919	90.67
713.103	90.13
713.288	89.98
713.472	90.35
713.656	90.56
713.84	90.96
714.024	91.74
714.208	92.17
714.393	92.47
714.577	93.04
714.761	92.94
714.945	92.9
715.129	92.77
715.313	92.77
715.497	92.8
715.681	92.68
715.865	93.21
716.049	93.35
716.233	93.85
716.417	94.06
716.601	94.45
716.785	94.2
716.968	94.25
717.152	94.16
717.336	94.25
717.52	94.55
717.704	94.88
717.888	95.43
718.071	95.23
718.255	95.15
718.439	95.08
718.622	95.25
718.806	95.08
718.99	96.29
719.174	96.08
719.357	95.7
719.541	95.45
719.724	95.68
719.908	95.13
720.092	95.27
720.275	96.05
720.459	96.36
720.642	96.11
720.826	96.52
721.009	96.95
721.193	96.95
721.376	97.55
721.559	98.27
721.743	98
721.926	98.13
722.11	98.18
722.293	97.7
722.476	97.6
722.66	97.71
722.843	98.01
723.026	98.45
723.21	98.82
723.393	98.34
723.576	98.9
723.759	98.13
723.942	97.82
724.126	97.88
724.309	98.31
724.492	98.29
724.675	99
724.858	99.16
725.041	99.17
725.224	99.61
725.407	99.01
725.59	99.22
725.774	99.21
725.957	99.89
726.14	99.99
726.322	99.85
726.505	100.02
726.688	100.55
726.871	99.95
727.054	99.95
727.237	100.13
727.42	100.33
727.603	100.32
727.786	100.7
727.968	100.82
728.151	101.25
728.334	101.21
728.517	101.02
728.699	100.95
728.882	100.53
729.065	100.82
729.248	100.68
729.43	101.23
729.613	101.66
729.796	102.06
729.978	102.75
730.161	103.23
730.343	102.52
730.526	102.96
730.708	102.81
730.891	102.68
731.073	102.41
731.256	103.22
731.438	102.45
731.621	102.89
731.803	102.26
731.986	102.6
732.168	102.34
732.35	102.44
732.533	102.19
732.715	102.76
732.898	102.64
733.08	103.24
733.262	103.25
733.444	102.92
733.627	103
733.809	103.09
733.991	103.47
734.173	103.72
734.355	104.73
734.538	104.77
734.72	105.54
734.902	106.33
735.084	106.87
735.266	106.2
735.448	106.68
735.63	105.85
735.812	104.24
735.994	102.87
736.176	102.5
736.358	102.72
736.54	102.29
736.722	102.71
736.904	104.78
737.086	105.32
737.268	104.38
737.45	104.65
737.632	104.57
737.814	102.84
737.995	103.86
738.177	104.26
738.359	105.18
738.541	105.36
738.723	106.97
738.904	107.1
739.086	107.04
739.268	107.17
739.449	106.63
739.631	105.44
739.813	104.59
739.994	104.28
740.176	103.79
740.358	104.26
740.539	105.11
740.721	105.59
740.902	105.89
741.084	105.76
741.265	105.48
741.447	105.01
741.628	104.68
741.81	103.95
741.991	104.47
742.172	105.11
742.354	105.6
742.535	106.72
742.717	107.69
742.898	108.62
743.079	107.59
743.261	105.78
743.442	105.11
743.623	105.21
743.804	103.09
743.986	104.09
744.167	106.26
744.348	105.42
744.529	106.52
744.71	107.54
744.891	107.99
745.073	107.89
745.254	109.39
745.435	106.96
745.616	106.15
745.797	104.5
745.978	103.79
746.159	103.67
746.34	105.45
746.521	106.19
746.702	106.87
746.883	106.77
747.064	104.88
747.245	105.33
747.426	105.05
747.606	104.36
747.787	105.49
747.968	106.31
748.149	104.87
748.33	104.74
748.51	106.61
748.691	104.69
748.872	104.43
749.053	104.95
749.233	105
749.414	103.44
749.595	104.79
749.775	106.95
749.956	108.5
750.137	108.36
750.317	108.09
750.498	108.3
750.678	107.16
750.859	106.5
751.04	106.68
751.22	107.44
751.4	106.76
751.581	105.67
751.761	104.06
751.942	104.73
752.122	104.83
752.303	104.67
752.483	104.9
752.663	104.63
752.844	103.15
753.024	102.89
753.204	102.39
753.385	102.42
753.565	105.63
753.745	106.71
753.925	106.92
754.106	108.2
754.286	109.11
754.466	104.81
754.646	104.06
754.826	103.05
755.006	104.65
755.187	104.83
755.367	106.1
755.547	106.62
755.727	106.69
755.907	103.61
756.087	103.36
756.267	102.05
756.447	103.36
756.627	104.39
756.807	104.42
756.987	102.29
757.167	104.52
757.346	103.3
757.526	102.1
757.706	102.18
757.886	102.95
758.066	102.11
758.246	102.07
758.425	103.24
758.605	103.8
758.785	105.25
758.965	106.5
759.144	107.67
759.324	108.31
759.504	108.52
759.683	108.04
759.863	107.33
760.043	105.79
760.222	104.34
760.402	103.79
760.581	103.69
760.761	101.68
760.94	101.88
761.12	102.55
761.299	102.71
761.479	102.51
761.658	103.1
761.838	102.61
762.017	103.08
762.197	102.33
762.376	102.54
762.555	102.52
762.735	103.73
762.914	100.84
763.093	101.92
763.273	101.52
763.452	101.44
763.631	99.23
763.81	101.84
763.99	103.38
764.169	103.73
764.348	104.95
764.527	105.94
764.706	104
764.885	101.36
765.064	101.92
765.243	101.14
765.423	102.2
765.602	102.83
765.781	103.6
765.96	101.81
766.139	100.49
766.318	99.33
766.497	99.86
766.676	99.01
766.854	100.11
767.033	100.94
767.212	101.8
767.391	101.1
767.57	103.22
767.749	100.56
767.928	101.47
768.106	101.68
768.285	100.86
768.464	98.26
768.643	100.04
768.821	99.01
769	97.52
769.179	98.75
769.357	98.29
769.536	97.62
769.715	98.15
769.893	99.82
770.072	98.29
770.25	100.31
770.429	103.41
770.607	102.27
770.786	101.88
770.964	102.98
771.143	102
771.321	99.29
771.5	100.99
771.678	101.36
771.857	99.96
772.035	102.73
772.213	103.55
772.392	101.96
772.57	100.15
772.748	100.97
772.927	99.68
773.105	98.04
773.283	96.38
773.461	97.23
773.64	96.29
773.818	96.87
773.996	94.82
774.174	97.01
774.352	95.43
774.531	97.91
774.709	96.09
774.887	100.72
775.065	100.77
775.243	102.9
775.421	101.07
775.599	98.36
775.777	96.1
775.955	95.59
776.133	95.94
776.311	96.89
776.489	101.54
776.667	102
776.844	101.33
777.022	100.99
777.2	101.3
777.378	98.98
777.556	100.26
777.734	99.31
777.911	97.98
778.089	95.92
778.267	95.01
778.445	94.16
778.622	96.4
778.8	98
778.978	98.67
779.155	97.07
779.333	95.04
779.511	91.88
779.688	90.4
779.866	89.02
780.043	91.68
780.221	94.01
780.398	95.12
780.576	95.79
780.753	97.96
780.931	97.44
781.108	97.81
781.286	97.05
781.463	97.25
781.64	98.98
781.818	100.14
781.995	97.18
782.172	98.49
782.35	96.91
782.527	96.41
782.704	94.67
782.882	95.63
783.059	95.57
783.236	93.4
783.413	94.24
783.59	95.02
783.768	94.91
783.945	96.12
784.122	98.07
784.299	96.06
784.476	93.94
784.653	96.2
784.83	95.85
785.007	96.39
785.184	93.73
785.361	96.45
785.538	94.6
785.715	92.59
785.892	91.01
786.069	96.24
786.246	93.73
786.423	94.91
786.6	97.67
786.776	98.06
786.953	93.32
787.13	96.06
787.307	94.48
787.484	95.14
787.66	98.7
787.837	100.18
788.014	101.19
788.191	101.16
788.367	100.11
788.544	100.26
788.721	98.29
788.897	94.83
789.074	95.17
789.25	93.25
789.427	90.1
789.603	91.82
789.78	91.88
789.956	92.13
790.133	95.38
790.309	96.85
790.486	93.39
790.662	97.99
790.839	99.84
791.015	97.53
791.192	95.92
791.368	98.79
791.544	93.03
791.721	91.89
791.897	91.17
792.073	93.04
792.249	92.4
792.426	94.4
792.602	93.51
792.778	96.68
792.954	96.76
793.13	95.39
793.307	93.02
793.483	92.03
793.659	90.63
793.835	88.73
794.011	90.06
794.187	94.02
794.363	97.07
794.539	92.14
794.715	95.19
794.891	98.42
795.067	94.9
795.243	90.6
795.419	94.5
795.595	97.24
795.771	96.6
795.947	99.97
796.122	102.54
796.298	103.06
796.474	102.06
796.65	100.36
796.826	101.16
797.001	102.52
797.177	97.98
797.353	93.56
797.529	96.94
797.704	91.37
797.88	87.26
798.056	90.77
798.231	92.77
798.407	87.21
798.582	90.63
798.758	89.86
798.934	94.26
799.109	92.28
799.285	94.91
799.46	92.54
799.636	99.61
799.811	94.14
799.986	91.45
800.162	91.13
800.337	95.57
800.513	91.76
800.688	93.11
800.863	95.06
801.039	95.21
801.214	92.94
801.389	91.38
801.565	86.49
801.74	91.68
801.915	88.24
802.09	87.64
802.265	91.25
802.441	93.29
802.616	86.1
802.791	87.93
802.966	89.28
803.141	84.25
803.316	84.53
803.491	87.91
803.666	94.01
803.841	97.61
804.016	105.59
804.191	104.1
804.366	111.46
804.541	103.18
804.716	98.35
804.891	95.85
805.066	100.5
805.241	89.37
805.416	86.28
805.591	83.82
805.765	81.37
805.94	81.73
806.115	83.18
806.29	89.42
806.464	93.08
806.639	99.68
806.814	90.83
806.989	90.54
807.163	82.66
807.338	82.59
807.512	78.09
807.687	79.15
807.862	79.15
808.036	82.46
808.211	79.99
808.385	76.88
808.56	79.63
808.734	79.86
808.909	84.14
809.083	79.69
809.258	73.94
809.432	77.38
809.606	71.87
809.781	64.67
809.955	69.87
810.13	79.08
810.304	74.39
810.478	86.46
810.652	89.37
810.827	94.1
811.001	97.29
811.175	103.25
811.349	98.2
811.524	93.68
811.698	90.53
811.872	88.87
812.046	87.34
812.22	84.63
812.394	90.53
812.568	96.25
812.742	100.04
812.916	101.12
813.09	99.54
813.264	104.41
813.438	102.07
813.612	102.59
813.786	93.83
813.96	98.57
814.134	89.14
814.308	91.99
814.482	81.8
814.656	93.15
814.83	91.67
815.003	96.73
815.177	87.82
815.351	92.84
815.525	90.84
815.698	95.67
815.872	103.48
816.046	113.79
816.219	109.98
816.393	112.71
816.567	108.17
816.74	103.9
816.914	96.11
817.088	91.56
817.261	87.49
817.435	88.7
817.608	88.69
817.782	86.18
817.955	93.28
818.129	100.28
818.302	101.69
818.475	103.76
818.649	112.96
818.822	117.46
818.996	119.19
819.169	109.44
819.342	102.75
819.516	91.24
819.689	85.2
819.862	84.98
820.035	87.19
820.209	90.23
820.382	108.39
820.555	109.69
820.728	110.98
820.901	94.48
821.075	91.82
821.248	95.66
821.421	99.92
821.594	85
821.767	102.9
821.94	105.27
822.113	82.73
822.286	86.12
822.459	97.2
822.632	96.86
822.805	92.79
822.978	97.92
823.151	100.93
823.324	93.57
823.496	95.26
823.669	99.66
823.842	101.01
824.015	105.73
824.188	96.14
824.361	104.67
824.533	114.05
824.706	109.08
824.879	90.78
825.051	102.52
825.224	87.67
825.397	81.58
825.569	83.59
825.742	82.19
825.915	85.77
826.087	93.17
826.26	94.03
826.432	98.48
826.605	96.24
826.777	87.29
826.95	76.08
827.122	70.01
827.295	61.78
827.467	70.63
827.64	66.15
827.812	69.35
827.984	72.58
828.157	73.34
828.329	68.94
828.501	90.88
828.674	86.14
828.846	84.45
829.018	88.04
829.19	93.09
829.363	86.1
829.535	91.97
829.707	98.1
829.879	107.64
830.051	109.33
830.223	111.34
830.395	118.83
830.568	130.61
830.74	116.88
830.912	95.99
831.084	84.67
831.256	83.68
831.428	74.4
831.6	83.17
831.772	87.32
831.943	96.88
832.115	94.82
832.287	107.87
832.459	89.92
832.631	92.86
832.803	100.39
832.975	114.17
833.146	102.71
833.318	103.14
833.49	107.32
833.662	116.74
833.833	97.92
834.005	90.02
834.177	120.51
834.348	111.4
834.52	87.59
834.692	89.58
834.863	94.09
835.035	82.58
835.206	90.92
835.378	76.73
835.549	87.64
835.721	93.77
835.892	98.84
836.064	104.32
836.235	127.18
836.407	111.3
836.578	103.32
836.749	91.93
836.921	80.85
837.092	76.34
837.264	69.62
837.435	66.12
837.606	61.86
837.777	64.8
837.949	49.08
838.12	60.69
838.291	65.65
838.462	73.91
838.633	133.24
838.805	146.73
838.976	160.11
839.147	173.74
839.318	141.38
839.489	109.48
839.66	128.49
839.831	125.93
840.002	98.53
840.173	142.08
840.344	121.53
840.515	112.62
840.686	107.83
840.857	117.07
841.028	113.24
841.199	122.07
841.369	95.59
841.54	106.21
841.711	109.38
841.882	87.75
842.053	71.77
842.223	100.71
842.394	104.54
842.565	102.51
842.736	134.74
842.906	268.29
843.077	198.16
843.248	221.45
843.418	202.77
843.589	143.45
843.759	113.69
843.93	94.65
844.101	86.19
844.271	62.6
844.442	58.17
844.612	68.17
844.783	59.14
844.953	49.64
845.123	58
845.294	62.81
845.464	74.07
845.635	102.24
845.805	130.16
845.975	138.07
846.146	146.27
846.316	121.09
846.486	136.56
846.656	97.23
846.827	77.03
846.997	88.66
847.167	76.14
847.337	54.77
847.507	73.6
847.677	102.1
847.848	106.39
848.018	125.52
848.188	145.84
848.358	145.9
848.528	150.59
848.698	153.03
848.868	161.73
849.038	152.41
849.208	92.81
849.378	97.05
849.548	51.93
849.718	45.89
849.887	62.75
850.057	70.41
850.227	76.57
850.397	95.07
850.567	93.64
850.737	88.15
850.906	70.94
851.076	60.98
851.246	58.28
851.415	63.17
851.585	73.24
851.755	74.42
851.924	77.77
852.094	84.11
852.264	72.46
852.433	60.34
852.603	75
852.772	65.68
852.942	73.87
853.111	69.58
853.281	71.71
853.45	61.23
853.62	49.46
853.789	31.13
853.959	41.68
854.128	54.75
854.297	68.56
854.467	157.08
854.636	169.65
854.805	136.4
854.975	152.71
855.144	129.29
855.313	98.08
855.482	100.26
855.652	114.46
855.821	117.05
855.99	85.35
856.159	82.72
856.328	88.11
856.497	72.2
856.667	77.06
856.836	131.39
857.005	139.02
857.174	100.13
857.343	120.99
857.512	88.39
857.681	55.75
857.85	55.88
858.019	46.19
858.188	45.69
858.356	93.37
858.525	98.81
858.694	101.62
858.863	112.22
859.032	88.62
859.201	75.81
859.369	86.17
859.538	107.32
859.707	96.39
859.876	114.46
860.044	95.68
860.213	104.56
860.382	100.66
860.55	133.23
860.719	173.17
860.888	216.41
861.056	149.94
861.225	148.83
861.393	135.12
861.562	135.19
861.73	111.4
861.899	99.03
862.067	91.84
862.236	86.47
862.404	89.31
862.572	80.2
862.741	83.11
862.909	69.09
863.078	65.39
863.246	51.42
863.414	53.59
863.582	70.84
863.751	79.5
863.919	84.94
864.087	107.24
864.255	99.25
864.424	82.42
864.592	76.15
864.76	77.97
864.928	53.78
865.096	50.51
865.264	59.49
865.432	62.37
865.6	65.96
865.768	91.62
865.936	95.79
866.104	68.78
866.272	60.93
866.44	64.17
866.608	45.93
866.776	47.75
866.944	104.92
867.112	135.29
867.28	129.31
867.448	110.81
867.615	110.71
867.783	95.42
867.951	72.78
868.119	87.15
868.286	100.71
868.454	101.71
868.622	92.42
868.789	106.15
868.957	81.21
869.125	85.11
869.292	70.56
869.46	76.95
869.627	79.07
869.795	81.12
869.963	72.71
870.13	58.92
870.298	53.51
870.465	83.07
870.632	96.86
870.8	108.82
870.967	141.33
871.135	170.82
871.302	123.73
871.469	108.98
871.637	99.54
871.804	62.14
871.971	52.04
872.139	69.22
872.306	64.9
872.473	86.9
872.64	116.89
872.807	109.43
872.975	84.55
873.142	90.96
873.309	67.82
873.476	69.84
873.643	64.8
873.81	79.21
873.977	77.01
874.144	75.27
874.311	62.8
874.478	69.16
874.645	69.54
874.812	82.59
874.979	86.3
875.146	96.8
875.313	99.33
875.48	102.86
875.647	101.55
875.813	125.15
875.98	109.43
876.147	92.83
876.314	109.1
876.481	115.47
876.647	99.52
876.814	109.1
876.981	109.24
877.147	106.34
877.314	84.7
877.481	101.46
877.647	86.11
877.814	68.61
877.98	82.24
878.147	71.24
878.314	86.51
878.48	94.65
878.647	140.42
878.813	77.46
878.979	97.64
879.146	80.35
879.312	98.39
879.479	62.92
879.645	51.27
879.811	36.38
879.978	58.82
880.144	68.27
880.31	75.31
880.477	98.46
880.643	86.28
880.809	85.64
880.975	52.42
881.142	-44.95
881.308	-63.02
881.474	-52
881.64	-74.89
881.806	-85.44
881.972	85.62
882.138	170.9
882.304	75.08
882.47	63.89
882.636	63.19
882.802	66.34
882.968	51.38
883.134	52.33
883.3	56.63
883.466	69.65
883.632	124.35
883.798	172.23
883.964	379.93
884.129	540.14
884.295	357.59
884.461	181.44
884.627	153.83
884.793	112.62
884.958	106.89
885.124	102.26
885.29	83.68
885.455	89.21
885.621	68.14
885.787	51.47
885.952	41.27
886.118	67.59
886.283	74.49
886.449	94.88
886.614	85.37
886.78	98.06
886.945	104.94
887.111	106.1
887.276	86.06
887.442	91.72
887.607	105.09
887.773	102.49
887.938	61.34
888.103	55.8
888.269	63.95
888.434	67.52
888.599	44.72
888.764	41.61
888.93	64.07
889.095	54.1
889.26	28.87
889.425	27.66
889.59	58.13
889.756	32.83
889.921	24.96
890.086	38.91
890.251	41.83
890.416	3.59
890.581	-12.1
890.746	16.6
890.911	48.22
891.076	89.94
891.241	107.92
891.406	142.37
891.571	150.5
891.736	106.01
891.901	90.93
892.065	103.85
892.23	77.32
892.395	91.9
892.56	54.95
892.725	67.4
892.889	53.88
893.054	68.7
893.219	60.29
893.384	86.86
893.548	75.29
893.713	70.1
893.878	57.21
